time (sec),x position (m),y position (m),forward velocity (m/s),"heading angle (rad), from x-axis, positive is CCW",throttle (unitless; -1 to 1),steering angle (unitless; -1 to 1)
0.134488867,-2.6518358257371455,-1.3596298239047333,0.01789328898381812,-0.8125761119256751,0.16334161974754316,0.28066630085817096
0.17447653500000002,-2.6518481885852947,-1.3596403753426982,0.0050418632121937935,-0.8125850097218001,0.5305514783311815,0.20271161525813391
0.21447290300000002,-2.6519254622858033,-1.359838373006991,0.025974808486970414,-0.8119663256245023,0.75,0.19043349980226593
0.25447948400000003,-2.646408122481355,-1.3656845818385817,0.34881492940462755,-0.815738855702052,0.75,0.18538081219994984
0.294477096,-2.636425275392937,-1.375279053379202,0.5353131012905433,-0.8102112530891215,0.75,0.1952375995506359
0.33448170600000005,-2.6137072127714447,-1.3947377315190206,0.8789940589489785,-0.7837708069824965,0.75,0.22573256703847677
0.37448024500000004,-2.5796205988124816,-1.4222227294179044,1.2185208402350751,-0.7335797682702159,0.75,0.2572801338895506
0.414503685,-2.5330637934170337,-1.4561951988298374,1.567951642445707,-0.6628953670807223,0.75,0.28471128491675574
0.454479834,-2.455896017589922,-1.5028944640272128,1.8772643910924272,-0.5441523834753099,0.75,0.29966200288466976
0.49447089600000005,-2.3790517966668476,-1.5391031234482195,2.2173847717090087,-0.4333132341160685,0.75,0.3081983630367371
0.534475959,-2.3134195740568693,-1.5636757034134232,2.413194011932465,-0.3460186789280272,0.75,0.30951833012401064
0.5745048930000001,-2.216139178230899,-1.5906436369120946,2.599883576131873,-0.22646065586047306,0.75,0.2845380113596391
0.614477815,-2.108846672191527,-1.6096891476817667,2.8101892865922427,-0.11011574801223066,0.75,0.27209155810259805
0.6544852170000001,-1.9637057178365398,-1.6184365823982554,2.952605533698912,0.0334017725407735,0.7354108806312248,0.2670674831200184
0.6944801340000001,-1.8727440064767864,-1.616137005043283,3.0507388925668666,0.11051589218055274,0.694182908857001,0.25114123092964924
0.7344775880000001,-1.7490396705477296,-1.6017249195303063,3.1346746825633303,0.20477586030177136,0.6219008124590443,0.23307188021756728
0.7744660170000001,-1.5940985669347578,-1.5674254235356178,3.2030739764503626,0.31068190872875784,0.5681776903341462,0.2118126850991211
0.81452711,-1.5021357006634026,-1.537987575472175,3.2292831244005624,0.3711797606340829,0.5476751870749466,0.21224407733707118
0.85448873,-1.3812740731818076,-1.4887014527258469,3.2781778713782974,0.45478408541840265,0.5374857510738248,0.20708682293540154
0.8944919560000001,-1.2639256832925798,-1.4287989339187708,3.3060781225822757,0.5399999532078199,0.48363856643504327,0.1977639793442047
0.934475334,-1.151163926904904,-1.3587948857689462,3.325277724465629,0.629322159372247,0.4742858512224406,0.20419615762421625
0.974476011,-1.018617467148149,-1.2574119386597904,3.340778809467732,0.7429807517846627,0.4616643865235795,0.20340019711065335
1.014477873,-0.9443421311881202,-1.1895195485325785,3.348739762321857,0.8143646058058734,0.4665580567639896,0.20192070218665253
1.054481277,-0.8519076208059778,-1.0923741234016962,3.3536655439885563,0.9024700426533662,0.4357932304284638,0.18588583444111967
1.094482716,-0.7678449591813469,-0.9878732122750965,3.354037045358429,0.9862623071701111,0.4264451275990039,0.16666506989898824
1.134478233,-0.6925482204882267,-0.8763984206129611,3.3672478409346924,1.069452259048546,0.4334306081350438,0.16081386640487985
1.174484231,-0.6259807670974926,-0.7591631442972911,3.3742500936916486,1.1411335074199889,0.4402269409197395,0.12795160339706338
1.2144884,-0.566711524475641,-0.6368025330726479,3.4083831371836117,1.1908916833381227,0.4665100613425037,0.07739885060072003
1.254482217,-0.5132305150248322,-0.5102015895980182,3.4531692346116243,1.2121482808796677,0.49450138786071446,0.027017335644107725
1.2944892380000002,-0.46286181605309634,-0.3797468409172878,3.522128874142857,1.214605196143717,0.5315790848870885,-0.019235377068343506
1.334479607,-0.41246137857900766,-0.24664540993629858,3.575304213024401,1.2032898904792344,0.49592608536572763,-0.04904925671431717
1.374492245,-0.3592480136848562,-0.11254556737148785,3.615202260309595,1.177098713952182,0.48333663316772146,-0.07903628383463368
1.414503617,-0.30113164610960164,0.020953406702785355,3.6635980883101564,1.1321649107706004,0.46938206113513314,-0.10290470991733247
1.454480097,-0.23685443208873094,0.15265009643778638,3.671747254303224,1.0713876006869352,0.44225914875850497,-0.12015456880351272
1.49447677,-0.16525816973343588,0.28105295175949896,3.6847017241775037,1.0028146044650326,0.4156239754084642,-0.13570927181407494
1.534476425,-0.08541219922939902,0.4045602527825202,3.6827559709633513,0.9264347455371629,0.3940919868329039,-0.145343004410812
1.574473236,0.0026073712655853057,0.5216163634005911,3.6744252374599355,0.8444711653364947,0.3953311859160165,-0.14975204054996413
1.6145743590000001,0.09884386009538648,0.6314751199107378,3.645642659633343,0.7640707399972336,0.3761870435025775,-0.14928421196565614
1.6544999790000001,0.22949549095924077,0.756930535235549,3.6192631217948943,0.6550819357732542,0.3639007400722563,-0.15173090433640865
1.694555597,0.313074224012573,0.8255995006295814,3.596504704247487,0.5928940288580121,0.36491126672964347,-0.15272107840824675
1.734481636,0.43024063511951555,0.9083871497281433,3.5724794872392946,0.5097539446126418,0.38461332201124154,-0.1544008415432576
1.774545781,0.5531439327702662,0.9810073967933098,3.5456622923496344,0.42901907842621406,0.36306830594320083,-0.14643040735180354
1.814473422,0.6809145046050358,1.0432573436941999,3.5575572256198713,0.34891653636753805,0.3667265328078817,-0.15357530603135947
1.854479548,0.8124853857606454,1.0944978821080322,3.525794016769342,0.26415959295551944,0.3766361549955004,-0.15430058732789476
1.894477191,0.9471253334007438,1.1338791636484544,3.508600090343001,0.18174636669447472,0.39887602536156186,-0.15587532661157577
1.934475476,1.0842449648574384,1.1615506221226777,3.49776187843518,0.10261008834118401,0.35570751842304704,-0.1539798587429598
1.9744781640000002,1.222168177697933,1.1773150268783716,3.4604796898669608,0.022704309180061052,0.3567861989628843,-0.15706890316210687
2.014483053,1.360692158520965,1.1813418937325693,3.464373899432122,-0.057886728138951786,0.366065267686858,-0.16132126075271216
2.054484438,1.4980532794281025,1.1737898900993242,3.438341509448268,-0.13988542826011657,0.35384769799186805,-0.16097945432046679
2.09448087,1.6336188490829513,1.154810983941662,3.4167569950423387,-0.22540797604657795,0.34825684742303503,-0.1650246586386457
2.134491298,1.7660036069616758,1.1244324279889675,3.3794236489578298,-0.3117371508636082,0.3403076405754395,-0.1695753439059257
2.174527899,1.9257515927869564,1.0704623905415211,3.372399936554597,-0.4237727274591158,0.35643085590818163,-0.17386685281641848
2.214490652,2.048036289572295,1.0152305933850891,3.355286136086776,-0.5113379297722881,0.3412970773250793,-0.17253239394858272
2.254475155,2.1351976557428247,0.967018197501848,3.305549452495536,-0.5799408443719999,0.34361321735156153,-0.1755263454886406
2.294478608,2.245475934269934,0.8939047968776769,3.3137918805161997,-0.6731549664074612,0.3435007581236482,-0.17089447870372168
2.334502493,2.3723946957360247,0.7897964863169057,3.2670092268257886,-0.7852829441239882,0.35000559002358395,-0.17054544772860006
2.374474862,2.4422886743095917,0.7209108853326783,3.274154831475065,-0.8514266343228839,0.35552240474781643,-0.1783249933787391
2.414477089,2.528025549306828,0.6225602028275279,3.2557453179020754,-0.9380712195213459,0.34791302475755387,-0.17914836700344883
2.454476198,2.6214198557419928,0.4904482657225954,3.237911311226391,-1.0517703206242515,0.3691613306255994,-0.17441819114248508
2.494475431,2.6701045701091397,0.40638272055520336,3.2448685922376677,-1.1175885906911696,0.36958640777727525,-0.17347479403210786
2.5344804930000002,2.7260308151465757,0.2898569967272444,3.232393416243746,-1.2062367291876712,0.3588070446818826,-0.17845752186770644
2.574473416,2.770567441838388,0.16931845651821442,3.2223948225551333,-1.294435607192053,0.35856929170144275,-0.1757843875448282
2.614572332,2.804328452717788,0.04526109375667846,3.218763972288589,-1.3807655602125894,0.37373623414180024,-0.18792504849284272
2.654472443,2.8266310297078627,-0.0807664203094962,3.1985460898847635,-1.472130242239447,0.3701579572769913,-0.18533415434992323
2.694524122,2.8374101462761656,-0.20816835400971842,3.1838228294358895,-1.5627320522233088,0.363190864918389,-0.18870137659900846
2.734484609,2.8373248981943315,-0.33582958040898037,3.2045029692471276,-1.650919303674362,0.3678871109656073,-0.19324857454864913
2.774471727,2.8252935613697074,-0.4623978472842893,3.180929361680739,-1.7461240246696068,0.39285213455401996,-0.19581566229637493
2.814568254,2.801861510744936,-0.5875086190596501,3.17771263220713,-1.8419377810855249,0.3847115107830481,-0.1920947072428453
2.854476359,2.7669365184994255,-0.7093454904503544,3.168461750500707,-1.937839311048141,0.3731364508932626,-0.19517473756236484
2.894497216,2.720708611192711,-0.826385552802665,3.154018820246482,-2.0354056259984614,0.3914548612448596,-0.19611063945571736
2.934475543,2.6476746812765923,-0.9657412090856479,3.1511698370386005,-2.1535094460090574,0.41616209685817496,-0.1965493324518438
2.974474083,2.5961975867161216,-1.044824839633081,3.1580012416211374,-2.2201256425900517,0.3991972486859094,-0.19060089619686035
3.014478141,2.518608464191417,-1.1436909925049432,3.1487326886283276,-2.3134965300009425,0.40608693755473285,-0.19013375727063359
3.054490195,2.432297582762418,-1.2359815002928378,3.1621942537499654,-2.4002562552203273,0.4176117321892171,-0.18342985825241784
3.094484249,2.3383957906078603,-1.3202260309163008,3.166942737981823,-2.4900292310276524,0.42168921353919436,-0.19268667916972934
3.134476454,2.2367843318799916,-1.3956624187812492,3.157947424868965,-2.580490123255753,0.4215937905233529,-0.1908747459497836
3.174483506,2.1285843416092227,-1.461814163523348,3.1695206858413765,-2.670751275471701,0.4241998499539785,-0.19146970458963153
3.21448167,2.014366508235629,-1.5183707891733855,3.1977828991541033,-2.7598041698149176,0.441271196917663,-0.19081975456883252
3.254486766,1.8954086700414492,-1.564644987020353,3.1967379414798827,-2.846973232835541,0.4264116937652087,-0.189863168881176
3.294491716,1.7727185029322148,-1.600140267003849,3.1924591857000197,-2.9386570947043125,0.4185847551541311,-0.18864797272738376
3.334482853,1.6471259648860876,-1.62463825763012,3.187937398041013,-3.029538413054082,0.4153086854170062,-0.1880254170877194
3.374473608,1.487350032145944,-1.63945480334861,3.222909061774924,3.138809082535726,0.4336040775109397,-0.18782540232848302
3.414477741,1.3913344650549468,-1.6395490602995884,3.2066770179163693,3.0676808744651165,0.40572814988448586,-0.18485429335361087
3.454478974,1.2631288855476324,-1.629705317087871,3.2087744106611753,2.977778338036925,0.4058119455196664,-0.18516289803931935
3.49457476,1.1051415876437365,-1.601644879892835,3.2087624060950266,2.8652049980698377,0.39925715366790904,-0.1782355519223955
3.534485178,1.0129692515726776,-1.5763069632338529,3.178639632812409,2.7954714085962418,0.27121603249686127,-0.2122665150650214
3.5744777990000003,0.867018161476832,-1.520928464801313,3.103545306789647,2.6682443785881467,0.19495625877092995,-0.23385775410964388
3.614499293,0.7852676094383234,-1.4802799373991784,3.021320362758544,2.5887526914019334,0.14928890045835014,-0.25438562989718605
3.654480924,0.6844848489574913,-1.4177318312876903,2.9354471216478815,2.4756784435889525,0.16023352799436588,-0.2903575347379314
3.694483289,0.592790321934423,-1.3461299170435368,2.9069245316275696,2.364359277839948,0.29903808139657273,-0.22178916323154652
3.7344837980000003,0.5097844734517155,-1.265408559318807,2.882900740905052,2.2622995227978455,0.3867141268237983,-0.2055411029035935
3.77447438,0.43527118849493424,-1.1765407375132604,2.905557539658944,2.172111806605309,0.47332177174663975,-0.17760378761468223
3.8144774640000003,0.36789288655386776,-1.0788916963447166,2.98694031239026,2.098053555886801,0.5406561090684036,-0.14924968849569858
3.8544807260000002,0.30784143649095524,-0.9733513541644978,3.0700980412898673,2.0327508072091343,0.5436751169967181,-0.13037802995485734
3.89452589,0.24037520006966842,-0.8321575511765402,3.1773242859437016,1.9639817745947659,0.5610338890529323,-0.1026793129407892
3.93447218,0.19155586753471016,-0.7121324533833367,3.2768240469913175,1.9208840532648082,0.5568921576261381,-0.08008466652269086
3.974480534,0.1575395725902309,-0.6187020285834685,3.336702967969484,1.8959467671129584,0.5327804889104919,-0.05093835188304051
4.014487037,0.11344055008894353,-0.49034474340575035,3.4236479522685572,1.879129586631296,0.5044780545384316,-0.007249084710952548
4.054492511,0.0689415898718626,-0.35878589503449065,3.489465371470272,1.8828556794963354,0.4890390692707674,0.02793187950830546
4.094567311,0.023129373187911386,-0.22434802949695884,3.59635850982642,1.8954429874637462,0.49873738533675455,0.05673972834591557
4.134473726,-0.03876885745896242,-0.05471298116600037,3.6344800606439494,1.9219694236833142,0.43542210887290983,0.07710301987867893
4.174478582,-0.07925690116038155,0.047607023636097826,3.673457216086013,1.9450624692351925,0.4044855255000096,0.09913075067080432
4.214476297,-0.1379336018526516,0.18316331064409871,3.7143262131565926,1.9873604865593686,0.366170505671729,0.11873537865968277
4.254475971,-0.20252655099085395,0.316518324241791,3.693207998161456,2.0377394632032297,0.33163618069718764,0.1294998715563072
4.294470695,-0.2924589988356529,0.4787622163122382,3.6940249222932344,2.1150144762638643,0.2992855308776235,0.1473337272889002
4.334477459,-0.3517600049985377,0.5725042893792671,3.697095749194923,2.1707633466594243,0.2696553921321327,0.16007319717269786
4.374479919,-0.4368834104206022,0.6921365584680236,3.662873800794425,2.248407426210348,0.2714110245025904,0.17073988127476497
4.414585229,-0.5294825354069149,0.8045965241905872,3.6327009644657307,2.331500341188313,0.24951647799555512,0.1645145000588632
4.454482307,-0.6287477189318237,0.9089870616863666,3.585431050090215,2.419745559107065,0.2284200862188771,0.17538715240720887
4.494473327,-0.7344322754965557,1.00403766951316,3.541904809915158,2.5144147314358047,0.22721503904056584,0.180535507296915
4.534485463,-0.8463398752367157,1.0882409853451078,3.4885009714135844,2.6123269286309867,0.2371048101189124,0.1844925505261819
4.5744817730000005,-0.9630271359160838,1.1609683267308384,3.4115203645941787,2.7100168468913752,0.2359298137474454,0.18273602653924784
4.6144752239999995,-1.0838051650098073,1.221198746464431,3.3479759526076496,2.8062313532305363,0.23763051526546092,0.1819413734522993
4.654479309,-1.2074847627498844,1.26889170661026,3.2719990781050825,2.8993936195860077,0.2548507058707392,0.18060852584424877
4.694532847,-1.333334914358237,1.303495471668243,3.2499925432971426,2.9915181014843797,0.29286876492407543,0.1793659817506992
4.734479766,-1.460165691241585,1.3258830439860871,3.2079290894204036,3.0782666615492116,0.2934485500905246,0.17345096732085794
4.774466305,-1.6188220880697306,1.3354829127623784,3.180605937358871,-3.096949761220159,0.3119919824147151,0.17524566406997907
4.814566356,-1.713534486014697,1.3323661442454902,3.1497194135145743,-3.0321953789474683,0.32466883997012563,0.17777752101768288
4.854484836,-1.8386413710465643,1.3181129029182417,3.1397568772790194,-2.9483721594956007,0.3418945895700931,0.17620820552221605
4.894562924,-1.9614521354216519,1.292647570554533,3.1279257239523006,-2.8647461756422388,0.3294842348484676,0.17292086599676973
4.934486891,-2.110385056749375,1.2450719004905229,3.1237075536801076,-2.7567516091154185,0.3400296805318508,0.1836945979474165
4.974478178,-2.196883014601881,1.2092217563920409,3.122937837830869,-2.6886929337250094,0.35202294432405196,0.1888582505782683
5.014483055,-2.3082720929311424,1.1522924985033303,3.129895709073295,-2.5989739139957115,0.34944209164710976,0.19281707610238935
5.054483105,-2.413805490068152,1.0856243991919523,3.138530902639963,-2.5077005893218525,0.33845036897877306,0.18869148813210046
5.094470898,-2.5129497321820704,1.0100736778005632,3.128271662141318,-2.4196710413569487,0.34694057800223665,0.19703102677782386
5.134478905,-2.6265537544552604,0.9035785792325338,3.1159907656358556,-2.307471447452087,0.3606088593364624,0.19869541811016123
5.174479103,-2.6887935980674693,0.8337905130692953,3.1185251818492112,-2.238441064027115,0.3420159669666752,0.19913099507361331
5.214493001,-2.7634928368882896,0.7352571529049851,3.10350867936903,-2.147528684419021,0.3452042151506845,0.20142885244721004
5.254475785,-2.82859693614463,0.6301501857482988,3.111274787563422,-2.051055721394952,0.3573163477406578,0.20385134723561615
5.294487082,-2.883797903372009,0.5201847546471647,3.0851813123128413,-1.9571003449923492,0.3667324641652009,0.19563864546233933
5.3344857900000004,-2.937134049530738,0.37597192687601594,3.085875251076844,-1.84438656072263,0.3557263050024185,0.19855286520388457
5.374564225,-2.967787866135705,0.25738403449854286,3.068686424949614,-1.7572261771014674,0.35023068047535916,0.20036096197738928
5.414564798,-2.9826098376414847,0.16583179604949522,3.1557930864010397,-1.6854304120808943,0.3721401390657408,0.2031861407666053
5.454479682,-2.9944462934754936,0.04399810415990353,3.1140889102499276,-1.5977044045394855,0.3625598597142075,0.20211804287150464
5.49447762,-2.995122985533098,-0.07875108244539801,3.0633887342785755,-1.5062728146753293,0.3647827636852566,0.2049451781162515
5.53448431,-2.984916857209483,-0.20132161633415166,3.1011835596603436,-1.41371690615754,0.3443216219192289,0.2123633151648511
5.574501199,-2.9632251181487006,-0.32212140085697055,3.0661985133778726,-1.3170001798082411,0.3812960898336076,0.21478347449858576
5.614495734,-2.9309857931985577,-0.4408938584647194,3.0645439557633636,-1.2227284975676858,0.3896691622070212,0.21978767196021684
5.654485904,-2.8881922082335967,-0.5557545698967226,3.0582127441442926,-1.1283788754551733,0.38276155441623155,0.22117500696252174
5.6944909930000005,-2.8343518238018457,-0.6663749604157143,3.075894589209285,-1.0327298722761782,0.4165388698268617,0.22086096232570518
5.734481875,-2.770729420582475,-0.7711847535177041,3.069843185506469,-0.9378058605846384,0.4208014882801674,0.22251566621284025
5.774461941,-2.676737656445852,-0.8929346939247308,3.078390344451529,-0.8242205058111136,0.42460119912419775,0.2227159513456827
5.814560726,-2.6133932502723742,-0.9604489324201112,3.0940572519913943,-0.7585126490782127,0.432174724501424,0.2224435861297148
5.854484617,-2.52210536791647,-1.0441018994261115,3.098226283358123,-0.6713032038347573,0.46168550952018117,0.22183667795924059
5.894468046,-2.3965558246162675,-1.1365338438807415,3.1271045610927755,-0.5587463034694464,0.4464933480532222,0.21281419674361224
5.934471618,-2.288503161514034,-1.201011314192463,3.1498174915394848,-0.469521087728008,0.45087389506578374,0.2227049020857875
5.974476829,-2.1747251513106014,-1.2554875427920298,3.151678725520678,-0.37519791103672173,0.4690014609512292,0.22557878369271347
6.014499261,-2.0856796163357996,-1.2896265600865695,3.168498304179024,-0.3077358529318112,0.4661410784468653,0.2147982729252842
6.054478894,-1.9634362997634798,-1.325976001882683,3.1976736735641924,-0.21575955985502362,0.4492949357058981,0.21508121496276533
6.094470618,-1.8378707749793426,-1.3514399243212463,3.20251988175552,-0.12339611043567802,0.4521309313624112,0.21394091634752055
6.134472047,-1.7098086323131787,-1.364834602043229,3.240481307443132,-0.029028892553821305,0.4658140591158492,0.22123035994405085
6.17448879,-1.5808417024216868,-1.366912748974525,3.2352391646371554,0.06319149491042485,0.4520776736637587,0.21465075394936708
6.214486588,-1.4516409654597116,-1.3571705302611419,3.232373325944665,0.15454721942859262,0.4410037995404764,0.2134124998397826
6.254474166,-1.3237435455231898,-1.335625519293107,3.2306421674579187,0.2503171426220887,0.42911284373848885,0.2118333615724879
