time (sec),x position (m),y position (m),forward velocity (m/s),"heading angle (rad), from x-axis, positive is CCW",throttle (unitless; -1 to 1),steering angle (unitless; -1 to 1)
0.131754949,-3.2543954604782694,-0.05995314825222112,0.01183791481416987,-1.630966588566741,0.75,0.5237577366672638
0.17172468600000002,-3.254443098507295,-0.05994660158631957,0.02363740683274092,-1.631515782321488,0.44208261762880197,0.17983826644737547
0.21178786600000002,-3.2543453035644827,-0.059778602048410574,0.0053944007829970905,-1.6311870252986302,0.75,0.16629269653192646
0.251744091,-3.254360239816849,-0.059795820857055336,0.008818257649837196,-1.6309932319964062,0.75,0.16104771762121395
0.291742387,-3.2542535706334923,-0.059668452090903906,0.00265153678640974,-1.6302679599003647,0.75,0.17955213501634054
0.331868037,-3.2543868823998823,-0.0629666808141979,0.1616228822920633,-1.6312005482071612,0.75,0.2095458817381423
0.37173608500000005,-3.254844725768684,-0.07835145184210382,0.49608346306635887,-1.6291673807040656,0.75,0.23877196112097357
0.411727027,-3.2546558901403917,-0.10628768554205997,0.8597075661099953,-1.6124617950562865,0.75,0.26294481584698515
0.45181976,-3.2500865316999,-0.1612925021320183,1.174498134130302,-1.5497305223483782,0.75,0.2931781055002914
0.49173878600000004,-3.2414465491232143,-0.21957152428729704,1.5360077327988515,-1.4676446258462656,0.75,0.32222991217085545
0.531748577,-3.2300116953189537,-0.27186066056230795,1.8519610146391579,-1.3930412895009614,0.75,0.34595207215914137
0.571739878,-3.1977382703567883,-0.37241381246576516,2.351188791831403,-1.2444166735926412,0.75,0.3443851168187646
0.611747787,-3.170893149228386,-0.43630797792753084,2.3641690323888964,-1.1554110038157697,0.75,0.34265817866779424
0.651835316,-3.124179720671475,-0.5252855131354073,2.580628257643785,-1.035414962800093,0.75,0.34310751360352054
0.6917302070000001,-3.0650436160769865,-0.6157920621589059,2.732365652941307,-0.9121725527455987,0.6852552529372071,0.3188354177773653
0.731746709,-2.993771459004553,-0.7046980083224671,2.903360905623513,-0.7976697531853519,0.701606785543776,0.3070551345896091
0.7717217500000001,-2.8889511598473816,-0.808371922699831,2.9630604189914855,-0.6591594885461121,0.6355104317711165,0.29315585388160065
0.8117288680000001,-2.818626345132102,-0.8654057675299243,3.0249010582692124,-0.5820994923826107,0.6012369401230966,0.27782469291406925
0.8517782140000001,-2.7168710887629084,-0.9332360543293406,3.077886255725619,-0.48757113649195677,0.5680362596075822,0.2650569934043335
0.8917338450000001,-2.607886554757724,-0.9915852762601399,3.1087716828194356,-0.3985688430702396,0.5382055430543632,0.24439286143572642
0.9317214730000001,-2.463075241099008,-1.0506283977041457,3.1561074120409476,-0.29258226199277465,0.5314470630521367,0.24704050012159948
0.9717370550000001,-2.3720811499128427,-1.0785433490100123,3.187102712079005,-0.23194105022187808,0.5350563392348854,0.24398586440680384
1.011727591,-2.2473131127850796,-1.106384615674147,3.218193477336622,-0.1459207423792181,0.5212114716854374,0.23636044287866512
1.051743865,-2.118715726547797,-1.1239290183311768,3.257606826849981,-0.06193184290941898,0.491575845889275,0.23018152720164775
1.09175136,-1.9880082894240645,-1.1294537364846797,3.270920884469315,0.02750712621642814,0.48679746761409,0.23866096805014406
1.131723923,-1.8565127310997778,-1.1236777721401798,3.3068406873586187,0.12566166838064244,0.48910815030796406,0.2389796564774423
1.171737375,-1.7256731906322522,-1.106296140315024,3.301486982383942,0.22226996706928356,0.4471795092774185,0.23695204004564344
1.211723661,-1.5969259797822115,-1.0768679430717916,3.3014312639517307,0.32036874421249156,0.43096145731893615,0.23412379908325617
1.251723976,-1.471936137438443,-1.0356206166779365,3.278610015490947,0.42372103236058806,0.41580332311211415,0.2286632555457524
1.291779922,-1.3521382453490902,-0.9834192386724074,3.2582792561765612,0.5235261168126595,0.4255513723910593,0.2238301094310526
1.331729786,-1.2390090396538638,-0.9201092821990539,3.2363319026422044,0.6255598819880069,0.38474973775416027,0.21317847471370052
1.371719225,-1.107942661155634,-0.827146660702524,3.198615088676273,0.739878996207003,0.3768413580105372,0.20854266372984998
1.411724463,-1.0122637351545982,-0.7423832270392002,3.19319628052415,0.8295097068726959,0.3796575340297665,0.20576348116293727
1.451798597,-0.9462206879562604,-0.6733164641519037,3.1792435393636094,0.8960939029712994,0.38708952465422625,0.18955906788603588
1.4917288910000002,-0.8659253519523326,-0.5744894499042247,3.174126923338779,0.9803766813193254,0.41032928722893536,0.15526296815369317
1.5318023649999999,-0.7774803248081714,-0.44152076199764895,3.192402913951539,1.0687894956755337,0.4257189466247922,0.12841348383606127
1.571717604,-0.7147468433191763,-0.3285185002337853,3.2561282014773036,1.1274769119403016,0.44875560301018114,0.10872771790666344
1.611714533,-0.6584496290828201,-0.210583280385723,3.278238647657497,1.164396135044947,0.460012492587951,0.06094871604228328
1.651727796,-0.6052565983026204,-0.0887903093795814,3.336392145042993,1.1767728569457492,0.4720745621546584,0.008985806578868421
1.691716143,-0.5525724794478715,0.03590755752951767,3.4123699211249674,1.173733444217366,0.47892805116898407,-0.032827210201913454
1.7317145900000002,-0.4977145759993877,0.16189913475223902,3.4504885573900816,1.1588072412526103,0.47054572558486046,-0.05834173902473084
1.771730228,-0.4541751133382179,0.25691952512492955,3.497630039173999,1.1372753513943827,0.44989035626307144,-0.08707151456844585
1.811739057,-0.3922800977231248,0.38273749984367333,3.516011690305312,1.0965948368836766,0.43083734943454927,-0.11084558448396793
1.851728029,-0.3243538494524294,0.5068996114633116,3.550672517429192,1.0414371051661773,0.43364727671483144,-0.13055949442970632
1.891733287,-0.24975812201184455,0.6280335323496763,3.556305568165782,0.9812972272082812,0.4081435599007539,-0.14309007707959429
1.9317412530000002,-0.1674354250186313,0.7443368127580194,3.564154650619978,0.9103310049009258,0.39625929560983886,-0.15642432230189382
1.971734474,-0.07788664575668683,0.8551561672054356,3.551886306378678,0.8362537757604398,0.38837510573627476,-0.16508617158751906
2.011740379,0.019537649168141377,0.9592813362983013,3.553063697042367,0.7587633861274975,0.40100586007392414,-0.17200779406254024
2.051808914,0.15088344472209453,1.0783595771282433,3.5477135497999273,0.6577548615828528,0.3790807092180954,-0.17024701489835417
2.091728358,0.2346787571826899,1.143517978768836,3.542669753509015,0.5954990045035431,0.37869245123688283,-0.17415118122352152
2.131725968,0.35201897389345066,1.2223453704809277,3.532483755759639,0.5139072723561086,0.3847187755033689,-0.1770960656056541
2.171770761,0.4750453022687719,1.2916182880165403,3.5246452171180116,0.4326053593641279,0.3997868086611593,-0.1723798527881452
2.211728058,0.6026401635690629,1.3503119585958492,3.51275181831058,0.3504393969988666,0.3788650861406291,-0.1741445350572125
2.251748503,0.7342676282196293,1.3980915213796945,3.5042538607333817,0.264497213533813,0.37837146458451565,-0.17627002577720818
2.291728788,0.8687721802097916,1.4342651737400247,3.4703844948749833,0.17818744904471698,0.38886099341975183,-0.1786948654860032
2.331750755,1.0054726234749032,1.4588659647460653,3.4695141474178524,0.09145428538977435,0.38745885107595973,-0.17402726304012817
2.371720246,1.1777472279353414,1.4721867846931755,3.4718259981532578,-0.014342100761671814,0.37356925415390374,-0.17477244827392716
2.411722735,1.3152814380407558,1.4695622573341718,3.42504492756481,-0.10077182805111304,0.3806178893720256,-0.1759830406589876
2.451811031,1.4513421964370874,1.4552131289600128,3.417849388545967,-0.18569518860124803,0.3879987289590837,-0.1772690644230394
2.49172731,1.585784062806014,1.4294471991308677,3.429296239856663,-0.2668697829901938,0.36190080727546825,-0.16955066218499126
2.531755346,1.6844442310016172,1.4029062991281713,3.4000661668906544,-0.3280695646635933,0.3663093785080968,-0.17007840030420918
2.571736447,1.8441866575695312,1.344768801604223,3.398455323781754,-0.42756404953531824,0.36797057135590944,-0.171635492269513
2.611729891,1.9669302540683173,1.2866506134762203,3.389395349389238,-0.506668093265962,0.35855948622629186,-0.1742267147204417
2.651730889,2.0549747097559847,1.2366091328575903,3.3745682138840474,-0.5690163261715756,0.3558688712634284,-0.18228536131834513
2.691739834,2.166729829225548,1.1614179504147664,3.3662259759614517,-0.6538922603160047,0.34466060219100747,-0.1794049225947936
2.731730447,2.2712851113001657,1.0774072527384655,3.342157952411709,-0.7388868373377984,0.3524209999107038,-0.18303209310194427
2.771735536,2.368003329933685,0.9852685908570322,3.327614633560239,-0.823587319674779,0.34348331235435886,-0.1922158451176698
2.811725399,2.4557528642583706,0.8855159439002573,3.3245468508037366,-0.9093168900033481,0.3341243058880264,-0.1936425378911809
2.851727824,2.5344836879414876,0.7793370169222501,3.293113089252414,-0.9976856021619984,0.34182018241292206,-0.19550518261272734
2.891729335,2.603528833985309,0.6674065292011513,3.2635864954201494,-1.0852905807175628,0.35779377377388377,-0.1975188434592966
2.931726395,2.6756640750952267,0.5203322261580193,3.269095266926723,-1.1962916235962966,0.33897907813507255,-0.1861735593221366
2.971752599,2.7207654014142104,0.39841690675295577,3.2466368239323082,-1.2891855488784816,0.3328901349828471,-0.19199422565032903
3.01174724,2.754584774353644,0.2737482341688405,3.2265596169983923,-1.3800373379147657,0.3424285789770157,-0.198896529847108
3.05175386,2.772143400159721,0.17897183493504273,3.2026888759222203,-1.4495456987181248,0.33750203696111586,-0.20397813389108557
3.09173147,2.785318646303901,0.051961983306445976,3.191142960841611,-1.543055506717415,0.33340106381918605,-0.20279701884380133
3.131743336,2.7867123829412495,-0.0751094504651266,3.1655391265975172,-1.63407775835087,0.3394468788114864,-0.2027567355462518
3.17173759,2.776362253685848,-0.20088037120818164,3.1447773831343726,-1.7253856731446329,0.3623155376216579,-0.20918243542179027
3.21175033,2.7549757334551552,-0.32477480158380184,3.139153046731075,-1.8127231274321571,0.3603651204185643,-0.20807879958899844
3.251744109,2.7219527100059637,-0.4459472574437071,3.119464926006279,-1.9044710547137864,0.3630009156796592,-0.20934574872430936
3.291741167,2.6787032598915825,-0.5633035079396019,3.137681513159001,-1.9948387161154015,0.3763566055989202,-0.21077548189298578
3.331739246,2.6245393321824255,-0.6763932807803561,3.129615770476812,-2.081945263113932,0.3969403658554241,-0.21331268226350905
3.371731476,2.559859605774381,-0.7832140083433464,3.125030340352352,-2.1788228278299835,0.38824572326538237,-0.21402626555176374
3.411735014,2.485743035364159,-0.884023494762941,3.1418125319301513,-2.2705396530890325,0.3839970246285317,-0.2147543288569918
3.45173313,2.4023442231691146,-0.9770203248945913,3.1218633223450025,-2.36546094737193,0.400971972828259,-0.21650404595412837
3.491729447,2.3106885766027587,-1.0626031802302423,3.1452485599289424,-2.4537483236395334,0.4042380784529317,-0.20995929180651973
3.531733864,2.2113133132633216,-1.1398771287457408,3.1478245476433857,-2.5387879975909695,0.3894056177766717,-0.2104492357862695
3.571724405,2.0780267118589353,-1.2244720942595086,3.1589337263164503,-2.6451802203093036,0.39989251830447764,-0.21022555380948
3.611723772,1.9935333043133865,-1.2675697055331052,3.1576509418124243,-2.7121508583924765,0.4070778857183561,-0.21213757531980282
3.651823577,1.8469745872155043,-1.3282098674891958,3.1885055132609312,-2.799179683571189,0.39634499074457447,-0.21056901269759712
3.691735624,1.7560028359427344,-1.356144585649169,3.174107942832777,-2.88977198025175,0.38178542037565977,-0.20620263986743684
3.73174373,1.6321756680716584,-1.3839002092107786,3.1791191833688672,-2.9851245473287435,0.39150218685335914,-0.2140228569724768
3.771736048,1.5063789301438109,-1.400399982337009,3.171234141598507,-3.0794403617564337,0.377979417306079,-0.22077562962500666
3.811723514,1.3486894712045745,-1.4038846052829026,3.164802355594109,3.0811101704153407,0.3757042576864256,-0.21771488564729682
3.85174711,1.2543407349819924,-1.3973874847671444,3.152650192566589,3.009112193174619,0.3718817965037269,-0.2142674293567181
3.891736213,1.129958273366929,-1.3781684472245093,3.15464082859549,2.9122704949652714,0.3825007002640527,-0.21124658526521684
3.931740745,1.0079474493561467,-1.3476834635541186,3.1474346761011334,2.820994047479729,0.3670412208781133,-0.2013028789787073
3.971749258,0.8604320948696438,-1.2940269980853267,3.133160499361031,2.7092610633049423,0.3658533213568298,-0.2063691383739209
4.011728123,0.7751974264964303,-1.2538725090976797,3.147380374255758,2.6397606277457775,0.36615807459236777,-0.204021075921349
4.051775181,0.6666174865940496,-1.1910202837999857,3.141157097272579,2.549263006347833,0.3807497165011722,-0.20352939667104872
4.091731867,0.5400267090551222,-1.0994539143771607,3.1367628373928653,2.4361641969604033,0.3601808733957772,-0.19543127390469092
4.131730515,0.4691114095493121,-1.0378449820792963,3.134539528061302,2.3700564423614785,0.35349683415793703,-0.20363686800744632
4.171733242,0.3821951495914881,-0.9486587529160534,3.1188979159824965,2.2805148695185635,0.36236219514600193,-0.2055992223116986
4.211789659,0.2852643017593124,-0.8264692124731051,3.108555934763372,2.170360256255516,0.37141411420164566,-0.19415373804914096
4.25174668,0.23324486047903134,-0.7483078797268334,3.125186536696754,2.10780194870613,0.39947299900131134,-0.16872641113678735
4.29173229,0.1701800146546221,-0.6388622427697414,3.1627343632731098,2.0348515953714035,0.42760986377459076,-0.13547690875280383
4.331728481,0.11272109632471368,-0.5234649815201448,3.231805023485087,1.986233146831531,0.4486498793751622,-0.09507582375855372
4.371728922,0.04679982755865651,-0.37238638742065516,3.3352903495250086,1.951697012184208,0.4534200807523199,-0.06365433248315984
4.411731086,0.008916180279075887,-0.2787391642824915,3.381896377007158,1.9435718624750402,0.4529480572858228,-0.017880988429909803
4.451815878,-0.04167877491456087,-0.15131532109877868,3.4519778959027496,1.9447319557288862,0.4466083537919126,0.019752208141645834
4.491736621,-0.09378941341850726,-0.02230486669068133,3.505167008657607,1.9553597024807177,0.40845842415555816,0.04882924083288223
4.5317319860000005,-0.14863696251615818,0.107554531158249,3.5417458968741085,1.979638017296921,0.38566853164756587,0.0739757109581563
4.571777952,-0.20799214925333862,0.23719802703346524,3.5805115981382927,2.016011074252635,0.35556928495468026,0.09685382387774627
4.611731136,-0.28963791513439335,0.3963064505160099,3.5694936756992317,2.072610167371634,0.3382241683503118,0.1168397330629789
4.651728972,-0.3433895115009991,0.4897122442507985,3.617267471180451,2.1116706910331904,0.3044958381373582,0.13086766938952157
4.691739728,-0.4408493384224358,0.6403322927776092,3.5684126579772677,2.193870318569049,0.2730476020891271,0.14524009850640374
4.731812961,-0.5045212206609296,0.7266214181370982,3.5678156328435096,2.2490345999367243,0.2630663962070413,0.1539614620286008
4.771733652,-0.6190064660722265,0.8618553379383774,3.5306692171226923,2.352933237913276,0.25188873855718785,0.16800938691412307
4.811726711,-0.7174726250406723,0.961316718549907,3.49525341540951,2.4393402472203483,0.2344734473539179,0.16823925132073814
4.851733224,-0.7961817321751832,1.0293114595913746,3.4460701892337013,2.509738150557871,0.22717939341282523,0.17819118808756593
4.891733098,-0.9334607492371656,1.1304066688980787,3.3881505239803675,2.6284463899391577,0.23352486235246506,0.17318581478611164
4.931762534,-1.0194816246602967,1.182601471278681,3.336789738210007,2.698232237490955,0.24137420679886554,0.16836038752005247
4.971771659,-1.1376772873139058,1.2414794652394665,3.2824955143828567,2.7916773190701427,0.24606369133076852,0.17573618007183378
5.011824487,-1.2591429057559897,1.288772190628993,3.2466856250769083,2.8840598391972723,0.257139469123576,0.16874117210896028
5.05177965,-1.3826153840966124,1.3236772780570165,3.1865028425815005,2.9761070642171634,0.2877428711973782,0.1772232630625139
5.091729872,-1.538461595385434,1.3500199526470613,3.160325639172615,3.088170644453269,0.2979872837893271,0.17094353683338773
5.131817237,-1.6633249768154181,1.3574116609759619,3.1277531343874463,-3.1060811533612855,0.29765112097788815,0.1726766339723029
5.171731101,-1.756786818513971,1.3549699939665258,3.1027025993445863,-3.039568608431602,0.3191687488627392,0.17497626821168993
5.211727899,-1.9105368907272382,1.337008788052293,3.09426560139863,-2.9320331957898755,0.3376218657283207,0.17103752629592545
5.251726744,-2.001073801587575,1.3180237758185211,3.091183353360665,-2.873655820680831,0.3292532539349987,0.17206699664324152
5.29173002,-2.14810700857913,1.2726992432783635,3.0885983843617537,-2.7727459106188825,0.336461016709183,0.1806236040429037
5.331737446,-2.233161658193586,1.2377801147904532,3.0627262115136666,-2.7074796012089832,0.3410974743867703,0.1768401546350792
5.371724345,-2.370245465178247,1.167867677466589,3.0750922851941573,-2.5983460935405653,0.36433353629698867,0.1882102753249339
5.411731361,-2.447987574522532,1.1192611250450182,3.0483048162143156,-2.532363970161997,0.3301513357785488,0.18425699081765315
5.451805103,-2.546530379352445,1.0463809140350633,3.0569146313342213,-2.4425791842426468,0.3422576577841599,0.19402184235488557
5.491731316,-2.6597939134910815,0.943981710158168,3.062387162818286,-2.3266754441402386,0.3443636233929197,0.19029120946348652
5.531812693,-2.7214507132116417,0.8767385021789161,3.0437298537518203,-2.2567956095572868,0.3439986512801761,0.20036746002802772
5.571732509,-2.796158167483149,0.7812465800588999,3.034153872805997,-2.1656169680089645,0.3338777731977185,0.20105154300028386
5.611725842,-2.861130741914915,0.6792039171605257,3.005502662309251,-2.07105377635763,0.3319234966476648,0.19374242782798348
5.651754583,-2.9162111605952776,0.5723426713382946,2.998040843877544,-1.9754757613121412,0.3586402203109424,0.20061460738208375
5.691727321,-2.9707808753772698,0.4327767621201478,2.9977291356542355,-1.8574711521815235,0.34168315499908286,0.19556003263884206
5.7317691150000005,-3.0013110720071747,0.3168652574462357,3.000950584553041,-1.765375732822875,0.3468884894093327,0.1990322407631348
5.77173078,-3.021917371716532,0.19946674970035266,2.949231904542383,-1.6747785803600688,0.3593848488164835,0.20241668423854187
5.8117269910000005,-3.029170679852826,0.10922123981569908,3.00434328317259,-1.6012637920845672,0.38031011732719183,0.19829564326984694
5.851722446,-3.028426030235492,-0.04053851225443049,3.043164734383115,-1.4849423372012251,0.35386136972693444,0.197291722902121
5.891732593,-3.0197260868429043,-0.13043123765066642,3.0038773417341367,-1.4135179264938806,0.3772115927380251,0.20180711589928332
5.931732564,-2.9990894139667987,-0.2488361837760923,2.99511032514187,-1.3235358561971062,0.37948496889438,0.21125680156765053
5.97174224,-2.9673268673485103,-0.3649283927729473,3.013609326343034,-1.2297211630550928,0.3639149826971572,0.20718137703940598
6.011746546,-2.9256533085750616,-0.47798839878901256,3.0073742231282705,-1.1365314184215611,0.3838196241773,0.2154013036158256
6.051843598,-2.8729464832640677,-0.5864479210009484,3.024870294933699,-1.044825215458344,0.4015221290155771,0.21787106447319096
6.09173441,-2.8101575840258595,-0.6900894316820202,3.032408778899306,-0.9465505293338395,0.42212886666182764,0.2183752212894936
6.131851139,-2.737982438640367,-0.7876400875876528,3.0480485142385976,-0.8491321926004254,0.418277592312166,0.21700351104371016
6.171734541,-2.634924002652046,-0.8989904831090584,3.059914463856225,-0.7298089619130962,0.42060756187714565,0.2186588460872986
6.211750495,-2.5667543300733,-0.9601379225088787,3.0530343736203185,-0.6609335629133648,0.43949825177763324,0.21750920516535385
6.251739921,-2.4692180537425514,-1.0341999549745853,3.054465170783314,-0.5687806197106869,0.46854280573073004,0.2158984488676422
