time (sec),x position (m),y position (m),forward velocity (m/s),"heading angle (rad), from x-axis, positive is CCW",throttle (unitless; -1 to 1),steering angle (unitless; -1 to 1)
0.132746958,-0.09477796904746025,0.2034674661913412,0.0011589351413718856,1.7096906950030952,0.1408247932482931,0.028233621860533666
0.172651401,-0.09482682857729051,0.20344292694733604,0.006475971672028864,1.7099164361514796,0.5032253576938979,0.0863021554355508
0.21267812200000002,-0.094771248747489,0.20347619511002707,0.0063312915612076665,1.7096604885765725,0.75,0.0949476461380083
0.25266713700000004,-0.09477264041405901,0.20347546853484097,0.0011851779553028624,1.7096970896905053,0.75,0.09844214356009114
0.292664152,-0.09477255590968943,0.20348089108052309,0.0009516887079814643,1.709761562057495,0.75,0.12138045113555863
0.332643067,-0.09475294045641444,0.20358418893634692,0.011378379277769184,1.7092481115145413,0.75,0.1512676331925159
0.372647716,-0.09616389199206785,0.21322028314247854,0.34943124004413856,1.7026798661956586,0.75,0.18071573026795767
0.41269702,-0.1001317761254296,0.2351399208300931,0.6988815828092529,1.7091721456778557,0.75,0.20945375225691804
0.45268220200000003,-0.1087190461751628,0.27224710100424304,1.0799780388348712,1.7424321201175283,0.75,0.22936570319274666
0.492647637,-0.12275607932215628,0.32214909930514485,1.4313869717490917,1.8015517796864429,0.75,0.2630042274344106
0.532693221,-0.14561954560273777,0.38425597008495266,1.780484539410102,1.8793415795666528,0.75,0.2923894978612906
0.572643639,-0.1783696990537291,0.4551557185330642,2.059366975949911,1.9737413045098517,0.75,0.3123348351523515
0.6127243990000001,-0.22267849623581612,0.5324231120579983,2.3231119637444557,2.074210266274333,0.75,0.3163263499146187
0.65269845,-0.27886099384772217,0.6131537539883041,2.5392375193742804,2.182073211727283,0.75,0.3168098498123276
0.692666917,-0.3471154162359791,0.694406589869438,2.7007103485036428,2.2901162866381246,0.7134796991019001,0.3117534778406503
0.73263962,-0.42594063981718555,0.7723633977323974,2.818801785781014,2.3952168022273588,0.6209234672442714,0.2929391335683694
0.7727080930000001,-0.5143955935311214,0.8443174308819014,2.8660749886116332,2.4985599506826714,0.5340406171282401,0.28835038922580913
0.8127143710000001,-0.6111470545958928,0.9085113190477052,2.936850506181139,2.6004062807312467,0.4775339858346821,0.28446527239450325
0.8527226170000001,-0.7141991865146015,0.9629881710102914,2.9252314787034797,2.704063962702228,0.4482083609465612,0.28174259915696487
0.8926507560000001,-0.8229219166263811,1.0076111804661105,2.944539797213444,2.807645213647164,0.42893544919031146,0.26812226832102337
0.9326439460000001,-0.9354639195382312,1.0412147310654334,2.9366855636566322,2.9125786345528373,0.39846453317552777,0.2657325885984457
0.97265312,-1.0510394954862465,1.063949309631398,2.9397280966233543,3.0194098350316345,0.4088352180071981,0.262976215886863
1.012691189,-1.168130351869436,1.0750849446785677,2.9391241163135917,3.1224568482221047,0.41994588270466576,0.25992853334486904
1.052719991,-1.2859744543456808,1.0747507992594452,2.9535344814956783,-3.0605073362423503,0.4042374777003999,0.2486990982979377
1.092650811,-1.403351671787444,1.0628797889377544,2.95565578342905,-2.9627630288130513,0.3976812029722189,0.24375086266504697
1.13268601,-1.5189304013684402,1.039928785747625,2.9500517692758033,-2.8660092770388954,0.40344772567436016,0.24034730319272518
1.172655741,-1.6319298840756353,1.005590547821237,2.948293448270746,-2.7688749867653444,0.4150860447703632,0.2376540575243362
1.212680689,-1.7413557544916174,0.9607563041387629,2.966320888688893,-2.676341269623658,0.38294683222675086,0.22450706750498878
1.252705076,-1.8456443957517261,0.9055445146349262,2.949541836806959,-2.585731295057011,0.37430511121600063,0.22521096948794597
1.292646184,-1.9442057661120946,0.8406617297832442,2.956086793281972,-2.4961261440800717,0.37691561042433686,0.22621445495029668
1.332681341,-2.0367825732824762,0.7671757677066139,2.9570436915597393,-2.408645752161141,0.3855900766066723,0.22871597044898342
1.372694145,-2.121969982520114,0.6852990919767554,2.9465052339918625,-2.31866182589534,0.3503749468647648,0.22200815182768455
1.412666733,-2.199532850937847,0.5961628881314687,2.9584578747514554,-2.228704870467636,0.33870099024306694,0.22437383487112955
1.45263683,-2.269179861893758,0.500695030217368,2.9589488969872715,-2.1393128371572345,0.3409130406835921,0.2279738386907584
1.492643219,-2.3292062699095335,0.39937766836679855,2.94693812106187,-2.0432827310641533,0.3305546300432459,0.2228917914534479
1.5326490270000002,-2.380131917487372,0.2931952685756873,2.9402747942455476,-1.9521610529017177,0.30636104977467726,0.22546571982166594
1.572652983,-2.4204783182034295,0.1833476735157794,2.922641084653756,-1.8616062030023859,0.2981487987895054,0.2292055345832477
1.6126443080000001,-2.450220721656094,0.071059950100841,2.896991445694669,-1.769022136772943,0.30685823082734875,0.23101921745961568
1.652640861,-2.469526366273201,-0.04274611669545323,2.8790849413032085,-1.6796756035783798,0.28681174902651513,0.2282886852474289
1.692647181,-2.478134633345639,-0.1569524147054589,2.8567122887674565,-1.5879169562455893,0.2774948615259308,0.2315665627837112
1.732645604,-2.4765457816562466,-0.27071814583671877,2.8399294192029365,-1.4971277451933276,0.2832056126587513,0.23485755881762865
1.772643833,-2.4645185147877404,-0.3832471815415146,2.8194997290629225,-1.4067871542261714,0.298837384766478,0.23935324193396784
1.8126423950000001,-2.4422973269967967,-0.49315434474730085,2.7886160358731216,-1.3133739118066257,0.2771399423738282,0.23977846903267458
1.852654832,-2.409877743674504,-0.5998926216108267,2.773707608605979,-1.2136380909243942,0.2754558096363344,0.24370641777049432
1.8926461300000001,-2.3675675070301176,-0.7024704110137211,2.767509588322862,-1.1195721060566495,0.2874089617270082,0.2481080323891992
1.932643948,-2.315962336593978,-0.799737225155867,2.7413389812850606,-1.0234189999434178,0.3156804563646283,0.2510679124175278
1.972644341,-2.255258594071163,-0.8912436887887341,2.7366321917249485,-0.9285087158605544,0.2902945214322787,0.24815702946791898
2.012714498,-2.18630220683924,-0.9761232014583768,2.7286319027405064,-0.8331574022552647,0.2943193409071538,0.2529187460166042
2.052700659,-2.10954905246357,-1.053575406616731,2.7273408358928783,-0.7379786759520323,0.3191381704186294,0.25670826887820863
2.092650576,-2.025965151432303,-1.123303435410558,2.7183182727683337,-0.6476180924126097,0.3176579879216248,0.25161659523035723
2.132713159,-1.9361709647647554,-1.184456372878742,2.7107028882697333,-0.5558725952606165,0.31788696808294625,0.2558044869252255
2.172686728,-1.840460558029226,-1.236614150415463,2.7178163223756022,-0.4590626926922578,0.32934698689150255,0.2600038878125724
2.212706835,-1.7398882502343982,-1.279323413447796,2.7176759802635653,-0.3591617566839155,0.35721692624393214,0.26511728260067235
2.252660255,-1.635684788060751,-1.3121636295364334,2.733412787245523,-0.25694115576041854,0.3539866984188099,0.2620134199098709
2.292650508,-1.5283987828625263,-1.334655511788995,2.735308039139659,-0.15554243951809438,0.35816059883590357,0.2634737173691775
2.332708063,-1.4193250657837002,-1.3464650521074208,2.7330001838667766,-0.05446606906284952,0.37719233877135316,0.2634618333789207
2.372655615,-1.3089166874438551,-1.3475583136770188,2.771674728130702,0.0430277939575466,0.38476196717206657,0.2593186087498243
2.412651898,-1.1984780463900127,-1.3374099698346076,2.772195308998894,0.141278105517364,0.3856721528277967,0.25628377841533995
2.452678494,-1.0886234479825743,-1.3166720625884196,2.8066196198224738,0.23983786702937965,0.398560990103737,0.2532799268308387
2.492662977,-0.9810452807876799,-1.2850810805833222,2.812950875873644,0.33575419747649105,0.4072552444466135,0.2508512072596682
2.532690498,-0.876332934643377,-1.2433383268817702,2.81960618658936,0.43158865591979323,0.4038006087104244,0.2469931154282987
2.572651493,-0.7754728537094798,-1.1915281898306032,2.844034296545895,0.5280790107706992,0.39611700921538673,0.24353321475313436
2.612658762,-0.67873274921271,-1.130633271704216,2.8647372861994183,0.6180213096123685,0.4080914494757754,0.2407186341126038
2.652653822,-0.5877129215999707,-1.0602890741046624,2.8811914320638823,0.7077314478023589,0.4297080445262425,0.23731565530087825
2.692646689,-0.5023896126455855,-0.9820532197434875,2.9132070523592883,0.7965365566700623,0.39756228222753737,0.2292505144583614
2.73264161,-0.4242020633200607,-0.8958096624563949,2.9229879952623445,0.8846402520415759,0.3920319220079134,0.23068404598759795
2.7726453710000003,-0.3532379381570683,-0.8027119184867507,2.93670837933371,0.973870475888227,0.39925002621200595,0.23204904312689176
2.812644176,-0.2901030525604224,-0.7031211218363096,2.9455558229209315,1.0624313292098557,0.39955672538295733,0.2020057066583406
2.852682195,-0.2344327610972042,-0.598022698786737,2.9816108741074334,1.134395064783807,0.4094142044252997,0.15928986522592692
2.892661064,-0.18460466865776753,-0.48874752539082633,3.0251915217375256,1.1829456017032323,0.41889053034837553,0.11581841208122705
2.932702009,-0.1393718689846134,-0.375734133106563,3.06004480614684,1.2088939789872866,0.43138860861020234,0.07223244403951098
2.97265075,-0.09619174892185821,-0.2601334101979799,3.109935150505426,1.219338896960202,0.4115806306616363,0.025577041787041142
3.01269072,-0.05290653683526888,-0.1427792135919199,3.135840613119587,1.2141361782296711,0.4003266167734716,-0.01910390584182041
3.052708365,-0.006895569842112111,-0.025048090746642188,3.182797089147949,1.1903170873189288,0.4014427470839224,-0.056298226873343
3.092646313,0.043198339771223636,0.09207183549375114,3.195740993821589,1.1476986135172083,0.38525569439637947,-0.08278281285354054
3.132715927,0.09924650897645242,0.2068603335640471,3.192930729923414,1.0877385877805035,0.36686000023828086,-0.10923405754204185
3.172700898,0.16167057788085948,0.31879071876982973,3.1983124966718592,1.023633593386623,0.3504231192373667,-0.12976680773929658
3.212646886,0.23108126284670757,0.42624315574576405,3.2048534173526217,0.9513483645644609,0.3558248276500253,-0.14384948012004153
3.252695196,0.30748663562282924,0.5281880025494466,3.1784993145004257,0.8726906447546197,0.3429857418907057,-0.14976503554243192
3.292647069,0.3910117868029313,0.6233751042639489,3.1529297143560235,0.7932265822660145,0.3344009469926972,-0.15660868437605097
3.332690826,0.48079902463545254,0.7108503299576977,3.1277957794940097,0.7069182297927011,0.3351504592854548,-0.16086325664697615
3.372648987,0.5771148335952029,0.7901810453011092,3.1163431196073175,0.6199404524212228,0.3576520474404691,-0.16283766900912733
3.412644676,0.6792228741860246,0.8608646660480914,3.0927326523212995,0.5367756270806163,0.34103547947736784,-0.15822073934281078
3.452645319,0.7859427505036938,0.9221249598961697,3.077870165985513,0.4524883252016173,0.34302480696673643,-0.1603096439355602
3.492647475,0.8969042431076065,0.9739906164566295,3.052008129069632,0.36544681637764204,0.35180247609752546,-0.16235031035598096
3.532691543,1.0112547756930643,1.0156898396680296,3.0327523513281136,0.28287277123137866,0.35536249983127444,-0.1578196077299535
3.5726458660000002,1.1276713224732402,1.0472685051232358,3.0149639642804527,0.19518088794194902,0.3429658101281046,-0.16019990360052996
3.612684028,1.2458372345583268,1.0687198307921815,3.001026660635649,0.11411981506306418,0.3457396021287299,-0.16235866734885596
3.652651013,1.3647317954075302,1.079455044735368,2.9747851771072837,0.03394366354993808,0.35793335423091155,-0.16631394053000353
3.692645733,1.4835026339084807,1.0799555749565835,2.9627732437610734,-0.04948536788690928,0.3475701042319385,-0.16295275752924163
3.732725756,1.600733616809318,1.0704327448027917,2.928614102160006,-0.13256033579620932,0.33734028488136564,-0.16681832502566296
3.772651168,1.7162542066347777,1.051006309478953,2.9266454979953918,-0.21732714920003038,0.3426804556039683,-0.17155350179371096
3.812710727,1.8291500068178346,1.0216529479377605,2.9189099076280325,-0.30300451885576013,0.3545959679423588,-0.17529557191575532
3.852651551,1.9382596700633077,0.9830463328588278,2.890011370532892,-0.39037465339679844,0.3407112131798908,-0.17386733212507757
3.892650347,2.0428796671792355,0.9350626655989437,2.866722213941964,-0.478426827210237,0.32946624163032595,-0.1775568739412162
3.9326459060000003,2.1422478073148783,0.8785460704397902,2.8540702217875378,-0.5672717751165564,0.3321145181060846,-0.181536080820626
3.972652318,2.2353031262397707,0.8133017940781472,2.841010752748842,-0.6579456744338515,0.3544754949811443,-0.18475677497177076
4.012701597,2.3216674183843398,0.7405881442580057,2.8069618154208134,-0.7497643455343872,0.33007904278117234,-0.18179914397645577
4.052656272,2.4006106265623703,0.6607748930324044,2.796888171056979,-0.8359428703329544,0.3276424326116519,-0.18571069320587252
4.09264671,2.4712581269049623,0.5745501289407767,2.7806798574082436,-0.9283168941170588,0.33807949744641913,-0.1892346890234209
4.132644151,2.533665861205568,0.48301080414536446,2.7456396298175294,-1.0199102932047273,0.34467749523432967,-0.1839596960517272
4.17264829,2.5872065604193235,0.386243410684144,2.7666123438434775,-1.1102844832852314,0.33412833323933977,-0.18930720578875262
4.212766764,2.6313186959908026,0.2857256322303073,2.7327403152542336,-1.2024037362305564,0.33886655106452285,-0.19316153359842106
4.252662988,2.66557835140929,0.1817648973503804,2.7325549769180557,-1.2916197190102678,0.3639183407993484,-0.1972429384706538
4.292646184,2.690217587596486,0.0747700727414612,2.752490000555472,-1.3844325837205842,0.382359969968974,-0.20098733807993743
4.332643569,2.7048062937913113,-0.03356124336438815,2.729780962873126,-1.4775964042012508,0.3491832256364667,-0.19586134215396844
4.372649307,2.7090822463387068,-0.14251437648933946,2.740610628551287,-1.5705660729509656,0.3536240663908325,-0.20106320416752682
4.412695575,2.703523895155541,-0.2509165302101405,2.716122208266206,-1.663918029126985,0.3644655931799714,-0.2047542003896532
4.452679353,2.687949176337956,-0.3581385094754204,2.708304601422908,-1.7553202526658538,0.3543928729580983,-0.2016193723344608
4.492651964,2.662610623930929,-0.4632362142735679,2.713180103160952,-1.8504035385369013,0.3486488095277253,-0.20372817996213036
4.532641231,2.6273710608228042,-0.5655904578995853,2.7002640690481807,-1.9456205170142633,0.3678893248756348,-0.20574206735213107
4.572689631,2.5824672392097074,-0.6638634192086809,2.709705942088895,-2.0433318324841543,0.393358708028502,-0.20776721556110098
4.61264833,2.5280726768532773,-0.7572118411251785,2.69989834671278,-2.143101258165113,0.36780528307684335,-0.20126463573196354
4.652658301,2.465335664654828,-0.8449383538947757,2.7105062239531885,-2.2387110394489076,0.37555076400839277,-0.2035346442761046
4.692706588,2.394102603940281,-0.9265649273478839,2.7132504021020747,-2.332951533446971,0.3883180231015431,-0.20471063784875285
4.732720502,2.3155720695057793,-1.0011460272168013,2.6980721144041655,-2.4246414779561762,0.38855490765662865,-0.20268440323079576
4.7726596820000005,2.2298743981110887,-1.0681088381003065,2.7185138055153644,-2.5184430120259433,0.3842310905806086,-0.20149914376059244
4.812671876,2.1387368724988165,-1.1278630722685035,2.736955909354819,-2.6064599279134533,0.39328021793150936,-0.20078120290993312
4.852681264,2.041607114796448,-1.179256398384439,2.744228927261982,-2.698809347983855,0.4194392750747262,-0.2003944949276091
4.892657841,1.9398826770547473,-1.2213976463548961,2.750865547939663,-2.793631746941675,0.39583938354287296,-0.19580768675148869
4.932737135,1.8350429436930478,-1.2546604714908747,2.760827014528491,-2.8862642739546414,0.3916701816060898,-0.19831274674736452
4.972651632,1.7271967889559046,-1.2776130386975224,2.7681720725706,-2.9815550489577975,0.4029326039359506,-0.1991418297676351
5.012655466,1.6173824331135689,-1.2906366211641178,2.7683149374612115,-3.0748676599542755,0.3972758705563985,-0.19771800721114896
5.052695073,1.506972314668816,-1.293258197074768,2.745996515449691,3.1148935310322634,0.39028184287894974,-0.19659835028747372
5.092655688,1.3961871224164677,-1.2858115253479125,2.7760859054056626,3.0224602953657245,0.3941350344744586,-0.19452680618919743
5.132713091,1.2865702490028077,-1.26818485891709,2.7846022363105387,2.9306297880775576,0.4107848048331642,-0.19287043925098593
5.172641894,1.178909108730913,-1.2409086130938647,2.7888319868994733,2.8374889028513812,0.4027673050743373,-0.18497613836414006
5.212701636,1.074063158474169,-1.203709342832711,2.7877608365217657,2.7454350769264892,0.38797236862367795,-0.18666986961397922
5.252645619,0.9732139460238205,-1.1570752405955218,2.7963325111670447,2.651965901356175,0.39321810721381517,-0.18877073033350275
5.292648439,0.8768375498340715,-1.1015477404702176,2.7787893599430755,2.5620179741623375,0.398167672897214,-0.18155793419491023
5.332642572,0.7860015134098113,-1.0369600221838209,2.7869946764038205,2.4710442633567813,0.3846831170040378,-0.18300687897834395
5.372652284,0.7016104076284818,-0.9648810034590152,2.7778145134412733,2.3807349190633893,0.3796778434726921,-0.1844796347026135
5.412649911,0.62374468146955,-0.8851427796891493,2.7794062197763485,2.2938408844158324,0.3963996200937428,-0.18725705349951463
5.45263832,0.5532926562830461,-0.7988268155287557,2.7867680992634694,2.205026569360427,0.3938650459366395,-0.18029546701947224
5.49265461,0.49114537754082865,-0.7064909086323602,2.7911934704115637,2.1155715607269725,0.39054325885538116,-0.1794475688971515
5.5326479729999996,0.4365863635828881,-0.6091605125791872,2.7845526798130913,2.0295770420268684,0.3931284372791328,-0.18003771458798196
5.572647411,0.39125743569718546,-0.5071937888615997,2.7983362376887824,1.94018665022316,0.40370210478081087,-0.17976954674993623
5.612644716,0.35401786279545894,-0.40140942719286615,2.79044644809685,1.8568727382067778,0.4073903547231476,-0.13132460869285392
5.652650085,0.3226314458104428,-0.2914353664975774,2.8878196400555067,1.8035526089100566,0.4217227280504095,-0.07617381959777032
5.692646579,0.29463586449259394,-0.1778595857300612,2.949171714313539,1.7782935981740695,0.43618772601915423,-0.01950583863579574
5.732648575,0.2677311393814371,-0.061211489348402454,3.0056362218663333,1.7769713884630585,0.4663111716483962,0.03504814668161622
5.772648914,0.2397554356487034,0.057548012473126506,3.073479620431162,1.7878142654668903,0.40951104736468724,0.07238582338159265
5.812684058,0.20895315744167323,0.17715874066614082,3.1102017231143417,1.8084131363444151,0.38920199993596555,0.10967326520037413
5.852656109,0.1738578262568828,0.2970674285813004,3.1316958206185816,1.8432413931524838,0.38016720245877483,0.1390156147582385
5.892652534,0.13327636065411477,0.41620248019219636,3.156734579428273,1.8915901911361492,0.3500358753090218,0.16104329678972498
5.932649452,0.08695302369501755,0.5335059950373121,3.1529305934639495,1.9501914395956776,0.3286342416864928,0.1830754194739148
5.972646851,0.03336050334648229,0.6479049673635903,3.148008458643853,2.0195264047622006,0.3223210676181945,0.20068237541917278
6.012644735,-0.027090300503637327,0.7587848998104451,3.1453721820411165,2.0979606325407585,0.32477538182211796,0.21371302156764863
6.052643038,-0.09537455541890626,0.8640933105656927,3.1234536251905554,2.1860690588616785,0.3116919729951494,0.22167965087637453
6.092646118,-0.1714931399894467,0.9629567636857902,3.1152780535466915,2.280827860379824,0.3109616338413465,0.22877421117691957
6.132651824,-0.255321083726774,1.0542370618565853,3.1034798493499927,2.379146502631149,0.32025894113359293,0.2329041894083912
6.172658403,-0.3466275242126445,1.1371546383139086,3.0657448297333487,2.4786256180736914,0.332233417024275,0.23104996940722441
6.212698316,-0.444478043976991,1.2109647337592282,3.0667311031247486,2.5801607193981506,0.33007485458754865,0.2296696162552545
6.252655121,-0.5483651424666133,1.2750521595336988,3.064464659265557,2.678188085107993,0.34004035885424466,0.22726421424062537
