time (sec),x position (m),y position (m),forward velocity (m/s),"heading angle (rad), from x-axis, positive is CCW",throttle (unitless; -1 to 1),steering angle (unitless; -1 to 1)
0.131611862,0.13806391561088682,0.19641004932069453,0.0004444500339081966,1.5342226772039436,0.0,-1.0
0.17162527200000002,0.13804088000607553,0.1964051210515815,0.002575426547468459,1.5346196049235163,0.3940363762196451,-0.11626709049203594
0.211627574,0.13799774818541796,0.19980392083119367,0.21407330680134357,1.534888434958003,0.75,-0.13256692263011333
0.251628678,0.13941839070537224,0.21554816982890238,0.5031813930743761,1.5272567446061611,0.75,-0.13843460036498179
0.291628891,0.14308487599831207,0.24423047127345812,0.855309474087655,1.5043760772857275,0.75,-0.14159732074964185
0.331700606,0.15242145048076794,0.2988112294037713,1.288270863228853,1.4450460760555246,0.75,-0.18598211983562182
0.371631027,0.16164358607610266,0.34120811620100844,1.5245929433897332,1.3942302684889123,0.75,-0.2149371046062267
0.41162275200000004,0.18024403841189673,0.4075970697807351,1.8460554444650785,1.3103202547203392,0.75,-0.23833420774992695
0.451632807,0.20874268753997186,0.48321503489059386,2.1089854281777556,1.214688894451296,0.75,-0.24034540238235677
0.49163282300000005,0.24835918248973593,0.5652797546118405,2.368452293948045,1.1156658673698852,0.75,-0.25514347077088445
0.531620599,0.29923132181205464,0.6512024336140801,2.5707011227934897,1.0152390116277723,0.6962533048005165,-0.2591711101849302
0.5716303380000001,0.36160368325643427,0.7375198245421556,2.697854103692407,0.917357325403326,0.6254665407587319,-0.2589707356375101
0.611629721,0.43460462188028687,0.8203033674568766,2.7699390162564734,0.8190554272548471,0.5229264731068289,-0.24812919011780984
0.651632875,0.5160827177562038,0.8966946562773329,2.816472019014752,0.7218673005168202,0.4493067997314498,-0.24657215615588665
0.6916248730000001,0.6289942316297983,0.9812178932294495,2.824542098940899,0.5937221654658904,0.4127088554369859,-0.24622289930753813
0.731624291,0.7017465451749236,1.0253112654878904,2.846876765897172,0.5140326542421274,0.39490107807500774,-0.23849794573522307
0.7716313600000001,0.8298989280842528,1.0861890640765268,2.845359367145847,0.37842699237456834,0.3662797485091264,-0.2372594419629763
0.811649362,0.9099309924399007,1.1146868864941077,2.834543949811914,0.29622135991827203,0.35819101895871036,-0.22642742799389962
0.8516323490000001,1.0198145293438914,1.1428673736298314,2.8451975767276645,0.19495327987185326,0.3633238884457594,-0.23117836561721325
0.8916247540000001,1.1320597868055788,1.1594622815822837,2.8409852688223767,0.09362355148427423,0.38084312987204755,-0.21717986867979458
0.931620839,1.2740688759256553,1.1636001991710367,2.8461965410314116,-0.027478628709804376,0.4198671722725092,-0.21946883856055568
0.9716388340000001,1.3599633993409912,1.1578381361116383,2.8786132909592754,-0.09727263457257057,0.3485512659807236,-0.2093107343325998
1.011620762,1.472868180406142,1.1404546868385386,2.8607785242595574,-0.19132880477352823,0.3600256449669432,-0.20909656132418117
1.051621772,1.5842769764552906,1.1124594477617022,2.888995927396539,-0.2869067323705858,0.3461227146748826,-0.19283081993277082
1.091623799,1.7193551206183568,1.0628875231262405,2.890330621436293,-0.40264824622869055,0.32707763020509184,-0.20120254130454243
1.131642223,1.7972480077473292,1.0255628627810836,2.8806101411757368,-0.4725066171079891,0.33304962143739564,-0.20212618919070174
1.17166871,1.8969769357180022,0.9676465643531038,2.885374090393012,-0.5623306942838786,0.3344033926777051,-0.20245183495891403
1.21163803,1.990483734242731,0.9007551307653069,2.873147834833413,-0.6559247713168351,0.30802333827113704,-0.19552390978187864
1.251635043,2.0776801829975837,0.8257216431032083,2.873909928458811,-0.7490171928276151,0.3114710082331778,-0.2014386744360417
1.29163058,2.156976153699508,0.7431020887150219,2.8582665417524575,-0.8431013898626573,0.31542762539241626,-0.20110568516048558
1.331619657,2.228285508189532,0.6532255621046806,2.866699699667547,-0.9348637354140488,0.3348595091230204,-0.19903854777981986
1.371621121,2.2910505160765213,0.5575874914693754,2.856713289896728,-1.026889469755817,0.29984308560151085,-0.19816503468555313
1.411623524,2.3564592709230676,0.431063992317168,2.861230728419726,-1.1418805309039533,0.30616460780925514,-0.19813153966740119
1.451627599,2.3886204873876764,0.3518458300063786,2.8621935241183643,-1.2095196619836992,0.3146566045392333,-0.1987519692438007
1.491637102,2.4301410352359554,0.21598277441233482,2.864664596336496,-1.3183089705441595,0.29680961434989706,-0.19270406522861053
1.531702962,2.447755162315413,0.13273814398271058,2.8384315540149876,-1.385343118329282,0.2842503857656752,-0.187881888990313
1.571629954,2.462866442180382,0.020043884281618882,2.8471881533205554,-1.4722973726964754,0.29254803671145496,-0.19864175364246364
1.61161393,2.466761053824227,-0.12094212142477984,2.8240643642911354,-1.5847825199439614,0.2843570155312144,-0.19111053310729395
1.651646345,2.461845032280752,-0.20553751642085352,2.8235038020236978,-1.652169152070748,0.2854055017403448,-0.2006871618175597
1.691627176,2.4463160401682127,-0.3168227362565605,2.808165887730768,-1.741960506980018,0.2812985666531014,-0.2043608472008821
1.7316342420000002,2.420958444085224,-0.425899974957716,2.791093797867222,-1.8316266848111924,0.2959582873325317,-0.1996957027233619
1.7716267710000002,2.3860757394449656,-0.5323569264235514,2.7932064160120116,-1.9230608136172098,0.28925959116206723,-0.20032880219658816
1.81164659,2.341666673470167,-0.6345195897295483,2.783209408901278,-2.0164218405025434,0.285373134526498,-0.2045891101311822
1.851639746,2.2882403519853476,-0.7323016393501716,2.780389696081223,-2.1071099255553185,0.29451115732238264,-0.20930287462865307
1.8916259210000002,2.226176446310569,-0.8241516054997462,2.775273341377235,-2.199445848371447,0.3095705865397625,-0.21308738407953315
1.931619058,2.1559345776862444,-0.9096687958318268,2.7628326199470585,-2.2923397782491395,0.294132785828074,-0.20683227954955774
1.97169492,2.078104926557345,-0.9880834274401037,2.755102639567394,-2.388901612234789,0.2912087322711701,-0.21059410264795153
2.011624413,1.9933978434796567,-1.058774390209322,2.780369656559148,-2.480650258801545,0.3012433903149162,-0.21384500433586034
2.051617634,1.90250665835318,-1.1214631149745196,2.7553439946835065,-2.5755551081928107,0.30862739429747044,-0.21009137298482058
2.091653173,1.7812954882353425,-1.1871222905942462,2.7549076420566534,-2.6924364875299256,0.30193065876513964,-0.2108290979870075
2.131620624,1.7055554838119582,-1.219445329747123,2.744012417899124,-2.765193682529524,0.29503821590316087,-0.21353218696827858
2.171627788,1.601150933051078,-1.2539655404053023,2.749375952890482,-2.85988070177182,0.31742480443129745,-0.214966788903159
2.211623285,1.4939645405746684,-1.2780042839722923,2.735707889173609,-2.9544544178316774,0.3057066367255226,-0.20626843158147357
2.251704721,1.3849302584814982,-1.2920470198806988,2.753910296107393,-3.04743561739525,0.3110708144199896,-0.21350997928661386
2.291630915,1.2752626043790294,-1.295747628019352,2.7534049488629146,-3.1392013495867066,0.3177476822446025,-0.2137748359573419
2.331647758,1.1653019618164158,-1.289524801588695,2.7528462284550366,3.0490884080501064,0.34175111098784244,-0.2135091773982496
2.371618863,1.0293708273048057,-1.2671889126496938,2.7400693654768054,2.9283505555301024,0.3174311725000449,-0.2056690455718145
2.411630813,0.9491412406862166,-1.246514013061639,2.755144709862154,2.8591293867395486,0.31751472041964046,-0.209349815552474
2.451631872,0.8449781897096266,-1.209904994685052,2.7578780853026257,2.764041980578741,0.3301840465906849,-0.21191380481393132
2.491628352,0.744670665028489,-1.16364246687142,2.777930088662188,2.6691646520335475,0.3560127333178538,-0.20523578378560545
2.531635085,0.6489564138657352,-1.1080007091518533,2.772344363775193,2.5757217430950674,0.32782218870355806,-0.20154752446854568
2.571635639,0.5586761151097103,-1.0436218575953804,2.772834652087778,2.4842348935723977,0.3279660587027988,-0.2047096318858203
2.6116140039999998,0.47444877626621806,-0.9709407241568419,2.7885306741092175,2.39475546593256,0.3351622846696466,-0.20774806395971987
2.65163569,0.39704816204346977,-0.8909181809663675,2.7951394348411696,2.302006420290599,0.36437623947509973,-0.21039871925561382
2.691623339,0.3109885343122717,-0.7811073879211816,2.7846298965195526,2.1883068620890054,0.3323723390827257,-0.20421511255851937
2.731696595,0.2657461468632898,-0.710747254045346,2.7933043236827215,2.118241176370678,0.33197137403956484,-0.20689502645530872
2.771668501,0.20100776543500515,-0.5871526277918429,2.78510484968768,1.9990648415350427,0.3462449685383247,-0.20811383804105638
2.811627504,0.16913473373159296,-0.5093500591860671,2.806903828290525,1.9309193967677918,0.35224807552051474,-0.16568614137560606
2.851664146,0.13390534378903546,-0.4019930790101319,2.8160904139179515,1.8480171708338322,0.35780727081932207,-0.12771797556188
2.891634054,0.1051790978565293,-0.29074588246874133,2.8917879238898063,1.7882801391664394,0.3623426473241335,-0.07282630990894952
2.931627985,0.08121520561675828,-0.1761475556699455,2.9439831438863084,1.7535619255614279,0.3666373382097035,-0.03476612542918733
2.971632345,0.054601369202307536,-0.029343365586785318,2.999750862515418,1.7362923769859202,0.3546281711090617,0.015942816816085635
3.011625512,0.03843480595894156,0.060141660876034224,3.0443703425850743,1.7432165450128012,0.3234758047725942,0.06879314271995367
3.051630045,0.013617282048904706,0.1805116609226888,3.089262777886177,1.7751846033054814,0.3117694305455296,0.11366099303848136
3.091624223,-0.02526505675110513,0.3305318881533161,3.113664086100127,1.8372840116250986,0.30631468587725696,0.15303394347589488
3.131704785,-0.06442658894386989,0.44843706458407506,3.1072897116221285,1.9027800280613554,0.27535446210281117,0.17892185595516608
3.171752058,-0.11114825516037256,0.5638707619236903,3.1132609385504275,1.978348921039371,0.2598198138926147,0.1995039291184587
3.211626083,-0.15137347135127383,0.6476263803252519,3.1064764848160795,2.0402640519697357,0.2579247636778034,0.21033209567623654
3.251627003,-0.21196366441814268,0.7552563420082706,3.0829544496732786,2.1269250695307518,0.25603161681900966,0.217530921692248
3.29162112,-0.28068184581728717,0.8571062340381891,3.0648124468183586,2.220235123101666,0.24941309132409095,0.22312895522345394
3.331639549,-0.3779441881292103,0.973731677006565,3.03679284004458,2.3416638478406226,0.2615169435060152,0.23278382601695893
3.371653792,-0.4422172104168286,1.0377855996221712,3.0173214608406864,2.4182618289240203,0.2861692390628978,0.23430739772990802
3.411631052,-0.533459792402078,1.115128981850412,2.984965348503513,2.5224483362248735,0.2780451763619893,0.22609102859988525
3.451703706,-0.6316095659682319,1.1824086334082369,2.956645544102318,2.6257422035261566,0.28120518243386444,0.21867428845606432
3.49162142,-0.7614562438768468,1.2518104175418319,2.9218815562085587,2.7503321296064795,0.30090485525951755,0.225464116807143
3.531619036,-0.842701300546571,1.284885619179298,2.916908398500872,2.8215425942441765,0.333424245687568,0.22273162139828315
3.571622234,-0.9820360390951298,1.3263552217465913,2.899184158551662,2.9348305131183237,0.31844164034189115,0.21156357021393613
3.611625247,-1.0677171218107109,1.3430044489968898,2.91474878143657,2.9971777538515005,0.3266975782384143,0.20228431980989373
3.651639255,-1.1833524818641412,1.3562663735763887,2.917186485975881,3.078198079953637,0.343520545689992,0.21019927949987677
3.691621398,-1.3295825147253235,1.3583253261290102,2.9293141975179227,-3.105295401672592,0.3688527918374871,0.20408165385380025
3.731617972,-1.417872058067174,1.3520377846323182,2.950562608977391,-3.043937855115244,0.3333561822381314,0.2049423356131913
3.771627924,-1.564509086446327,1.329521119392868,2.97195419400311,-2.9379840739115863,0.33312456316358124,0.2109167540041292
3.811633646,-1.651302270552261,1.3084302842440505,3.0029181392741573,-2.869397922411654,0.3377164866423936,0.21090196508781583
3.851620688,-1.7647568540942968,1.2715007827361382,2.988945414891467,-2.774039159602167,0.32950112575264257,0.20780341841639205
3.891641727,-1.9008745827861149,1.2111465138140158,2.9568562953450206,-2.653295496212463,0.30539632230344455,0.20649321643768712
3.931624502,-1.9788956484547753,1.1680837724185622,2.9680237211822766,-2.580965102869264,0.29833472865604416,0.21747427270018316
3.971627258,-2.077006462642708,1.1021946809666106,2.9641888950725295,-2.4857612047261397,0.31616344839832683,0.21966231341802897
4.011624216,-2.1683138149968135,1.0282423530423639,2.9372613279186535,-2.394080914132148,0.31055915499994013,0.2039847562412296
4.05163375,-2.252064429581767,0.9462974057711424,2.9174309741041027,-2.3037030612977576,0.3021977458064395,0.21145561478360797
4.091624252,-2.327444846658997,0.8578241844066273,2.883170139991396,-2.213830784051954,0.3065339395021232,0.21191004286534942
4.131617906,-2.394773112868483,0.7626138761145952,2.9288077195150457,-2.1226310504768033,0.3305724676257699,0.21333484667514604
4.171628497,-2.4523896857036966,0.6618686691610183,2.884964980111925,-2.023840324429708,0.31349071401416606,0.21290080611247117
4.211620777,-2.5002451945114843,0.5560945118833561,2.9010142599783455,-1.932421701741838,0.32396307454283535,0.21308353641478872
4.251620871,-2.537955249793033,0.4463936948009654,2.9029729832422437,-1.8406677570936776,0.3163294625116496,0.21281145575518778
4.291625948,-2.5652112367239086,0.33404393840176577,2.8901722564552195,-1.7544062433636056,0.3207787869875554,0.20831565653370654
4.331700766,-2.5829237770685713,0.21967360048964493,2.8944862789194823,-1.671305697657614,0.30803871462039517,0.20866919217985325
4.371638269,-2.590416321515893,0.10439507511491547,2.897939799738278,-1.5880748124372701,0.31054200583740416,0.20916192727592203
4.411621245,-2.587775874592169,-0.011255104625105301,2.9039998658514143,-1.499575659918633,0.32878440398444364,0.211317926092237
4.451626364,-2.574859721798261,-0.12601418495059688,2.895852577377236,-1.4105524556177498,0.3031798749648648,0.21160009763051163
4.491627297,-2.5521902476985745,-0.23926321094360115,2.8775700180205708,-1.3228548565068088,0.29926565675226,0.2157274147861679
4.531621424,-2.5198845528823846,-0.35006743891688036,2.880592731935507,-1.2347702205328583,0.30537805834887677,0.21810430041712486
4.571625697,-2.465700370674905,-0.48368454248294146,2.8968650609024142,-1.1212667001389434,0.3275442193336661,0.21981011523276675
4.611623923,-2.426305293082823,-0.5605953508209517,2.881638945191198,-1.05240093562458,0.2976386367724336,0.2172207944573919
4.651624041,-2.3659491688873397,-0.6580531936320981,2.868749455686859,-0.9562945448758933,0.2980781651341967,0.22089856402680877
4.691637096,-2.2970604345845738,-0.749598057027193,2.862070878995603,-0.8632463521116055,0.3019491943213484,0.21622375017984571
4.731616779,-2.2203301325885048,-0.8338576090796114,2.843901270336699,-0.7710943438894374,0.29505270177470166,0.2167251891980564
4.771644705,-2.1363854773217565,-0.9104295657418877,2.8374193648249695,-0.6804986895864075,0.29292153504119833,0.21821822752246015
4.811622827,-2.0458662589582297,-0.9787904644770653,2.8376730654986626,-0.5902566100898639,0.30073574547223125,0.22104427790107134
4.851700822,-1.9494754131637444,-1.0382280646301039,2.817366074267406,-0.4977756197034116,0.3124299008591509,0.2173151771994933
4.891638116,-1.8478875990080368,-1.0887592723641255,2.827437575812466,-0.40841113817510055,0.3022342846769062,0.2195785969379576
4.931621669,-1.7422152591270714,-1.1297100878197865,2.834015237686204,-0.31862999839798306,0.30088955541988693,0.22248343420589795
4.971631141,-1.6332876219649535,-1.1610340288381777,2.830933503663876,-0.22596045057852734,0.3183779795532371,0.22463605827338812
5.011620202,-1.5219365268024525,-1.1822151420211007,2.840408464633531,-0.1321792463809403,0.3367379182049434,0.22714161115297596
5.051623107,-1.4095115386949348,-1.1929079852136784,2.8263025653482026,-0.034366319191610574,0.3004079711955437,0.22474009400704545
5.091626481,-1.2683042207316473,-1.1909061781179837,2.8268836306146095,0.0841180439669459,0.30566001772634893,0.2265064857808501
5.13164774,-1.184247660508686,-1.1819553562481036,2.817845565863695,0.15467980618761973,0.3178544805502286,0.22755513916166062
5.171639806,-1.0464039119464852,-1.1535521274197102,2.801244899822334,0.27283233565357223,0.30833836756756916,0.21985349481531882
5.211619873,-0.9656436576236707,-1.1291823474302596,2.8166082565538026,0.34079631715927605,0.30124525941553726,0.2139497799790374
5.251623135,-0.8610351128651671,-1.0879072546228783,2.8117484051422914,0.4285683278324227,0.3165754623921205,0.22347592321121706
5.291625565,-0.7362174756108938,-1.023596237635362,2.817888496422205,0.5386312867957825,0.32247475548802307,0.2132060041533233
5.331626692,-0.6651129127403377,-0.9780772818528715,2.811325079565673,0.604011615062471,0.31256635980803515,0.22196051286216098
5.371625934,-0.5535105600223507,-0.8923539667814804,2.8153909418471335,0.7130757429626634,0.31686585373011245,0.22483167723009273
5.411712,-0.49133423837805235,-0.8350176033172141,2.8241909036740154,0.7797431618118028,0.32481009048270676,0.22040218016254934
5.451631452,-0.41469453234193043,-0.7515993521422123,2.8409301441417343,0.8751029305282974,0.3551770162350343,0.22942778662501132
5.491627394,-0.3297708465940746,-0.6379082811079305,2.8379608761909534,0.9958005809889201,0.31536226049746646,0.21788097462283654
5.531625214,-0.2852888587990475,-0.5654213471683236,2.8305553162856096,1.0679738142117263,0.3214904254857393,0.22897846047483705
5.571623901,-0.23450779838216362,-0.46443858327833853,2.8164848963730367,1.1608459614185944,0.3332076652487459,0.23022121886695
5.611624316,-0.19320100873437981,-0.3587866137112332,2.830755821648424,1.2508783115938622,0.3253847048534142,0.15807913913189636
5.651625427,-0.1592165302084933,-0.25008367410769955,2.8613534301972243,1.316373405637223,0.3365125464025659,0.10357988287245079
5.691628408,-0.12968980824247522,-0.13929735509355767,2.8866657773009052,1.3368846417792424,0.3547488890353686,0.04177896344028023
5.7317314370000005,-0.10148651587539308,-0.026484673943139265,2.9426592220500183,1.3324499081002683,0.3725225695303178,-0.019208966872006437
5.771629922,-0.0635757265423874,0.1162245980177568,2.9725707672568444,1.304463505207679,0.3388938589821849,-0.06425959499471115
5.811625257,-0.03775929055551802,0.20173905399720254,2.9943277537861985,1.2717927992629894,0.33093200085533414,-0.10385587995790488
5.851619239,0.0013151132716191453,0.31480551272593005,2.9991135568357934,1.217328110252958,0.3238643184483213,-0.1351265196410981
5.891636191,0.047574365492830346,0.425761486837578,3.009406418738765,1.153291704836009,0.30648476821297915,-0.1533442310926775
5.931617483,0.11586699082356568,0.5593612372948182,3.011882779810956,1.059635622110918,0.2967831138203758,-0.17315674217044708
5.971628577,0.16264335490596682,0.6361105387440406,2.999250655969633,0.9983502693919911,0.2994378087219909,-0.18624526394326876
6.011619388,0.2318352766146362,0.7339222479107023,3.008536818450615,0.9138137705054274,0.31096085387624123,-0.19581716895008683
6.051631017,0.3087170131263707,0.8253445947137321,2.979494203034793,0.8299217962836839,0.29119445668046673,-0.19301286387056144
6.091628411,0.3928204819493917,0.9094586148062839,2.9662540265105335,0.7397869535074144,0.2981260912412006,-0.20267564821956063
6.131617436,0.4834008721878625,0.9858454749480126,2.966740871941609,0.6485032168901941,0.30366461182985055,-0.20485752627133536
6.171623862,0.5803521018008252,1.0533757979962948,2.9543568358785888,0.5558279812444159,0.3129158519814576,-0.204139051286084
6.211625391,0.7091639007988678,1.1251552106548204,2.9254589616146895,0.43861234085252465,0.3097304983776615,-0.20448716746807669
6.251643402,0.789945937939952,1.1607626304642917,2.954443856732055,0.36778390884810486,0.3120981817560198,-0.20472323233324846
