time (sec),x position (m),y position (m),forward velocity (m/s),"heading angle (rad), from x-axis, positive is CCW",throttle (unitless; -1 to 1),steering angle (unitless; -1 to 1)
0.122753708,2.963520927869078,0.03246537983522396,0.0046334838638687195,-1.511971675070558,0.75,-0.6689579173414765
0.22278266400000002,2.959818497368785,0.004767235255991751,0.03528192734361836,-1.5373699703891628,0.75,-0.1002421553638242
0.322746083,2.980194357504022,0.04408894417677529,0.18120889777070356,-1.5071393818832728,0.75,-0.14543500455068212
0.422790618,2.9816557753168356,-0.020666885591145136,0.9859689476438798,-1.5818765188746697,0.75,-0.21931266516373651
0.5227471890000001,2.9643155062871895,-0.19661067082632092,1.7258998324447765,-1.8114319916332238,0.75,-0.2761513955331446
0.622831844,2.8354245986542947,-0.4033858267371321,2.362444475819516,-2.0003931897614,0.75,-0.2809575744334638
0.7227459770000001,2.7443322217872566,-0.6130725045117077,2.847011372670064,-2.286831901873381,0.749057740347227,-0.26868066052994183
0.8227470240000001,2.504703327382858,-0.8103982592469546,3.0125966092667302,-2.537528956689219,0.5984416951673716,-0.2417906188732923
0.9227430480000001,2.24605797016085,-0.9080656989359602,3.074938983448557,-2.7775066926645056,0.5160950226435082,-0.21660242066915247
1.022747874,1.9350026090262542,-1.0221646882612592,3.1477268756150285,-2.995359067570302,0.4674550333989574,-0.20468842012595653
1.122793033,1.641251546965962,-1.0587305802922424,3.11543684101068,-3.185826222452978,0.40240813970286354,-0.20619452714280478
1.222743381,1.3185608923894283,-1.0163007696218442,3.0557514109809656,-3.4732367071296193,0.36950555482443664,-0.20288609864647225
1.3227514390000001,1.0352221363972862,-0.9094154023919017,2.982274719352801,-3.713019967821731,0.35604475798170443,-0.2010428768833822
1.422765134,0.8090913726466001,-0.747047503269502,2.9607381638420476,-3.9032363540996924,0.35382929711561956,-0.20897166284854435
1.522753991,0.6139034505809431,-0.4934526709207651,2.9678297535692755,-4.139271505981196,0.46045927617993493,-0.1611354285448506
1.6227418720000002,0.47198614763112495,-0.29226390661378115,3.1438405281586412,-4.278968061312998,0.5254642257036416,-0.08045374802255902
1.722751266,0.3208911651237255,0.07074821104030748,3.3255517930542573,-4.347894934096081,0.5463139360763564,0.01962009536316057
1.822891064,0.16647971259895297,0.36890566064319885,3.4642026594631963,-4.302159284132477,0.4559745860268676,0.08291068546916985
1.922740981,-0.0002612076991493871,0.632065310957501,3.568770863323565,-4.201455117503708,0.38030853357170114,0.12925037113395157
2.022751348,-0.21832669853243464,0.9594445802997525,3.5495930204375057,-3.9987769521959526,0.34119586419050757,0.1648958308216471
2.122752986,-0.4624630038483663,1.2360028232183082,3.5331175992578743,-3.815367662144677,0.29747551598536354,0.18713470095060084
2.222750841,-0.7367398605455288,1.399858984611764,3.389506520839738,-3.578380447595419,0.3078862654544811,0.19361598593026033
2.322753711,-1.0610169570346741,1.52236792344069,3.3405949520161755,-3.340091783864294,0.3677096109987004,0.19560824730182155
2.422754057,-1.3617943066257432,1.5756542549718184,3.2984104154340352,-3.1223187896189764,0.3983675220101951,0.19620997641413468
2.522748267,-1.671355415697556,1.56655040833275,3.273423250332197,-2.931841400056821,0.41560227124107246,0.19834486212571661
2.622745809,-1.98638010949371,1.5068504011278039,3.3423582572483195,-2.7232547530474416,0.4530768702854878,0.2045086945494923
2.722751959,-2.324473957377891,1.3322201821409205,3.3226082534265236,-2.4966628212231377,0.43890059008653215,0.20034437890219786
2.822747238,-2.5365319366716967,1.0920043028801993,3.327354262569137,-2.2929391975999027,0.43335939940329404,0.20389450437892537
2.9227456810000003,-2.734395006641092,0.7937049213557865,3.3691173602428837,-2.0609122931331068,0.44731579679419575,0.2102071260894802
3.022747345,-2.875165389510167,0.5016123061337183,3.316219090903737,-1.8442095133002812,0.3859545677015872,0.20476255737397922
3.122745715,-2.987704386410193,0.19537992500651574,3.307129473757608,-1.5893226207490996,0.3474363276541787,0.2047896474824699
3.222746789,-2.957148808427436,-0.09567245714067056,3.222274614601799,-1.4424026611848928,0.34213199788729526,0.20470019634251363
3.322762674,-2.9220283974988597,-0.43572552748067506,3.141256793626317,-1.1697332621234995,0.3125551250230177,0.20795008152874664
3.422745361,-2.753850408085937,-0.7038670106207219,3.122567969233635,-0.9476708868527506,0.3087759698227743,0.21880053949486722
3.522744997,-2.588735892155779,-0.9437001319876616,3.0163283682534265,-0.7423087930525806,0.3375617008998835,0.21611625242993648
3.622753844,-2.3178902931057617,-1.124439040105839,3.0290635060163416,-0.5285402355782626,0.3634680155140539,0.23022050942365466
3.722784711,-2.038457250492159,-1.2627845967705358,3.0451121229161657,-0.3064333281352674,0.405813504781011,0.2402526723965196
3.822752164,-1.7203755894396378,-1.3364676180151698,3.060744418384407,-0.07691717857787779,0.4386910801388334,0.23685827414848704
3.922749528,-1.4405803865320512,-1.3009534513544194,3.1159191057771425,0.18713192868617964,0.4656011288444462,0.2385898837762856
4.022748591,-1.147395729250427,-1.2190383459445158,3.1598069750184137,0.43018183012307726,0.45906989049627167,0.23519319494650487
4.122749585,-0.851657061803195,-1.0857854306670258,3.1881208249375557,0.6607152849960002,0.45753619959013786,0.22662727513952344
4.222743347,-0.6647434361687119,-0.8621197333523302,3.2055653630155843,0.826800939486069,0.4730852800702364,0.21999552370874667
4.322748074,-0.44191084242262,-0.5950349117317155,3.34233586135444,1.043707970918087,0.5358987281266008,0.1279582183595085
4.422748107,-0.26795322864071836,-0.31436366678507033,3.4916726298328937,1.0954249411852166,0.5482357426859024,0.02801927873358576
4.522749835,-0.11720582304767184,0.043512279018304394,3.6232191046043027,1.0945408103906793,0.5315290234574661,-0.04473289234355962
4.6227482470000005,0.08658489637543801,0.3823891679230373,3.6916614846269282,0.9920820201664442,0.4542415887816264,-0.0954571912344797
4.722740312,0.28975591507452203,0.694800904378943,3.711537974067365,0.8323605838221012,0.3856763067332853,-0.11965934074157401
4.822791695,0.5718512722872133,0.9363148728635337,3.626024284002216,0.6277338047014379,0.3565835623310867,-0.12789219557737289
4.922745437,0.8693079248335985,1.1354761832907536,3.543979234533082,0.410746006935062,0.3506125705970202,-0.13263200478255543
5.022746334,1.1986299127750308,1.2544478350253332,3.402841339029904,0.2799859983912746,0.3270497964257526,-0.13290959388544643
5.122741498,1.5224678896488357,1.3181910390325695,3.3376328262717196,0.053881285563666906,0.3057145031423094,-0.14383844684885747
5.2227479070000005,1.8666549031136892,1.4008152136757495,3.234582146982094,-0.10975906598445934,0.29959473881677373,-0.15352391876989394
5.322769981,2.143340892358362,1.2614514428301555,3.142485267865375,-0.3294097526786128,0.29073453119702936,-0.16351439674981036
5.422744664,2.4256791008573386,1.172023171039059,3.0416784613053687,-0.5384433911286659,0.31586563133391976,-0.17549390237408788
5.522742052,2.611754103651958,0.9321920681656284,2.9621856365918777,-0.789579829222139,0.3417911723121416,-0.1958603106659612
5.622742344,2.8244457042289306,0.7620898216548704,2.958776454148178,-1.033152522172116,0.38355227918368023,-0.20755698348123774
5.722742544,2.9622242425345027,0.48222151741370217,2.937635294428689,-1.245879599792177,0.44750160867702726,-0.21710167316039336
5.822751677,3.0492646174408837,0.2255446849470356,2.9647810253955744,-1.5039432739467318,0.48525678645430925,-0.21578193533734522
5.922744364,3.0136143794555617,-0.10400442183076271,3.012604307229467,-1.7536805621972196,0.5010287414213462,-0.20925013292857167
6.022743519,2.9625813119768103,-0.4271005677184371,3.1196101936235388,-1.9733847339813801,0.5121137863020463,-0.2064525330504354
6.122745116,2.793033192836616,-0.6466448598190031,3.0979484586083705,-2.210712173770675,0.5260807400234203,-0.20443487228229634
6.222801812,2.6179856239530697,-0.9105421036161302,3.0901176016598955,-2.41271040856929,0.4983398137323313,-0.19467729929020403
6.322746164,2.302461442575912,-1.0829988114317834,3.161771117612537,-2.6489272214969732,0.5013012133581674,-0.18725622209899076
6.422750445,2.054527906116746,-1.1957307120292395,3.227144961285459,-2.859209106627198,0.48064610814073383,-0.1853489323290606
6.522742326,1.7305548542781466,-1.2883353933142774,3.207579342872761,-3.0731736889701624,0.4178619893728316,-0.18398265830928345
6.622744009,1.45735869822376,-1.3230926325045913,3.1614636720587677,-3.2951699746111562,0.4026113163742598,-0.175243283138724
6.722751004,1.127025001335472,-1.2229867966162162,3.09660268285268,-3.515904576995177,0.36994402467945653,-0.1854506433611521
6.822748284,0.8526815705234143,-1.0961102139366337,3.0168877658230584,-3.733640375591973,0.3486981852783188,-0.19358531753688787
6.922742795,0.6297898975881377,-0.9455052900728115,2.974482697982221,-3.975017248437022,0.3885569254353527,-0.18911017219324872
7.022744459,0.4325332405210192,-0.7078837251071173,2.9958433902683255,-4.1905200263925035,0.4602197954184173,-0.15723777650554097
7.122743281,0.33618919338684294,-0.39371141648187064,3.160208824966143,-4.337484973349942,0.525896439183784,-0.06708575699725718
7.222747565,0.1928409790325641,-0.08604494555419888,3.35834574029902,-4.364192047916986,0.5227516133079344,0.027103180719953966
7.322742334,0.07317671038111637,0.24139335760873065,3.502614818248532,-4.319220891653718,0.4657845557205117,0.09571583550825846
7.422750038,-0.10677189633005219,0.5289250605948679,3.5492826787510046,-4.2807596312879985,0.36462543939018555,0.13559985982154596
7.52274576,-0.30923963770992413,0.853839343800453,3.521512223021871,-4.072619268329969,0.3056401481890672,0.17524567824117152
7.62275131,-0.5076828028078634,1.135628689862677,3.444204382687619,-3.864597632956019,0.2820043677004518,0.19757333897790744
7.72275189,-0.817238704635214,1.3010312003171207,3.3680066520492034,-3.590310479998997,0.28555413646710265,0.20224793163080057
7.822746675,-1.0781068846991566,1.458482699416356,3.2556777453637555,-3.358662338495871,0.3400013285979067,0.19989600622633377
7.922746852,-1.410688277827794,1.4907534181303153,3.2022298768707604,-3.1403760199775435,0.4147673525764021,0.1960607593394646
8.022743724,-1.7288352298890657,1.477356689520114,3.231037500969954,-2.985867852884098,0.43950485401223205,0.2030346790889231
8.122752081,-2.0515366306496365,1.4093037431598192,3.1315565892823685,-2.7430179902719134,0.14302455140711498,0.22699453864645816
8.222750943,-2.3106080853303292,1.2329773046519907,2.9127959405401405,-2.4936245835937587,0.20488605276515906,0.26517273813544867
8.322747555,-2.4890118697503167,1.0113437290419924,2.9900620273729004,-2.2210049525070885,0.5229022682906463,0.20584667941677207
8.422748336,-2.6553260551434703,0.7958372357652709,3.143287696623322,-2.06253441938359,0.5400890216549763,0.1805802953736928
8.522740202,-2.7595359363634153,0.4871335004623719,3.2728316588885797,-1.8546373877041067,0.46621482430485167,0.18857932473218025
8.622742555,-2.8279974009970386,0.1559810351465521,3.29083202149533,-1.6574812003867612,0.38906000330940155,0.19811943816211236
8.722743663,-2.8241363434494535,-0.13432186279600855,3.2275383872517094,-1.4203486119093545,0.3199437691117665,0.20581469791354004
8.822747694,-2.767155546688381,-0.45132994951482847,3.147890520870165,-1.1640630451700973,0.2914990933481364,0.20528385397198617
8.922741021,-2.6063962807163086,-0.768507647329047,3.0697675881047064,-0.90841630633869,0.2922297837132196,0.20598051641093773
9.022757839,-2.43936485117751,-0.9604316077491346,2.991181184992208,-0.7209129759608093,0.30812357520393246,0.21066880443745403
9.122746813,-2.171975493508912,-1.1450692614515214,2.948921080128302,-0.4901938014287516,0.36200755852195227,0.22874053324568971
9.222793156,-1.8884063955656454,-1.2755797156834687,3.0063698844954603,-0.2544656317992007,0.4123573860831307,0.2371432669093661
9.322746663,-1.6371999110273148,-1.3053430073396097,3.0066593775915558,-0.03405531615767048,0.43678356552655423,0.22843486412889222
9.422745534,-1.3157832529544669,-1.2912596881361045,3.10456063604006,0.23821581250558505,0.4541836198979699,0.23291468559851122
9.522745383,-1.0137828632944499,-1.191286954432907,3.1083493435841922,0.4447961557793183,0.4731066712190124,0.2275429180976111
9.622797899,-0.7630574803249861,-1.0187095850604435,3.16116519046963,0.6877462297261857,0.46139905670616377,0.2212419557919701
9.722747169,-0.505212098979778,-0.8474260313331756,3.2320980984570964,0.9521715620270069,0.49294107826731887,0.19531580983928148
9.822741557,-0.3403748579828495,-0.5949429404678842,3.3183888436166096,1.040994861924197,0.5369865876213188,0.13044943230001743
9.922752505,-0.1495773021268058,-0.2622059397114432,3.4722889339402587,1.1506021365251327,0.541508856936422,0.026795197655644514
10.022751926,-0.012282175024471747,0.07293738694969501,3.6559296092338545,1.1227948722661223,0.5127002512452831,-0.0449188788878995
10.122749696,0.19055816229091388,0.39637340262832466,3.7281860391908213,1.0120404800591718,0.46229274842695117,-0.10076073109136104
10.222751638,0.38185380978877326,0.7222909077502465,3.727423266425199,0.8549701787077153,0.380032634102528,-0.1257234135841299
10.322792065,0.6258809100496755,0.9912155762587544,3.567282168778871,0.6730816066412101,0.3434667003544135,-0.13175703886649937
10.422786363,0.9020321528775785,1.1821487956422156,3.5090399145052125,0.49931042461178016,0.344863658077855,-0.13732046869726813
10.522746128,1.2262228872344647,1.2864186706362062,3.420747757556189,0.22596022568196686,0.3151282038001627,-0.13678239719289811
10.622755142,1.559750817757605,1.3742979513755873,3.3408741167242426,0.05685885815028126,0.3123305209987446,-0.14103322325483314
10.722752776,1.8964579168020492,1.4129623987881865,3.152644234012885,-0.1516837853510413,0.3082054399612623,-0.15726621528203558
10.822767295,2.184425173594346,1.3472757743674662,3.0872230591997547,-0.33864951428724965,0.28601687933989894,-0.1725684122757299
10.92275248,2.4692036276280214,1.1700455901116615,3.0193097382746057,-0.5520751724325428,0.3160460541809959,-0.18247137864226134
11.022822587,2.7048820403640574,1.0144933178794633,2.93715980839372,-0.7844570445427804,0.35858707125773404,-0.1973482905582216
11.122817908,2.9002311431487966,0.7503310804045833,2.9279574544280567,-0.9992041659568097,0.402243160231399,-0.2092739393699117
11.222746251,2.9723077553907404,0.5246273144690228,2.908023742657807,-1.2264589831710382,0.4512448685780001,-0.21303601774767575
11.322745485,3.0293164134820643,0.27397612353014583,2.968454140486377,-1.5010037214967435,0.5085559039808651,-0.21806099019209424
11.422754009,3.084009268305973,-0.05346679014866034,3.0320793536183976,-1.7067370236705384,0.5096725981755973,-0.2133186164912059
11.522747269,2.9966237789061516,-0.3680490970590141,3.0847535340088172,-1.91968493518144,0.5143423626456292,-0.210499524288274
11.622753031,2.8974773186872382,-0.6321225320493868,3.0980095881062497,-2.1823593932126535,0.5278316043093049,-0.20604141613200247
11.72274929,2.6684271430636186,-0.8645023785743922,3.126221668067548,-2.44947168015519,0.5055711829623546,-0.19980429671493397
11.822746205,2.423324729363554,-1.0441445052531226,3.1616141321048756,-2.6554112618546015,0.49597316421419124,-0.1837816694183031
11.922754643,2.1463201725112078,-1.2089404776869488,3.174843098794935,-2.8668883132610667,0.49935645942028095,-0.18366233871294058
12.022812865,1.8168310850521738,-1.2581641017026304,3.170881949952279,-3.0138631517887164,0.43825485864021235,-0.18535073101341273
12.122749702,1.5089341558956555,-1.26716359687278,3.1573924718264155,-3.2647471641576793,0.38016907562319135,-0.19050976981312287
12.222745843,1.1768987707405938,-1.1971170873302988,3.0899023808231005,-3.4986914422889166,0.3645682987510974,-0.185528802658734
12.322752383,0.90331619625092,-1.0566014265451693,3.022556586742158,-3.7173918408083595,0.35864799461157204,-0.1911371449667444
12.422792521,0.6938914115973088,-0.8719575335722222,2.9616636642754597,-4.035989438668582,0.35579267722075575,-0.19702317342802317
12.522746381,0.4904663797587245,-0.6010895478132661,2.937141308273953,-4.240650060254911,0.43343469319535166,-0.1798591173456761
12.622746905,0.33129646197966406,-0.3733120436752413,3.1355101687890667,-4.372883135465305,0.558830170552766,-0.058380140882617226
12.72274442,0.28379125055791177,-0.060878812686655084,3.3797285804947195,-4.363071792482226,0.5377259545134498,0.034458184916193825
12.822751863,0.1450609518022388,0.2542636477710206,3.5111907628646217,-4.328121136960043,0.45642162219857424,0.0903781003827293
12.922760563,-0.05023392090010821,0.5312978087521225,3.5326617110036245,-4.228523872805238,0.3766110157651419,0.13721741833700957
13.022753945,-0.2548020515257683,0.8601842241415745,3.519481257813958,-4.0872060738459,0.3160811070780277,0.16992537418829964
13.12274876,-0.4522005815583659,1.1237356595337642,3.5131570778874655,-3.865689059900839,0.28590173101825456,0.2034685066171029
13.222748855,-0.7184676735062283,1.342388578537587,3.3979151587337664,-3.6348995979454726,0.3001938337883298,0.21041958517094345
13.322744382,-1.0637525434266095,1.476908896964162,3.260271347241575,-3.3767765820409426,0.3330565450424275,0.20349785163685175
13.422751323,-1.3145614806610681,1.5242792765532325,3.231875791248933,-3.1500840036000084,0.3949136213727561,0.20064641069594422
13.522747577,-1.641640872490142,1.5284668885392798,3.248849939511625,-2.9261086574994803,0.4568971396931817,0.19909909392202121
13.622751798,-1.9926702260042233,1.4374363872953124,3.2888362074574813,-2.757245369327513,0.45580586363616094,0.2020410951027346
13.72281058,-2.280582898432993,1.2811624399115293,3.2726361813115985,-2.5233453118246008,0.44604892422879283,0.20305839553313915
13.822746588,-2.5538329461543174,1.0702767786840286,3.325827472715778,-2.2934113869689514,0.44514950248786955,0.2112069901487004
13.922750979,-2.717147639257667,0.7959983981314844,3.3524141965568663,-2.0654336721328224,0.4141336145596398,0.2056436211117197
14.022749667,-2.839394390261003,0.5054841805734148,3.328245338380803,-1.846665046079872,0.384329717663224,0.2095101688881836
14.122750263,-2.9140515450601097,0.16877611052855426,3.2404291899354165,-1.6089165691418807,0.3677224076526359,0.2008426818316542
14.222748855,-2.949970153473178,-0.11114328241394147,3.226304087361279,-1.3986731222114386,0.3392072732697392,0.19832573489363284
14.322745107,-2.8476277734805686,-0.47885357162108283,3.1518529160583886,-1.1560082604654043,0.32495231932753477,0.20378045489665536
14.422745506,-2.734797874342538,-0.7232756757985648,3.0828466492230437,-0.9684393038803745,0.30663331035557645,0.21253893403630483
14.522752901,-2.530990050309164,-0.9451658637929702,2.974206339743624,-0.7399451276789724,0.32532254627218593,0.22325276844126735
14.622750249,-2.2945972243908526,-1.1466188070756511,2.9666219998015504,-0.48650541919694495,0.36788855270927195,0.23120943802039512
14.722743628,-2.0323174326324605,-1.2557729705472984,3.0159767581254258,-0.27113547318783626,0.4306867695015535,0.23473469228737914
14.822755847,-1.7110215832898692,-1.3169514907930755,3.0829288355862294,-0.04485985217426252,0.4489095726589212,0.23823916546582324
14.922750464,-1.4159769880145217,-1.268344409222907,3.1118529722658645,0.1638261927598799,0.46146068333038454,0.23677931758927312
15.022749146,-1.1224882101698042,-1.2195446439793918,3.144530914511821,0.4624012758918161,0.46719346850686105,0.22638654806566863
15.122744991,-0.8612970231019278,-1.0656935152976628,3.199274399158524,0.6531790141490765,0.47469173757735705,0.21907792869684103
15.222744539,-0.5767634446944003,-0.8459007553175246,3.2648729691525746,0.8902047033821595,0.4836128785325609,0.1937994712819577
15.322747308,-0.41261406338230977,-0.6033338695361427,3.3617088097183836,1.043712047351837,0.5008599900165928,0.15279474243299526
15.422751819,-0.196551880922256,-0.2621525109071047,3.493516756004037,1.1761143178106228,0.5488006003057148,0.030656876096438253
