time (sec),x position (m),y position (m),forward velocity (m/s),"heading angle (rad), from x-axis, positive is CCW",throttle (unitless; -1 to 1),steering angle (unitless; -1 to 1)
0.13258012500000002,1.7786069231183743,-1.8432280827652283,0.08703840886396567,-2.755654088505928,0.75,-0.49233953174318285
0.232566343,1.7597324341045035,-1.769489238776904,0.026314089830414465,-2.9173118568932064,0.75,-0.14405569742550264
0.332588838,1.6958983545521595,-1.7225240236274386,-0.030006654558725795,-2.861446510810661,0.75,-0.18456121507165724
0.43256667000000004,1.7627367872116713,-1.9729678031573274,0.0005067875454596448,-2.6572440406620714,0.75,-0.2461101298909188
0.5325717170000001,1.6954824639438764,-1.7193093691832537,0.4514531085684343,-2.87448525305324,0.75,-0.3181290253281248
0.632564832,1.6055095327096829,-1.7414072557713491,1.1398778872058764,-3.0962943909988603,0.75,-0.3742940155888558
0.73256931,1.5142327800703488,-1.8170090559339431,2.193297389478385,-3.2772529822471292,0.75,-0.3998858212975169
0.8325632220000001,1.240783475011249,-1.6846991563712952,2.526810836268043,-3.7250731098013703,0.75,-0.348270840927912
0.93257805,1.0480808259819518,-1.4947605684942125,3.062190783055945,-3.94649801033192,0.7388000974416588,-0.2610884647567276
1.032577387,0.671594759613526,-1.2046654272110207,3.2727523548200868,-3.8730371980059393,0.6868189236204174,-0.14757017447199616
1.132569007,0.5145318980197462,-1.11634073769878,3.611266557657915,-3.988999718439393,0.6490884968476233,-0.03324979856636909
1.232563614,0.23491144346745813,-0.6433972569851708,4.004823807143219,-4.035454344466082,0.5531719263711932,0.03537544562977435
1.332624847,0.05584112128474548,-0.34267562169971605,3.991141606024478,-4.174525133611361,0.44765915973624476,0.07569535810888157
1.432668526,-0.1619285502378784,-0.06772553178384436,4.105911587870309,-3.999032046761921,0.3412702203147817,0.11217965473798232
1.532563965,-0.5318452470499513,0.06341384845221404,4.133821015645026,-3.6286445750560943,0.24765425560833706,0.13531952731657548
1.632644055,-0.8027743472304514,0.3715829486882462,3.8249621711943242,-3.5038690225704405,0.19510627158705596,0.13392353765243523
1.732587142,-1.1712113476935047,0.40171753814309774,3.6216198034895353,-3.4404659882970616,0.20183703604248301,0.1510786606649854
1.83256451,-1.4083704020734797,0.5373175770665659,3.3463335839253734,-3.044153694347164,0.20021189621520796,0.1307114832283564
1.93256923,-1.758940092196539,0.48019502166308947,3.187898282926141,-2.863207043193893,0.2235060295881113,0.13865765079536066
2.032589203,-2.180408041909275,0.3677520413640239,2.9058265870788493,-2.6270820595660935,0.2395409318074805,0.16069407783383577
2.13256888,-2.4505029494677224,0.27676399982287947,2.995336746248013,-2.6479449371980444,0.23644866368696418,0.17498334048469455
2.2325848,-2.7158731079468095,0.005744316453371676,3.1883622866887995,-2.2853992236851477,0.26892837871901015,0.19026835905537134
2.332657845,-2.702317822846491,-0.32116549722032073,2.7994434006440345,-1.8633443569366763,0.28924939860526727,0.21100598878216112
2.432586299,-3.035719014113459,-0.4925963723319901,2.8384806355047396,-1.5411350049319603,0.3017670510650059,0.20779882369907057
2.532575049,-2.8889275639641774,-0.9515953517717155,2.696379326327068,-1.4082713888278537,0.351542729249975,0.20948191870615276
2.6325849960000003,-2.887215241479966,-1.0513261942473735,2.9480851186179318,-1.1815326277071323,0.3939050583873003,0.21586058077629122
2.732581188,-2.7497098539463254,-1.4075108389583908,2.7717728589572976,-0.932702180044836,0.4140741356880668,0.22939198983664957
2.832564217,-2.511001266767157,-1.4800205820601127,2.9403412561560516,-0.659362211455601,0.44431945944936807,0.23418996321125363
2.932615898,-2.365344081472498,-1.8324667428791892,3.036653872924705,-0.49607245001259237,0.49196177211119113,0.22918489585974236
3.032609494,-1.9843806196892666,-2.034621166867362,3.066477203880772,-0.16616627282888843,0.4947042857372804,0.22401324998880323
3.132569775,-1.8766895439566447,-1.9463055309056316,3.165644607839077,-0.05929789539843781,0.4950793746293232,0.2174562499599024
3.232567703,-1.4245717071281836,-1.8689991681794844,3.2668253403512413,0.3077582627089245,0.5040020315474903,0.20816554382019375
3.332567365,-1.1418240710731353,-1.8406525965260407,3.2066665108192938,0.5156510049410016,0.489829302045833,0.19588787304839508
3.43256875,-0.8514102038643474,-1.6911076180750304,3.276294295169294,0.6406080270630339,0.4702214921703495,0.18569623130611537
3.5325594650000003,-0.4851479408825575,-1.431741582284433,3.284346139602607,0.8533428796199781,0.45717240101124335,0.1834825399989782
3.632685624,-0.3343103634006676,-1.080579187381882,3.3697679797499793,1.157704439843183,0.44101499528176535,0.17614068245338751
3.732585604,-0.20167721883344658,-0.952897670080292,3.5140763234910786,1.2898215076640396,0.5035493632819816,0.06784914360157258
3.832565825,-0.23535696884587168,-0.6658400373350744,3.5612623677483524,1.4460557087063317,0.5125476467455148,-0.036725220597312716
3.93258569,-0.022983890164618905,-0.21550345975238727,3.7967011608075034,1.120553047315586,0.451744563442529,-0.10028784136328561
4.032643492,0.18728854783920929,0.050389259896242405,3.638892939639238,1.1987969790026416,0.4004059641708388,-0.14302458115652464
4.132569912,0.3847879239022288,0.43091377415746634,3.7284947379440454,0.8286843094524491,0.3431376131452941,-0.16662268449079867
4.232568672,0.5707294093487261,0.7755796301485982,3.6031476014795674,0.8079047447507665,0.33171784217009537,-0.17133258334332102
4.332567196,0.9048749104322001,0.7905737163965654,3.48932139114872,0.4550114870408851,0.318070408895545,-0.17748286723851217
4.432574557,1.0529789311917581,1.183701219009312,3.404789304784262,0.37790755334613657,0.3157785335548035,-0.1805275923704165
4.532669618,1.5932595013016602,1.1852615061552165,3.3785846343495822,0.012042527931673881,0.33400296014787256,-0.1880080839036139
4.632567768,1.8563088121369298,1.1795400955797724,3.2873383546423023,-0.1729834973019938,0.35111578812012506,-0.1953101539981648
4.732571759,2.194244366769203,1.2228284006649228,3.2591752772319436,-0.447969733864505,0.3475365993455725,-0.1884690630346377
4.832584712,2.341853635628639,1.145619047502985,3.242619144955083,-0.6824912365844678,0.373172342743342,-0.2054303861363601
4.93256692,2.7812480811715954,0.7631450810019202,3.2449209612368017,-1.0183209062957626,0.4028500594138597,-0.2179433419579905
5.032646017,2.9795657748462454,0.553699467026666,3.1836600567939826,-1.1259921086264952,0.3921211559513497,-0.21469749724887482
5.132572859,2.989124658968226,0.20850696657265824,3.253931447369859,-1.4645529002925173,0.41418720707104734,-0.21187068217365002
5.232584256,3.217694192735493,-0.2307049643756544,3.317624477130049,-1.4231380556576692,0.43753260643965824,-0.21555492316175598
5.332576104,3.0274375614357516,-0.4024801912709809,3.2052059421906844,-1.8574920929178576,0.441059133309431,-0.21935595564638988
5.432655613,2.817798631745462,-0.8810196209830434,3.377471419526221,-2.0266335748976725,0.4426830467302158,-0.21211293101548276
5.532565407,2.9028521861127174,-1.0180399167318142,3.295911528465504,-2.35046750994434,0.45974294604275495,-0.2276736150739984
5.632616046,2.6935937263518284,-1.1954514456727918,3.351983178826605,-2.540584761372022,0.4465928838009469,-0.19935888166104293
5.732566568,2.349107725752479,-1.4819440225996023,3.385009119281887,-2.689338807745574,0.4364370037338365,-0.20391632028951864
5.832571902,2.14851425662193,-1.5573378340455546,3.1985581543711223,-2.8929910276144852,0.45553827934243446,-0.20954392319197418
5.932576651,1.7409958937650671,-1.7900722491222891,3.2582319151778756,-3.041877401747149,0.4150100736551629,-0.20552963475614666
6.032569536,1.5959520534033245,-1.756295750799367,3.2827685554661574,-3.2381849640220097,0.39455390602221646,-0.20429606269197506
6.132562801,0.935847174116318,-1.525281517064648,3.202668264436546,-3.577133657496836,0.4096563793819732,-0.20663077884378941
6.232576018,0.8460642197874051,-1.4454574073314626,3.277401665977888,-3.7440527013986986,0.3812111306389961,-0.20667205634893304
6.332563183,0.5248586749947403,-1.1685698777600733,3.1792094283224337,-4.053290253253049,0.3963044794104301,-0.1953953371898485
6.4325706,0.4250039615700927,-1.0611376264339314,3.25400605438573,-4.122948088409857,0.44794957730805174,-0.17727796864648002
6.532609661,0.1544139051414463,-0.6932419913796339,3.426806680794053,-4.2787357417753284,0.527688653711502,-0.05563664282137359
6.632562536,-0.05574219471655545,-0.24391880727250193,3.727484974882952,-4.378737627108453,0.46644122213979594,0.03342280597358713
6.732566464,-0.006722830113542813,0.10812037470958652,3.631719655438479,-4.267021047248162,0.39575357310569415,0.08459766268691363
6.832570884,-0.539238527043454,0.21177489019970389,3.791219194177768,-4.033727832430351,0.3207174518915116,0.1216614019296087
6.932567627,-0.607203774004615,0.49593984589212137,3.8103800622071553,-3.871869075873824,0.24597141017295343,0.14157225931221462
7.032556286,-0.8867155186491937,0.7678623575150096,3.4938814140457577,-3.687098138326066,0.22358990183178243,0.1575948459933111
7.132619702,-1.0485810396918145,1.0597112865484388,3.5886706067393535,-3.3599989500944236,0.2276078174355004,0.15055991129381435
7.232643176,-1.6653937211010579,1.1390422200285022,3.296281807594549,-3.2639541732220763,0.24522791534755461,0.15632594544093584
7.332563725,-1.7842947978020898,1.089963854713683,3.082853692811109,-3.0682923753809628,0.2715916197979125,0.16110030122027322
7.432567105,-2.158071280948888,1.0011749784682265,3.029931758583203,-2.7374891109374024,0.17622190981135785,0.2024062896360327
7.532575165,-2.3936678086399037,1.0308453524905177,2.869099210507111,-2.395299805851185,0.051447969649249,0.28414235123349924
7.632642415,-2.6281340559525215,0.7810181997565735,2.7987865433637933,-2.252652520081417,0.32314818445632426,0.21089527709741926
7.732595505,-2.8316747010873526,0.47336520283166805,2.937823007825006,-2.0605245237050025,0.48023119594184227,0.1603816403162453
7.832598426,-2.948384946817245,0.27057908131926117,2.973158614704117,-2.037553505670739,0.47092928433238024,0.16384322014830618
7.932599731,-2.9316715685628583,0.07318856919793396,3.0969342065560905,-1.7279877078464017,0.41744009429364104,0.18358687524548492
8.032649999,-3.0289569790624453,-0.2275936477849648,2.9460557441951214,-1.3988141688977684,0.3863827681498962,0.19870012127706568
8.132570182,-2.962453177933236,-0.6930830960815201,3.228066494038386,-1.2839723811038044,0.3767636563632544,0.20265769805719752
8.232564889,-2.865107325914586,-0.7795237490448724,3.1691094844735157,-0.9434070375414514,0.39695350049277983,0.1980547173502072
8.33257452,-2.725919794048841,-1.106468295210842,2.982165406257337,-0.6460530964108793,0.43721637064437485,0.1968717350633612
8.432560544,-2.3093448724258203,-1.2164554504941503,3.06006261382748,-0.38418670887665607,0.47476852335308733,0.20295499846934983
8.532563778,-1.8727763157445834,-1.3837363829361407,3.411451629000469,-0.17478947837715475,0.4720370895069041,0.20337289832959216
8.632561282,-1.6999204023510859,-1.566665145278884,3.178401684208529,-0.09422824982900002,0.4609326140841635,0.19457152409543654
8.73258364,-1.4727255801100025,-1.506926700486431,3.291740172088828,0.03882664833609584,0.4637079439599148,0.19912673493586122
8.832596111,-0.9769418075533499,-1.2772839322773295,3.2183358478167796,0.36607871100780764,0.4360491839595609,0.19317027773520717
8.932567784,-0.746021319550796,-1.3142360419027266,3.2013143151017096,0.6322958458733259,0.4190135788367669,0.18340071996301477
9.032589866,-0.6205593505475069,-1.0869434684819985,3.20379866210954,0.8386616982804345,0.42735269133389064,0.17895011297437152
9.132567087,-0.391261671068678,-0.748211861683701,3.3382718263280187,1.0155672565243108,0.4447871338331438,0.14230579656544953
9.232563785,-0.30594722515265493,-0.4300166019836195,3.233072683069938,1.2106208888414935,0.45778376651466074,0.08403254871678806
9.332569945,-0.07538776735060784,-0.1819476396479134,3.4896450279173563,1.2501303889513835,0.5015402917078272,-0.03300674823408155
9.432565089,0.10908044321959798,0.21295676789542267,3.5670218478278,1.2227173059668004,0.44522438966478256,-0.10270580064143287
9.532568059,0.10803480614832867,0.5379454523930581,3.795065863373035,1.1208547940563482,0.39142344257831657,-0.14215800165927053
9.632573319,0.4127222781923087,0.918864414355276,3.6306149877054783,0.6414346629686506,0.3714431138921378,-0.17189221668018304
9.732579554,0.5487772287363923,1.0468888084614383,3.5126020523857715,0.5979466846510587,0.33452458766189935,-0.1751123275084114
9.8325643,0.9572493963406135,1.1642465348244528,3.5578606423996617,0.3706375995220465,0.3386643694153839,-0.17275696122185166
9.9325696,1.2358273855102178,1.4870294645815954,3.454948048075375,0.23460380431362232,0.370989292892717,-0.175534532437468
10.032623048,1.6450159473016541,1.5995829598265419,3.420668609097369,0.050230432679781396,0.3666586421374936,-0.18190789953206227
10.132580459,1.782852672179713,1.4567978562442465,3.2784482368203496,-0.07122437560133776,0.35530966322653,-0.18859178252450962
10.232566766,2.163708956614874,1.4179450894052807,3.3193189435246504,-0.4613865353553112,0.38663632203057396,-0.17737047631574382
10.332564408,2.533786861075951,1.1942463749770194,3.2106977824355494,-0.6434708385814144,0.3927110242917146,-0.1953372134208704
10.432670645,2.8888237717285943,0.8980304457531555,3.2556520150817967,-0.7938868785367296,0.3983358414468064,-0.20317011133652507
10.532610074,2.8829844235279634,0.6365057376533044,3.2680507358198327,-1.1242874441138706,0.44194903209177416,-0.19922925847423803
10.632564445,3.1625414604147495,0.31137742105964394,3.338907336808834,-1.287412329538721,0.4454025167937626,-0.20483216089385245
10.732587941,3.1281975823765777,0.04990087180420327,3.270164754500981,-1.5168242288208102,0.4272692325170349,-0.20259644531562895
10.832645552,3.028663017334818,-0.21909493507743705,3.045670337275367,-1.7082645433872394,0.4310510760236918,-0.1980033250540445
10.932644792,2.987642799378144,-0.60560854075553,3.268533962311811,-2.0477787718331824,0.4474494273324326,-0.2029135383477354
11.032569468,2.809310950921711,-0.8849887103601624,3.318406872901596,-2.2858440007443837,0.4320265716323854,-0.20162766185861078
11.132620419,2.7036875493557364,-1.1815878093412062,3.3239247974532464,-2.5657787939775782,0.4393951708625325,-0.19455323016350368
11.232579593,2.1932806497655624,-1.2311014736658763,3.309296877961473,-2.633467087822788,0.44494785749783894,-0.1958189351440092
11.332565281,2.179469420194847,-1.4862193067974894,3.3607622951539327,-2.9348971353857727,0.4166298820628713,-0.1896074206482897
11.432562666,1.665250752342663,-1.5397890600926578,3.376423250610061,-3.0930528700342204,0.3922060568446828,-0.19505408877598748
11.532559795000001,1.3007525840962584,-1.5421647433280534,3.3343713154951904,-3.3164927134192217,0.396222948037794,-0.19400959300697562
11.632569958,0.9587805190422785,-1.4526283428050957,3.459804463931505,-3.6489622097696053,0.4645978517330659,-0.1830160073021117
11.732563508,0.6854636238254412,-1.2791996317861585,3.282791791103755,-3.7387711078825134,0.3623032155323136,-0.19704772260926512
11.832580765,0.5968643457023721,-1.0510470571932968,3.220690239997156,-4.003076308207686,0.3567935660199093,-0.20391221699075232
11.932583477,0.37944799766757464,-0.7582860076474385,3.3526292456139353,-4.24000492063475,0.4343522950236834,-0.1460362720086339
12.032560689,-0.002705347518766915,-0.6964934315694686,3.4816904279506833,-4.362788556615274,0.4807694349772911,-0.060770221639237065
12.1325646,-0.008558645098879561,-0.11740017417488632,3.6541988098252767,-4.340390435402639,0.5025781938964843,0.032285851133170854
12.232574749,-0.22574778062884088,0.037124145382236226,3.7519775146049716,-4.346246756307899,0.3656010560564857,0.08600288113523169
12.33258077,-0.410053087760117,0.46353599822609187,3.743803473402133,-4.051132049292275,0.29783654570105095,0.12173648084825422
12.432564322,-0.5933131253500967,0.8953629071143712,3.6772946749658515,-4.014461484577107,0.25618809233641726,0.15737508222225072
12.532557415,-0.818276307003972,1.2789796671072402,3.5145259006637337,-3.81980113832456,0.2015439745067665,0.16743032169622163
12.632570473,-1.2266804529394129,1.1877328850602331,3.4742535784631934,-3.55823050556067,0.2014784280840468,0.16942520964719146
12.732583422,-1.516184360276152,1.3476057929283345,3.4038703584098875,-3.3035670024238084,0.2548601294575383,0.16719260344264222
12.832565916,-1.7150642688757805,1.3379632992483064,3.180152246398143,-3.21448790115269,0.2883554682207383,0.16377817717465049
12.932572124,-2.055551626319987,1.2894743456340227,3.070069577953022,-2.8518452272382424,0.1076703856135576,0.22335986128868818
13.03266612,-2.2204633347259373,1.0735994212399216,2.7782552805593204,-2.5395032884387687,0.09805325967496537,0.3125068495381782
13.132565477,-2.4732975580885794,0.9532976390103534,2.7619614795819367,-2.191859069703956,0.45036957315378545,0.17995410389851377
13.232584332,-2.790078287510097,0.7925383069141394,2.796208724566232,-2.1088648579198948,0.516182324215735,0.15123160338625452
13.332565073,-2.8336933018527057,0.4119032434965256,3.091519732873336,-2.004193088546322,0.48022034338269254,0.16726339898363088
13.432570825,-3.2125072162716064,0.20886568918333587,3.188513974356989,-1.7783378210812075,0.4097571296137484,0.18982283653109205
13.532563452,-2.812153666065216,-0.11618309826665559,3.13409347573147,-1.4937977840017964,0.3629829356395703,0.19859000823680478
13.63267707,-2.7593216379796894,-0.4111148963359516,3.0714689679241163,-1.1525442673678343,0.35761617693047354,0.19424887352534886
13.732578062,-2.7356291647611206,-0.8398809019282186,3.1639892132452307,-0.9726212152434145,0.3944577097787828,0.20692731250120086
13.832578980000001,-2.518359206196319,-0.9255029564378384,3.2404572241395715,-0.7280354726409198,0.41565575681322553,0.19902446678538271
13.932568911,-2.3603106145426436,-1.1956419812177699,3.2219215226062907,-0.8352387951611026,0.4521623044945617,0.20084959421910262
14.032571003,-2.116124322028093,-1.3415758496485533,3.1122330526921007,-0.24136023086228414,0.4637716138091619,0.20987669781064897
14.132637067,-1.6495744310848814,-1.3268629254254964,3.0999730138538797,-0.07943495043006656,0.44605294097313364,0.20991361426137092
14.232602153,-1.5088619535232182,-1.549074884585761,3.1825236794040843,-0.010955690375375651,0.44762232324442663,0.21316176955021326
14.332679522,-1.0141369036282548,-1.2933705578585346,3.288852680637547,0.3989939567364224,0.43458685642885364,0.20279092583431677
14.432582432,-0.7376370273817325,-1.2105322767146773,3.255459505927126,0.5651644947192329,0.4063704518838419,0.19343885777860204
14.532571841,-0.51976738141147,-1.1162679371692088,3.435250356329501,0.9280741907222138,0.39789121896787005,0.19313025797436054
14.632572717,-0.41983735494278396,-0.7844410199436542,3.1720963636244504,0.9257756019510224,0.40580817421473286,0.18674248738920096
14.73256227,-0.057004937473500814,-0.45328885425067666,3.2245950636142062,1.1149332534277159,0.48261704013466245,0.07806680131863049
14.832568402,-0.056540257418272497,-0.19631962146861115,3.5760253047601256,1.3364905645402854,0.4783629462498866,-0.028806790524080805
14.932566148,0.0025189778915089764,0.16372268123589084,3.6408342730819365,1.20558201887303,0.4788067823955938,-0.10541471911636993
15.032591295,0.04689866356320717,0.6053988877193921,3.646582525330023,1.2608602655147898,0.37542854304122647,-0.16283188160560946
15.132578874,0.2974496129724689,0.8626746559468712,3.6132359705131694,0.74077626754871,0.3208695208886994,-0.21736099882546503
15.232590004,0.4291587005488469,1.125007943101246,3.547293103736689,0.825336364624635,0.3536704394592882,-0.21547732470311456
15.332583259,0.6802243159718016,1.4417729418774443,3.3364600270897093,0.482253174977175,0.37775088680597013,-0.1934357337974027
15.432580368,1.1829109979628374,1.416833086296358,3.1817316633473003,0.35878528378105257,0.40266376367930096,-0.18253136120367866
