time (sec),x position (m),y position (m),forward velocity (m/s),"heading angle (rad), from x-axis, positive is CCW",throttle (unitless; -1 to 1),steering angle (unitless; -1 to 1)
0.126091001,2.946174352652884,-0.020905501643347476,0.08868292950155172,-1.5416076512647443,0.75,-0.7084634336003449
0.226024095,2.91647107320921,0.030370357139468215,-0.02805413472988058,-1.5384273759164935,0.75,-0.08631122175628282
0.32596827700000003,2.933451557396534,0.04739500163272749,0.05206012396663842,-1.5796936745795456,0.75,-0.13920561732827325
0.42606087600000003,2.9050794953571115,-0.04099861075715741,0.84481125883997,-1.5636943130157832,0.75,-0.2182329055223212
0.526038204,2.944311275932089,-0.20381479908143624,1.6594603779660775,-1.743122119930548,0.75,-0.28573567349221957
0.626019447,2.825357545613536,-0.3552423993138194,2.3103215617936614,-1.9203111834307733,0.75,-0.3166750896166293
0.726028554,2.7330513795906657,-0.6399445815599715,2.6407794653685315,-2.2073909934653093,0.6644471204880322,-0.3126773064784841
0.825972052,2.531897342468261,-0.8079454149777122,2.764154565833219,-2.5256345802745477,0.5281336986226601,-0.2850668181755266
0.9259730740000001,2.254262524183767,-0.924957161795935,2.838100427823924,-2.7024727041405816,0.4925955871069837,-0.2623031180782814
1.026009945,2.023232432418009,-0.990893231277973,2.8737433435471305,-2.995245639665691,0.4930547870404036,-0.24211454705192645
1.125994098,1.697103261619804,-0.9969305150516636,2.9598283934281127,-3.259677684123471,0.43365691183475125,-0.22853395824146736
1.226046543,1.4331863330500432,-0.9672697832623326,2.9098038146226375,-3.4753473793246474,0.40213871752821284,-0.22913941499590623
1.326021506,1.191459446978456,-0.8439224588887639,2.869935448526007,-3.660354736329458,0.39066532958033917,-0.219106324553732
1.42605248,0.9128758736766382,-0.6583637512091975,2.8688462723662758,-3.9453963390009275,0.37184471945139536,-0.22135110068356054
1.526064133,0.7888275731462513,-0.40267724368478736,2.878562615006933,-4.184413540610016,0.4401086751707255,-0.16010667726824185
1.626030324,0.6149884246659414,-0.208494141403617,3.0072303272439984,-4.255700835358658,0.4890002598852987,-0.06247993364486633
1.725971569,0.5374262063362204,0.09270076362747107,3.179679400368782,-4.242188453638239,0.4966459693528153,0.03930248677960638
1.8259732610000001,0.38987498987834934,0.4362373021429181,3.3542737399554916,-4.237640619635583,0.42803342234243785,0.09871131657010358
1.925973017,0.17524874428598697,0.6662836272340464,3.403170166973874,-4.146248888889014,0.3731366279150567,0.14293099724763847
2.025972427,-0.0566187852341122,0.9840986994114063,3.3455443933361995,-3.9371531562544155,0.3484758536994372,0.17723617082485357
2.125972759,-0.31703858220398606,1.237135587944618,3.3725324509280807,-3.71567603799416,0.33719400250611553,0.19585290793687843
2.225971574,-0.5808894968824809,1.3592648517685277,3.3319202757180997,-3.4672598699194928,0.36095610374149756,0.19649769284701132
2.326061004,-0.8980882920882188,1.3855488185574134,3.259228528102039,-3.2591567029057065,0.39532477372269204,0.19133973411896343
2.425974047,-1.2192341428573163,1.4518274334809589,3.228595675772396,-3.0006055274639083,0.42147333463499337,0.17736737093282995
2.526064717,-1.525737900954879,1.3822556284965088,3.210885068527973,-2.8562451629096106,0.28678549734720044,0.1857028827945261
2.626017416,-1.7866441677476903,1.2549458538708904,3.0604865079321257,-2.651390191020047,0.09198775025327031,0.2295283452995218
2.7260576050000003,-2.0528244738809343,1.1124034773503166,3.0399040218063598,-2.351917830863074,0.3700207714139283,0.19467014347249548
2.82597378,-2.2377800697472106,0.8722722018787606,3.097173028641481,-2.144041604415612,0.46959401098000014,0.15854383606932498
2.926027193,-2.381242165451486,0.5443833630758939,3.1904344800065942,-1.9781009147886834,0.4234812731820886,0.16520161807955136
3.025973511,-2.4990668426483307,0.2361116138425694,3.190980299330229,-1.819127711585474,0.3370761216362903,0.18076955589543567
3.126054079,-2.617743857942161,-0.04418239401848916,3.148734105054356,-1.612561249352791,0.28473179607017074,0.18531599045502464
3.226055665,-2.55459203683727,-0.29605296042919926,3.041943824958481,-1.3546689400452279,0.25866604533910065,0.1966332538339062
3.325967654,-2.464234228339608,-0.5960828980152957,2.9830462248343004,-1.0838899989910789,0.23494402792871052,0.20295089936172772
3.42597179,-2.33386261199363,-0.8760090033002313,2.796979820582964,-0.8396687643607865,0.25306918699299286,0.21546982897529443
3.526047714,-2.0691352390433435,-1.0932365817472651,2.774220244915281,-0.6817243443853472,0.29118066786095753,0.22605137966411026
3.625966916,-1.8593002527888742,-1.230410930722161,2.782609305443561,-0.41076124382940415,0.33381329019603107,0.2355521710212073
3.726029173,-1.6270168307640556,-1.294539501717038,2.819345929031628,-0.142593492147478,0.3732587374539419,0.24548339927163312
3.825975589,-1.3588844694390876,-1.3036959238499188,2.839111639505407,0.07723446018947568,0.4251791696513793,0.2420088344192824
3.925972867,-1.057558801511248,-1.2547405541539267,2.9124123492145437,0.32629372098991005,0.45629049183967296,0.2362372627168279
4.026004247,-0.8215805466493008,-1.161740963223123,2.979407673683267,0.5311030704345505,0.4485219553811579,0.2233014743991907
4.126053031,-0.5329202355731659,-1.0216663401314323,3.0391046131896053,0.7561732706765198,0.44060149798288273,0.21708319087868533
4.226053399,-0.38235554765780116,-0.7508848213428482,3.12493581608373,0.9954387668694737,0.4379033089790255,0.21500981958974466
4.325973612,-0.17225512275526572,-0.4296442856889796,3.1691854275698046,1.2155392487969414,0.469088825424354,0.11193452482472366
4.426032945,-0.11760759569159805,-0.08120061843383376,3.3205859641161557,1.2583193471230352,0.4861788512406989,-0.010468495844195368
4.526015221,-0.01808464483786218,0.15335314464477962,3.3569103452392617,1.245337513932775,0.47033914160539664,-0.10394049044875973
4.6260192280000005,0.16438074762193056,0.4335752449342829,3.420968445709849,1.05180648069023,0.4054180585058407,-0.14585314411469588
4.72600603,0.3704034121728119,0.726172669131829,3.3606117460714486,0.8467441160330444,0.37346822469772106,-0.15694851757024075
4.826081927,0.6216969653478199,0.9940283959509905,3.3549107464997467,0.6080872095308014,0.3835354067250195,-0.16012278750635303
4.92602987,0.8328160332313433,1.20516092639764,3.3580523841666294,0.37983894981081956,0.3600122792234869,-0.15349851147766289
5.026050869,1.2047490947928348,1.3106013378922847,3.2641885430102873,0.24452965610157676,0.35515335105156653,-0.15964467285691789
5.126045662,1.483250093361735,1.3608013041265505,3.2303757273677527,0.06254346039627529,0.3530743240844996,-0.16726502042381625
5.226058241,1.851239265585352,1.2933419852676153,3.169198186896511,-0.16262324560709412,0.33152529675381226,-0.16738524872460428
5.326014141,2.1038980679954964,1.3141464784449974,3.0054321132328914,-0.34136538404336936,0.31075451089382305,-0.19058961434141225
5.425987894,2.3485098418134163,1.0638562777300866,2.969491908740707,-0.6298389897478702,0.3335243697399515,-0.19163937289590688
5.525966697,2.5975029738442785,0.9277036709466192,2.898764304346405,-0.8432175438365014,0.3416824748246193,-0.19570165396068231
5.626061871,2.7690053581302134,0.7013731675949865,2.8829834609960656,-1.0316142654426366,0.3659240408589892,-0.20268782565420743
5.726030443,2.9186416373798227,0.43071982055382646,2.8284760519510628,-1.300767689078724,0.39109437605379904,-0.21910253551864423
5.825973553,2.982780024464361,0.15661657692630393,2.8627740301479747,-1.510568942718098,0.39604730809816896,-0.22066630465992282
5.926067514,2.9661984882301473,-0.08399606758303677,2.8462500880513035,-1.7754227238773452,0.41996650361041205,-0.21602975961090207
6.026074788,2.8611398984958742,-0.4024442053965854,2.8935260225119745,-1.9501705930943576,0.4475336544065762,-0.22134202964553798
6.125973605,2.731648478577326,-0.6379343443019654,2.888787492082226,-2.23285945425766,0.43809101638086057,-0.21815689843226493
6.225968073,2.5428030510898796,-0.8185068940504163,2.923830630004379,-2.4564056746451386,0.4445557892938002,-0.21036180920796851
6.326046913,2.3117448037590806,-1.001886219334194,2.949058591302677,-2.62187253281481,0.4698496096389452,-0.2065282372294457
6.426075611,2.020502708171636,-1.1253690321220196,2.971795626761128,-2.909676108314545,0.43955839756017223,-0.20536811666719285
6.525970729,1.717772079355008,-1.2154257666034247,2.9525787335006397,-3.0862040145655967,0.41937156544450327,-0.20490723905372407
6.626101363,1.4745442184853956,-1.1838377370581363,2.9323615060529225,-3.4004222986806187,0.41399735212274935,-0.20216831194026688
6.72603346,1.1235750798492075,-1.1065248510832317,2.8827057058236676,-3.589990321565846,0.37859700716497335,-0.19860897410504444
6.825973822,0.8499950965375925,-0.9602676559831795,2.960399210480754,-3.855227763004602,0.4323470552566694,-0.20623818301365335
6.926059963,0.6676658421345384,-0.7714110891505527,2.8850662525611463,-4.045048729283754,0.3933810465779611,-0.21323398941044597
7.026053726,0.49121767390057014,-0.510208075841561,2.9041011342694527,-4.243170426466583,0.4379703471233266,-0.1488803195436554
7.126056289,0.3891683499255239,-0.2033490997432743,3.1061151907684046,-4.386632268642835,0.4563206165888525,-0.057324931761608425
7.226037082,0.2806192077293703,0.06999565394604607,3.228909747146071,-4.259556473017126,0.4836800038355568,0.05247777874459696
7.325968653,0.1091944445017421,0.3627259002760458,3.2948068093631044,-4.359766258426537,0.39322320059720317,0.10626905333476473
7.426056974,-0.06543405292480961,0.6993309081083351,3.4307431862122884,-4.164551945458896,0.349973256315418,0.15237782543741576
7.525986639,-0.22683240997540816,0.9151572669525362,3.310326483412895,-3.9780220316732833,0.3314106469979662,0.18868629159455372
7.626060365,-0.4294177445210649,1.1567073528639649,3.2726510750306774,-3.8012892363905406,0.3145029461764638,0.20668868190163187
7.725981206,-0.8210318785381923,1.2789971426561475,3.169449116667702,-3.5330480970826743,0.3398669924868328,0.2065379387428313
7.826018355,-1.0974017280599095,1.3692410104512904,3.194604381115995,-3.3242141713291393,0.38975385611527597,0.19735327053022583
7.926043292,-1.390686803341777,1.4188141972466584,3.209315384122249,-3.0675066881119397,0.43265485192340497,0.1953190227448016
8.026055563,-1.7099457429433478,1.3629981955694461,3.2488921028387003,-2.9173140820059036,0.42343944029311087,0.19356269471508336
8.125970275,-1.9901010461993505,1.2724549159133232,3.278836933970927,-2.6594809791572622,0.41623982633564416,0.19164378318060254
8.226060519,-2.315761508476063,1.1297263245764826,3.2829379284268714,-2.4146731711209304,0.41498666235405934,0.19587446655927998
8.325967862,-2.5096243195255066,0.857950729324556,3.284817686588144,-2.2207273559810514,0.3708174494839045,0.1952098625122463
8.425969064,-2.6515967508984724,0.5845757239952827,3.14682844802099,-1.9621522658109958,0.34134458824449754,0.19139789192550544
8.526061055,-2.8524478995112097,0.3202701818098175,3.1836294821165616,-1.8065065076496123,0.3530271376575597,0.19357451781640964
8.626055705,-2.8463260366151357,-0.0007609879071668831,3.138799969840641,-1.5769226515401447,0.30415600019620626,0.19771253369926342
8.726022087,-2.792415881725663,-0.2904384675696994,3.075689878438491,-1.3970043261380054,0.2737582776135665,0.20294367711654
8.826003679,-2.765882718203554,-0.5814229767738668,2.9862065004433913,-1.1303806355413328,0.27841386454284994,0.20701002840572816
8.926048588,-2.5410755475711624,-0.8461763683587152,2.872181457323221,-0.9012897173749288,0.282554684695633,0.22026852017556495
9.025969819,-2.3995395188056694,-1.043974578529762,2.9195010646352175,-0.6664013063295428,0.3030452216042367,0.22647975939358125
9.125970719,-2.199555062459463,-1.172684064104674,2.8157414808423322,-0.4360640353659499,0.3582988955869807,0.2434191133539789
9.225968544,-1.890319462326479,-1.2923006429124106,2.8763067745172184,-0.1499155729477792,0.3844002829594412,0.24837658543838734
9.326055615,-1.6554236511310734,-1.302771088417756,2.9028092697095733,0.054202122906234704,0.47604504006403553,0.2481004738284428
9.42596486,-1.325691745323757,-1.3393187597573974,3.0044433459969437,0.21592599922296274,0.49720960945195913,0.2422914201459896
9.526027539,-1.0364178401685806,-1.1496731308133337,3.0402724450726444,0.520310584027023,0.4628735881700316,0.23269189014370079
9.625969378,-0.7543855049042201,-1.0026670390150323,3.0986283698364727,0.7911995557540941,0.4388360864725241,0.2258668119348829
9.726053436,-0.568127482467127,-0.752540936131055,3.163683171016911,0.9858311293156925,0.4389930340455101,0.21716622913185826
9.826066488,-0.4288538611133704,-0.5177224486561101,3.2416969318362527,1.1651780634567213,0.4790777652068472,0.10827100822796026
9.925969733,-0.31135669295421114,-0.1608526911318788,3.415834308805275,1.1799408951719232,0.47702778171575266,0.011856189568632203
10.026022378,-0.13598976920003186,0.11057807069993505,3.4606030213671515,1.1891410483065556,0.479506437873931,-0.07759075194661606
10.125971983,0.027234139777362314,0.43146992284957186,3.46815170406351,0.9835587615730152,0.40841684609417706,-0.1285097407335432
10.225974305,0.2136864262841685,0.7437506432812679,3.4913301950984086,0.7781349982717537,0.3737740264646894,-0.14489597839754165
10.325971600999999,0.4738481711301053,0.9341028662868432,3.3644038778977894,0.5731262389719983,0.38955037362787,-0.1532518580824308
10.425972434,0.794044327302745,1.1402523139218914,3.3284767722383646,0.41632314546484733,0.36807141064626714,-0.15296065348361546
10.525967633,1.1402960392013792,1.2623665151059293,3.353559320100514,0.20865839544178652,0.34706676424600663,-0.15349031739407273
10.626041744,1.3456720481532045,1.2867855059011573,3.248714131198165,0.017888043220321843,0.3439877560086207,-0.15383817022950977
10.726056638,1.7169349258785516,1.2636792829926637,3.1392756812266236,-0.1897206717080006,0.32734530028536873,-0.16578415941082233
10.826023579,2.029303732790629,1.1225298033991051,3.072734556926246,-0.3582147745484006,0.30529634550730556,-0.1750944527046731
10.926056643,2.3340918235298713,1.0962998428529662,3.0240544299376846,-0.5894948239593478,0.3527112205913189,-0.18987770407254845
11.026034819,2.5389460921157547,0.8978779733093761,2.9554008602490334,-0.8019295128842573,0.3428599297253298,-0.19909458921120726
11.126045415,2.7194430179758378,0.6626579006383485,2.8543119449135195,-1.055912916837642,0.33756123735624743,-0.20880835824293287
11.226046964,2.8637290481083473,0.37501356585533013,2.8695163232120144,-1.2862733986712367,0.36520728990316026,-0.21691803135327234
11.326042617,2.8450749399063326,0.10277349908827356,2.8221073884191634,-1.50669219903771,0.40470237658660724,-0.21687933733237036
11.426059918,2.840810188317955,-0.1978016044981559,2.9168592216595415,-1.6911718326555427,0.4123296911259603,-0.2137290384688588
11.525968855,2.7881066435862234,-0.49041303753724064,2.8630388448650983,-1.9814687790750485,0.4259818349555329,-0.21684913011887608
11.626032863,2.6242124348631846,-0.6597498765026948,2.903247922946317,-2.227454046622735,0.44865317044388625,-0.21787260159066577
11.726019148,2.4778572925210978,-0.8820891129389132,2.8767654277398633,-2.423138170791005,0.4384069641343303,-0.21235618703029902
11.826042527,2.168469146145724,-1.082971957269368,2.9087045831169434,-2.663813681692726,0.4344120364917323,-0.20653169667211754
11.926039678,1.9070724164188506,-1.1114413336873128,2.9384041924899473,-2.9289778001702294,0.44514065650417933,-0.19714671862947153
12.026050558,1.6340917162290967,-1.2068650120684148,2.940534716031249,-3.1087220999908567,0.42291839031251316,-0.19930576413752185
12.125972651,1.3393853947422063,-1.1887860257725564,2.913755998054269,-3.33902394327545,0.3957985311675203,-0.1944336874775022
12.226054857,1.0481118487939964,-1.1330742642478842,2.937689436450043,-3.593980939508599,0.3853151093348334,-0.19555843029022615
12.326016722,0.7689983772316792,-0.9832922231420785,2.866167628403207,-3.781177890359398,0.3794918814152975,-0.2005824867582492
12.426009472,0.6243641515402982,-0.7499478429432986,2.9020789436254493,-4.049173796986099,0.37381376716702835,-0.20101180281160436
12.526020958,0.4470382908069817,-0.4907636090135774,2.902891501778266,-4.287045911491309,0.41721601599401587,-0.17921597607529036
12.626020154,0.3369596396596427,-0.1967026914903922,3.015542289410492,-4.4486487831002135,0.4985921008206007,-0.04421320303734113
12.726085872,0.21172883408084445,0.10482785910175538,3.2258029163773485,-4.376581364787602,0.4738778828507858,0.06133493514448446
12.826049108,0.12828850808157816,0.40336893531592727,3.3487879647512293,-4.291249375134495,0.40565265909140935,0.12271839885764381
12.926008306,-0.01562742245603782,0.6626634392633061,3.390057883096827,-4.162365274454545,0.3514323740364557,0.16552653363698755
13.025972439,-0.26310936507320326,0.9100793965846432,3.2851413881348517,-4.002018408693275,0.3115087801763746,0.18801538666779335
13.125971173,-0.5585922133173531,1.2169583148599572,3.2399553357359356,-3.7751681362910046,0.32197434422455073,0.20054163359427676
13.226035186,-0.727722442045101,1.3086750124098336,3.171478599353353,-3.4782624115973277,0.35674426198099873,0.19674286287005144
13.326058473,-1.040016017769012,1.4197453190087062,3.1845856909995067,-3.2655326953829262,0.40758612098897345,0.1874777253702768
13.426060222,-1.411728165670026,1.3975421152980834,3.145813917093972,-3.0470853645534,0.4404381034597397,0.18447405995413715
13.525976834,-1.7165999297323398,1.3885474705721783,3.253831441207623,-2.873500729906285,0.4562769601344668,0.19200193261282522
13.626042461,-1.963618814505188,1.268198807618998,3.06483113760901,-2.6278369279286737,0.10751139445616328,0.2369260328083789
13.72597294,-2.2234209989023017,1.0729148769469035,2.998577702559631,-2.3451133465684895,0.32954966838460076,0.2106694919792123
13.826041121,-2.388832838561328,0.8284678843138762,2.9918917631625295,-2.173615240170649,0.46340524441993464,0.16411610844205568
13.926047946,-2.590209163213811,0.5046103455498986,3.130875462598462,-1.9878390558910917,0.42802383319601817,0.16884239875163787
14.025978119,-2.688373243730389,0.30827317679551547,3.1623380999627746,-1.7895291923307575,0.35444645869892044,0.17888951147489943
14.126053995,-2.728029829490731,-0.05965868277871366,3.1597389864929943,-1.6187313146952031,0.32713162237992777,0.19801675702612748
14.226060917,-2.725953159893727,-0.33721968634872346,3.0389292586869434,-1.3758388628084066,0.2589344253132521,0.19682734371773372
14.325971306,-2.62894063153215,-0.6338058729906355,3.034129135485157,-1.067550244329731,0.24663551949815246,0.21756786946542536
14.42605646,-2.4643265919224424,-0.8246606748789276,2.83901724666353,-0.8671296730904203,0.26562878205543505,0.2153737864168877
14.526031116,-2.3218072064700914,-1.1015874268549557,2.8586762670790007,-0.696571084091469,0.3164038344018361,0.21987922652145472
14.626053066,-2.0214937998517035,-1.2192857436514555,2.8410582152515884,-0.47556405183699785,0.35791595459285347,0.23315420365365372
14.726067562,-1.7149189774299491,-1.2870743727662237,2.780331378144197,-0.17197690248666608,0.3945729163031777,0.24233115021615778
14.826031514,-1.5087359298488598,-1.267526868585834,2.8808894402143492,0.04380211801377043,0.435709639761492,0.24341278448426296
14.926048297,-1.2394304902237119,-1.249683481132992,2.9798806960909063,0.3202628482659679,0.44238694540792206,0.23325393707344183
15.026022138,-0.9206271676124045,-1.1349238088196798,2.982343589327187,0.5598292036374399,0.46016205842486874,0.21941797827815784
15.126059737,-0.6893185383626376,-0.8971430587333712,3.0710195933439994,0.8306888960228525,0.45334380582548045,0.21427799832955496
15.226041692,-0.5101583035721443,-0.7256476611752922,3.065716835339115,1.0111182686553244,0.4387392847202272,0.2036483134265786
15.326058386,-0.34784398065952304,-0.44105940159525275,3.1531820648428193,1.221933938479517,0.45471157720775995,0.11927934797377562
