time (sec),x position (m),y position (m),forward velocity (m/s),"heading angle (rad), from x-axis, positive is CCW",throttle (unitless; -1 to 1),steering angle (unitless; -1 to 1)
0.132746958,-0.16346069194096916,0.21528326350413846,-0.03848953282697905,1.7150861836807152,0.1408247932482931,0.028233621860533666
0.232692636,-0.08286914436366107,0.18503410023837052,-0.009471207735670967,1.7013661550178856,0.75,0.09699600204075477
0.332643067,-0.12232202338590811,0.20172755488244457,0.009340348020006238,1.7026805423110773,0.75,0.1512676331925159
0.43264922400000005,-0.06985248980923178,0.23335124846641586,0.9052689517548242,1.7640458462329769,0.75,0.21375250990678785
0.532693221,-0.1427294996524671,0.36640919533452526,1.7285793223186663,1.850445156977761,0.75,0.2923894978612906
0.632681583,-0.2608411396500174,0.5892052807687319,2.4744785066846906,2.1312069196143746,0.75,0.3172701352590046
0.73263962,-0.39077041116311784,0.7483572771163737,2.787378119326689,2.378227834196135,0.6209234672442714,0.2929391335683694
0.8326414560000001,-0.6400577655696386,0.9585130317534222,2.9187597866025374,2.6570708995738914,0.4594678668326927,0.28296765187603684
0.9326439460000001,-0.9387999220622973,1.028888983015019,2.9252783843447876,2.7860268919331936,0.39846453317552777,0.2657325885984457
1.032726904,-1.2046635246942734,1.0505804777043932,2.9341404784695326,3.2042187308222037,0.4100906407462303,0.2511544524311198
1.13268601,-1.5025455578808868,1.0096251722361396,2.970509181063086,3.4305950382969383,0.40344772567436016,0.24034730319272518
1.232650204,-1.7963322237908455,0.8941331430822186,2.9005403741930738,3.721483145342625,0.38181123022527946,0.2248316757101262
1.332681341,-2.049859208528875,0.7678181314594497,2.986514058691487,3.845580378023545,0.3855900766066723,0.22871597044898342
1.4326464840000002,-2.2556985434298653,0.556600523746376,2.9374469628400783,4.071743087929276,0.3359598430610037,0.22560396450799516
1.5326490270000002,-2.4535312178289117,0.2812695393684867,2.9588450434042275,4.323337582652707,0.30636104977467726,0.22546571982166594
1.6326441200000001,-2.4846143784841748,-0.016882485920878595,2.8910698512178836,4.518977759447915,0.2976744983802139,0.22717811147880634
1.732645604,-2.4835598303674873,-0.26237318027503576,2.854294803260629,4.8189741030756625,0.2832056126587513,0.23485755881762865
1.832646659,-2.4505565412946226,-0.4906834131221108,2.83465642875522,4.966680909362167,0.2728953437998135,0.2414512314159856
1.932643948,-2.3386765484483814,-0.7851898562563092,2.6851745987323454,5.203065761067681,0.3156804563646283,0.2510679124175278
2.032651911,-2.1468526294446324,-1.0023883532395592,2.7473504275266074,5.490041980410219,0.3028058273715982,0.25501337021089215
2.132713159,-1.956723641846646,-1.2127694449677862,2.6926029527247204,5.728770516894378,0.31788696808294625,0.2558044869252255
2.232642752,-1.7295829673171674,-1.271392188287411,2.722550827637157,5.95175433888592,0.3515649849737918,0.25986522730941075
2.332708063,-1.4242747155883577,-1.3599360814482824,2.730550853024928,6.212367459516821,0.37719233877135316,0.2634618333789207
2.43265257,-1.117090211628151,-1.2994218004154205,2.7472946748276037,6.513691531576592,0.383922883627833,0.254974869093794
2.532690498,-0.8710648150437127,-1.1910762525533858,2.8056433562002594,6.670794443457801,0.4038006087104244,0.2469931154282987
2.632740674,-0.6239286279147739,-1.0865702909232282,2.895462170204493,6.966476612431328,0.41855313861403337,0.23900747934690902
2.73264161,-0.3977400075455951,-0.9061960269104706,2.9338026126096515,7.239495751026558,0.3920319220079134,0.23068404598759795
2.832639878,-0.285249198287568,-0.6618890050945105,2.9991285522224502,7.342495147719871,0.409580624886252,0.18066580865076837
2.932702009,-0.09713009357706837,-0.3796812659999642,3.0265348279685407,7.525819432334674,0.43138860861020234,0.07223244403951098
3.032689478,-0.03306258413203082,-0.11919277704049125,3.151114026594196,7.548771880300905,0.39960112126681274,-0.03877324220010257
3.132715927,0.1018263064563965,0.20843495565998746,3.22284617776168,7.407154490446902,0.36686000023828086,-0.10923405754204185
3.232645481,0.2547482881423063,0.4837032841641432,3.2180827943597716,7.209294663564353,0.3501396740923364,-0.14658995436613068
3.332690826,0.4831706314632211,0.7847204764340867,3.08596175397894,7.03034170833661,0.3351504592854548,-0.16086325664697615
3.432643783,0.7171112932501057,0.9089228077197455,3.0807194701856604,6.767678165341393,0.3454008328640319,-0.1591573320216188
3.532691543,1.0079640614741996,1.007297616462572,3.0428210967018967,6.5815404012427905,0.35536249983127444,-0.1578196077299535
3.632698848,1.3108106378754936,1.0312253627934227,2.9648299319983,6.330723540094308,0.3471042565829015,-0.16402395371917386
3.732725756,1.5921224703823975,1.0379859878464097,2.9202359617847606,6.164008353815155,0.33734028488136564,-0.16681832502566296
3.832685547,1.8939584252079278,1.005173406153597,2.976641931106093,5.949794825059273,0.3416035613310303,-0.17211429989349172
3.9326459060000003,2.1421608955371507,0.9531217623465872,2.8278335782634145,5.674052232908923,0.3321145181060846,-0.181536080820626
4.032670511,2.329034053485059,0.7186055735450171,2.79375816126061,5.484570202485633,0.3329326073412056,-0.18418522148845562
4.132644151,2.5013000540963213,0.5164598899541474,2.7708115780367253,5.2290006389018915,0.34467749523432967,-0.1839596960517272
4.232682848,2.7037133426526236,0.26449804353383266,2.7016459095993075,5.078585124862847,0.34418018685049284,-0.19576679456313145
4.332643569,2.7519652718136145,-0.05057629814786056,2.7201413764450573,4.786301684721519,0.3491832256364667,-0.19586134215396844
4.432647105,2.7201910818175348,-0.26261663746746655,2.730581234828531,4.5875005342079,0.35805043431574485,-0.2012202254782071
4.532641231,2.645920826307938,-0.5630552644393635,2.6908613202824347,4.367158829133189,0.3678893248756348,-0.20574206735213107
4.632720956,2.5361009517310684,-0.7476536705795451,2.638854507669692,4.095883076704514,0.36805119942442854,-0.20223196377866365
4.732720502,2.306971273394642,-1.0788887397066396,2.733835154496228,3.861065593779236,0.38855490765662865,-0.20268440323079576
4.832751274,2.053721317375589,-1.1123725877749469,2.724361955866773,3.6440356350369556,0.3988681012563493,-0.20032926886294272
4.932737135,1.814604872844638,-1.2534217910673375,2.7530372649512196,3.381863021754029,0.3916701816060898,-0.19831274674736452
5.032752368,1.5878375973832457,-1.2324737757864421,2.7881667355599573,3.206906789951623,0.3943295721125309,-0.1968272077722452
5.132713091,1.199470122584688,-1.2457222344545322,2.8213636381183993,2.8897264767979762,0.4107848048331642,-0.19287043925098593
5.232715874,0.9905024055298244,-1.1533057924802523,2.8048660667671523,2.676620309257526,0.3895158439604721,-0.18745731135876906
5.332642572,0.7600849224361779,-1.005643411546062,2.8124709101118737,2.4091719563772824,0.3846831170040378,-0.18300687897834395
5.432640134,0.6020643906111666,-0.8165165608317786,2.7811127082572895,2.239900650603738,0.4025024479082694,-0.1882962568550039
5.5326479729999996,0.48545562573647716,-0.657375307656685,2.737345001189357,2.047177326339671,0.3931284372791328,-0.18003771458798196
5.632647573,0.2859975489576108,-0.36154614219836784,2.855736325383049,1.870034269973891,0.4070312889200368,-0.10396021089181831
5.732648575,0.25858278377269045,-0.08121309698081537,3.0675700869833364,1.751436845443896,0.4663111716483962,0.03504814668161622
5.832677929,0.21049060229473593,0.2738589689695577,3.1802629664399276,1.8249519383853365,0.380606064991802,0.12524680118904635
5.932649452,0.11198208333463544,0.5126361664649416,3.0904755770135552,1.9107273427268612,0.3286342416864928,0.1830754194739148
6.032646895,-0.11571558050756953,0.7825277373929026,3.0947669901580936,2.1238772618794868,0.3134153483653146,0.2169574896612344
6.132651824,-0.25450467964102996,1.0638716808939668,3.0481015362000625,2.383151378541514,0.32025894113359293,0.2329041894083912
6.232693518,-0.5169952365187774,1.2272867659354527,3.066440494398785,2.60709598205227,0.3401517712547253,0.2287220337907114
6.332648105,-0.7910281336034679,1.404909376955793,3.032547896924309,2.8629714767109746,0.36793044155733023,0.2161975619680682
6.432683029,-1.0836924044982243,1.3770111842516735,2.984673432407997,3.0706283564011745,0.40520508084444123,0.2109822044019745
6.532698466,-1.3721189960518712,1.4432922047544114,3.065952747259161,3.2399501703186284,0.3946063180372265,0.2040334117571908
6.632642177,-1.6999356779046073,1.3184026670584499,3.0544225402202274,3.442126230027303,0.30918531973753033,0.22365092449589122
6.7327397730000005,-1.9396916864257943,1.1781573173891586,3.076431229818982,3.7255753094193125,0.2519624156877485,0.2505070853226596
6.83269789,-2.1794631950864654,1.0017201673688363,2.9570870718115367,4.008047127692047,0.3473790106673285,0.21568089137301522
6.932709464,-2.421626667238133,0.7818071445346892,2.9385826306231944,4.148016121784194,0.3777088036249224,0.19783890027356393
7.032643715,-2.474898470308783,0.515075075585739,3.0554725264620974,4.34786821928672,0.3583734080182062,0.20608342066751706
7.132734227,-2.579396704196941,0.2123035468244388,2.9808474497780906,4.57923439840293,0.30785991055230155,0.21655556566674403
7.232719138,-2.5351903687121333,-0.04955213989344384,3.019477788173806,4.801458801180838,0.27701093355432194,0.22689692598944924
7.332724087,-2.458499254504296,-0.3317956619329073,2.8927594510514343,5.065566590993616,0.2760397914819423,0.23401753178281903
7.43263886,-2.402743188419324,-0.6371846801175881,2.8233657129308947,5.288926397815416,0.2798426200656843,0.23840798789405085
7.5326940570000005,-2.2201888938340915,-0.8576748628257322,2.7550609477471406,5.530826442728902,0.29715850275915534,0.2362817511644858
7.632744958,-2.011511750472304,-0.9967461875933595,2.749320456396628,5.7777837782383035,0.3228494434096024,0.25358766182496273
7.732743631,-1.7198462865884327,-1.1399136156621819,2.777010040018417,5.987003412146079,0.3569147172657279,0.2484329791490002
7.83266952,-1.4203457962500226,-1.146069425558841,2.8076039603009133,6.246140940131752,0.36723248360414246,0.24635438021033348
7.932667498,-1.1839634018696223,-1.0814265130160532,2.7990014254514186,6.484077554243191,0.3783040651538646,0.2408060275420982
8.032731868,-0.9203645126115763,-1.0564570089378849,2.8090975893561225,6.687217571665308,0.3947152128682921,0.23891685073480878
8.132691403,-0.6630984454262352,-0.8763639526740976,2.881179271999323,6.947443047046474,0.3817088513147757,0.23622597289535985
8.23269321,-0.4554137643444601,-0.7325192311589258,2.8711724532548173,7.118975615421763,0.36042797692754125,0.23288210223155423
8.33272112,-0.27012255823162734,-0.44767656691060176,2.9200766356743864,7.396858808112481,0.37171387617051527,0.20750248775768926
8.432696333,-0.1695571388756619,-0.1921755190304672,2.990933691132634,7.510014376591773,0.4079344964857188,0.06357698887783836
8.53270001,-0.06988113048582753,0.05321833809535807,3.1388821353220573,7.499898342197771,0.4071251735996983,-0.05679111365702503
8.632649031,-0.020241519846456623,0.37431449013246854,3.15332477622177,7.368614307333676,0.3752589437662809,-0.1210592078609625
8.732697517,0.24733105836119584,0.6327496959380589,3.0869126939202824,7.202768494866656,0.3694838395087605,-0.15157775697646783
8.832641384,0.36150763604594754,0.8464822639520028,3.071785733242955,6.9484503341143276,0.352440835643524,-0.15821810541327766
8.932642613,0.5927576233206893,1.0773058095731214,3.0433597801411,6.7985231017526955,0.37266636901292177,-0.15336551832272347
9.03264367,0.9203397410452372,1.1001893367138311,2.9912065002810593,6.564429986312435,0.37599201674835153,-0.15977655901811605
9.132643243,1.1936114254588681,1.1715394847611784,2.970269504287016,6.30293793838986,0.3666771833241009,-0.1590264049010489
9.232734601,1.4814868076420797,1.1497118488481084,2.9990859856956265,6.163499597616661,0.3643126526375068,-0.15232040825713208
9.332654013,1.8210343494786096,1.1133994406703935,2.904352318099142,5.914004295993266,0.36876809817007594,-0.1660238145409507
9.43265161,2.0513271425387547,0.9776500685220775,2.946783193114251,5.7016489447199366,0.3449717634185018,-0.16629372716004445
9.532645374,2.3305688179400534,0.7886986907423248,2.8473624358057648,5.502916613457497,0.3494868259106621,-0.17108178595398169
9.632711794,2.448630843614688,0.5262894024772868,2.8129832281547316,5.251845165539892,0.34158587514874056,-0.1844467705960775
9.732718273,2.579395241513333,0.319084806585399,2.772497499950148,5.020393109321196,0.33917705736703946,-0.19175704939242078
9.832685377,2.6659763307178173,0.007008559336973801,2.7500849116532966,4.780713633563506,0.35981267621568613,-0.18082101165233777
9.93269991,2.5978591549906804,-0.19701561879886123,2.7551792853037336,4.548010749523731,0.36160123320622833,-0.1918433407869205
10.032749421,2.5568605022723614,-0.5103362134692485,2.682402866168478,4.29648312734386,0.36240869603179826,-0.19280938267753844
10.132721886,2.4416124001076662,-0.7386565177543055,2.6971065980173163,4.1000541024267525,0.3698755862617357,-0.19707275025419616
10.23270059,2.255532102169879,-0.9632545942948815,2.748211734010696,3.851268052328894,0.3923190783334725,-0.1977291774024707
10.332656188,2.0001115559490783,-1.1023035375277102,2.712356567431917,3.677497927554782,0.37919492012793693,-0.18904533149168648
10.432694987,1.7742722214353612,-1.1715557371118583,2.6842399024899355,3.386551101810633,0.39415315493506675,-0.19029915815967638
10.532709285,1.497332951483891,-1.1657880701781216,2.739182048619611,3.160484800118772,0.39414939571899854,-0.19245258915547578
10.632732049,1.1881521095102476,-1.1443181221017589,2.7853311334662645,2.9323225505709796,0.3812045678574832,-0.18135648648768257
10.732647175,0.9994545605740404,-1.119207195234492,2.7204238016975304,2.649851652936688,0.380668534440046,-0.18930907328377958
10.832697011,0.7253290921261136,-0.9789765462763883,2.7652907980871855,2.496148809849687,0.38574356530296144,-0.19259322759145797
10.93270276,0.539971315064807,-0.7743212054014753,2.7513875888452897,2.265228843205206,0.3765916061716515,-0.18820202446863887
11.032710927,0.3615886665336302,-0.5516876946875922,2.787330337852007,2.060672178890504,0.402077631115422,-0.1748442543600194
11.132685093,0.2820232924131436,-0.3024273974408414,2.848088195439121,1.7765014810388302,0.4351500570476193,-0.09982512903955867
11.232698567,0.1635173305639997,-0.02695311020402834,3.0392544595919797,1.7847061035929168,0.4126445751767242,0.020166718259974674
11.332652744,0.14337568146453095,0.3236024192016321,3.1405282096353666,1.8216279589688713,0.37608949524416085,0.1188427481664812
11.432717307,-0.01790395741491635,0.5766610832614795,3.155401954652166,1.9588241790301621,0.34089498576994454,0.1843927156488449
11.532649226,-0.0706749090852429,0.9077435523233881,3.1576250255550775,2.126325128556267,0.30458101819707595,0.22279483649981963
11.632646682,-0.307750928861828,1.0576404739749503,3.067210975468117,2.4016847139326547,0.3020514652407387,0.23717004775711584
11.732698047,-0.5237244176360283,1.3018051023685069,3.0915076395437096,2.5838742223766022,0.34744234164154364,0.23834894010772908
11.832697892,-0.8389380381866992,1.5069065408387268,2.975048357350193,2.860669374883403,0.36685870863872805,0.22456450446094162
11.932689166,-1.1313982843011672,1.4933622261750998,3.009720021654361,3.068293917561677,0.39573565900627966,0.2143241035863909
12.032704746,-1.36675036554788,1.497296160895463,3.0524819991300585,3.315974411685834,0.41586773182206727,0.20582064316232354
12.132688673,-1.7068622650109035,1.3930746455022247,3.0892915025024332,3.5281332416804596,0.39899802950354574,0.20722825844917991
12.232705458,-1.9796094572446834,1.1870042504650724,3.1671935386553973,3.6827300156233598,0.3733840936519121,0.2072020717573184
12.332626071,-2.2807554068120335,1.0834029505577858,3.0786017426525776,3.9260371433301575,0.34589244011375914,0.21919364570512884
12.43270214,-2.4582885184405967,0.8466608330575449,3.1326920781975787,4.134195733419488,0.33157166484384587,0.22146661173163576
12.532672621,-2.541205460030504,0.5580309682773074,3.1343230360966876,4.407542733479996,0.30321526355807554,0.21604062957222486
12.632712897,-2.6930638990760345,0.2885232975467092,2.988531266661921,4.565114481144986,0.29702900041410335,0.2163095957309006
12.732726691,-2.6599137396619654,0.005505783294665879,2.955682207868729,4.825876450497681,0.2991697817543442,0.22231229305209899
12.832725734,-2.616073713043275,-0.27490936680897016,2.9581889842826015,5.053867312901154,0.278213680485667,0.2290027909543693
12.932640371,-2.4953905099052203,-0.6070490855312399,2.8351138723498583,5.279994850183108,0.27679003888284004,0.2371954756163506
13.032701267,-2.3432221769902375,-0.7986004833829041,2.787482596836597,5.521271356005866,0.30233243085392403,0.24258433648643327
13.132735948,-2.108685224385641,-0.9246986862698032,2.782645869814561,5.761236640834764,0.3128569482237162,0.24560915979590192
13.232736595,-1.8154442883291884,-1.0869677991832776,2.761320377264588,5.922200167816143,0.33572402421743996,0.24939548631209793
13.332640944,-1.5240271140429953,-1.1264295452411037,2.785346429249052,6.140287385580694,0.3767042787051986,0.25301390865711293
13.432726482,-1.2862624662314286,-1.1292021074482288,2.838487788568232,6.48876271626554,0.38478291515535,0.2481089495300056
13.532710006,-1.0463611680989462,-1.0064637824466716,2.8393734189038637,6.689574998181638,0.38739462796433966,0.24554243231941067
13.632709111,-0.7522315404535432,-0.8957543107514678,2.9228395372523277,6.929782090521678,0.37929114852679136,0.23634704410162813
13.732668964,-0.5360928872007223,-0.7208426162474184,2.8956624625999368,7.144186574603863,0.37745407031993766,0.23707789701097448
13.832699191,-0.3852830917493154,-0.5136188970936788,2.953981309452235,7.334382624091727,0.39350912314126013,0.1732052584927405
13.932701305,-0.23291123086964965,-0.23452489014650682,3.01342444178143,7.484452262895373,0.40090289120092487,0.08437515033831045
14.03273747,-0.13457734429628512,0.031921470138555494,3.1635071085883135,7.503028159712158,0.4048623639483136,-0.03799600613853507
14.132726557,0.013763675638908533,0.36832330219894105,3.1910958234747593,7.358917947628009,0.3681535320853478,-0.10842356975207641
14.232686806,0.15947080830774996,0.6085954764494564,3.178906046763062,7.180537071797477,0.34866768902809114,-0.1472669918281503
14.332748698,0.41607925848363286,0.809077724774422,3.129271893553307,7.011260119544445,0.3552168159354961,-0.1627460372011661
14.432692039,0.656362810697764,0.9707614195681471,3.096995375988048,6.74692667460377,0.3494204615628449,-0.16186151050172587
14.532721444,0.852356878321919,1.137266993031943,3.041169777374903,6.5599858383341285,0.3648159867268483,-0.15862997765284484
14.632723784,1.1977130393308117,1.2004413980047048,2.9925121912504973,6.290630583047202,0.3780398490388041,-0.1652477821420814
14.732644931,1.5445415759913583,1.217157496599922,3.01343941445197,6.081910307629132,0.3589327834865826,-0.16133786120627733
14.832701123,1.7021740739964686,1.0758441626049615,2.8984752616424103,5.903142160731924,0.35281598370984263,-0.17268363104963036
14.932701525,2.029943717564219,0.9827808703327507,2.8941217655476357,5.721220995039279,0.3530908899146441,-0.17713944504372425
15.032697327,2.2819469508143944,0.8134471466599491,2.845643854784075,5.550231159993125,0.3404811593720171,-0.1753601525435712
15.132640472,2.4615428211448043,0.5811735576498365,2.8209612468587664,5.2563551561518125,0.34209626496543244,-0.1873421049724873
15.23273626,2.5925411370721,0.3699898001672987,2.778427418319956,5.100290108453831,0.3492587351037111,-0.19669583985862002
15.332680852,2.603585700796789,0.09798806399931906,2.7567609544234553,4.824022962514524,0.3461957200295453,-0.19415509209174373
15.432728266,2.634343250621542,-0.2031246744815813,2.7422762102052944,4.591928025578523,0.3614679718133839,-0.20303942292144203
15.532723902,2.6100440899676345,-0.4495674561038229,2.690865894141767,4.340773988192301,0.3691742001626918,-0.2073173924453153
