time (sec),x position (m),y position (m),forward velocity (m/s),"heading angle (rad), from x-axis, positive is CCW",throttle (unitless; -1 to 1),steering angle (unitless; -1 to 1)
0.132221105,0.13089388041832387,0.25258122300798713,-0.0034478252460398255,1.5359091270687484,0.1375716961739857,-0.023260358295963988
0.232213512,0.1696467687208323,0.18778412677361347,0.0012041426525357859,1.511432430475356,0.75,-0.11993242595684243
0.33222353600000004,0.20212131912923048,0.2503447013711335,0.013701702380424202,1.536253483661236,0.75,-0.17582934779359424
0.432213614,0.11739136518016093,0.23010420380004679,0.8607722983946766,1.4713630962135211,0.75,-0.2556690080156661
0.532215834,0.22666231339607318,0.3603044669734581,1.6434854076087806,1.2721559328616001,0.75,-0.3116353994890933
0.6322122440000001,0.3989151121410949,0.5258349219160751,2.3043571374618543,1.0401143427425343,0.75,-0.32797978303341674
0.732214421,0.525758887093275,0.7548398153819686,2.637429937704042,0.7173871607726456,0.6337613909555002,-0.3187174618097832
0.8322163100000001,0.6836140206481137,0.9318290504825217,2.7251196935752082,0.4619812658324267,0.4773598003579654,-0.3034592387749289
0.932215479,0.9697145127604284,0.9553633971126424,2.7411508510438978,0.15741851452283306,0.41617548912857144,-0.2827653819554308
1.032218594,1.2616491977458841,0.9724985366040502,2.7045616216993285,-0.03164070834851728,0.40943205775339364,-0.2616647070606155
1.132221046,1.47342443866129,0.929935917459199,2.7170010531933175,-0.3143903135108467,0.4227044119670413,-0.24819194540568693
1.232270011,1.6841159685694471,0.7393689592319501,2.677300199741798,-0.5859290081546966,0.3955785092242848,-0.23689423169742008
1.332211641,1.9165170429916771,0.6162683283395619,2.6569232684265,-0.8529694271948908,0.37377676298688417,-0.22401122546517946
1.432275392,2.1041901208603644,0.4306055148482082,2.685301860440964,-1.1302781254726344,0.3738276397811625,-0.21434548008285892
1.532211562,2.1166029680650875,0.1471632966763846,2.6599116432112404,-1.3040111317549838,0.34338542895269664,-0.21675234851833552
1.632215626,2.1541089347106537,-0.0911417921065407,2.6416064898820797,-1.5555334815663355,0.33871663368763977,-0.2167396778863484
1.732232516,2.1933652493303315,-0.38918756573761226,2.565101461781296,-1.7348097247702523,0.360550620425084,-0.2217788058192038
1.832211943,2.13620584746909,-0.623892958642772,2.572234529902358,-1.9939345447801888,0.33846948283301026,-0.22422633634691655
1.932220641,2.0304102516396534,-0.8206313402118847,2.485702386257805,-2.2805057997553653,0.3345820070665635,-0.22708226212905203
2.032217939,1.800145774202192,-1.0698560374719972,2.5545889961027752,-2.421437785967718,0.3522270262975211,-0.22740049011507243
2.132212314,1.6168768488827197,-1.1989341237471631,2.5222021663711165,-2.655269716415856,0.3513924298105096,-0.23762021456215351
2.23222144,1.3469644201243711,-1.2332113692057147,2.538288392689279,-2.9587815037266463,0.3564216649656742,-0.23498213355327988
2.3322107340000002,1.1113195666046884,-1.2275055444373928,2.586785429750404,-3.1681311457150203,0.3758621469517351,-0.23237047840440758
2.432239886,0.8334200692214113,-1.2321235459418916,2.5620006339095407,-3.363184384461328,0.3776987677618792,-0.2397504082959183
2.53222229,0.5569281085085326,-1.130614597331484,2.5839180344205035,-3.6026995367797148,0.3761103564699075,-0.23164814662122407
2.6322133770000002,0.34891440906508486,-0.9571856004945132,2.6182732663786115,-3.8773957814193003,0.3931660012075885,-0.2323666112265079
2.73221338,0.2565831437502757,-0.776379439213717,2.5976764304573305,-4.11364341107664,0.402301376889327,-0.22989475245427854
2.8322216620000003,0.05177329006362366,-0.5111090784808187,2.747443357535688,-4.332741079256807,0.4157135987070113,-0.16074098861778796
2.932212658,0.010007216583551177,-0.3228266221230079,2.802951417827357,-4.445169433597016,0.3992086954700691,-0.06906579566815285
3.032220031,-0.054603268908481745,0.03634989200739604,2.8909237473915206,-4.487981538046971,0.36614771175795924,0.06280307180900793
3.132244605,-0.14562148579593298,0.25641588343121735,3.0057029486032345,-4.364471955804274,0.31780378093128653,0.14828362255643474
3.232218645,-0.29375631960846615,0.5741543723580919,2.9877639864797523,-4.147171254225879,0.29594103322897797,0.19275002843605193
3.332212259,-0.43330760250496897,0.7733441413304074,2.971357891984019,-3.949644051735905,0.30529309837536234,0.22272285604298017
3.432218946,-0.6779494565101949,1.0204501306844578,2.9576170022414945,-3.7816780614915535,0.2872868789241999,0.22915490136977099
3.532219334,-0.9545900637574283,1.2272009996300721,2.839617112464215,-3.506966163419179,0.2973690612214972,0.22656412697224368
3.632214342,-1.2362994901122804,1.2063184448818673,2.886933773233341,-3.2519055073754775,0.340244572994287,0.22256504421564008
3.732268613,-1.5604384572313716,1.1919220208312995,2.832850821233479,-3.0424099264693085,0.3322845717494069,0.20990043941029835
3.832222138,-1.8206642414322365,1.185973159756941,2.7654247349970107,-2.7265167518271394,0.33293299554478173,0.19782591216964848
3.932212515,-2.0217577231981445,1.0137524352736111,2.8031474464235955,-2.542485240679592,0.3453992570746317,0.19236187661761395
4.032219982,-2.264745721009828,0.8382683570843957,2.851464634182499,-2.3453703611972254,0.33358323676070745,0.20195443716028302
4.13222727,-2.4570989009744664,0.544754701526395,2.862469422445412,-2.0817798232031475,0.3137900940672872,0.20787711355887448
4.232212832,-2.577721827026445,0.3243120215691181,2.852270601731101,-1.946171356315092,0.33871954775751006,0.2198394660120254
4.332258983,-2.686789266652642,0.0777487707431283,2.7916400800039396,-1.621519213840921,0.3085423949393693,0.21966011257365856
4.432212413,-2.582623302563172,-0.2134495103580759,2.848523611178426,-1.4771637906918555,0.30621818733293404,0.22186646512627115
4.532212685,-2.5509807666570707,-0.49903184535197703,2.816678241948454,-1.1732763175037093,0.33161416078544886,0.2281523145070131
4.632214681,-2.4023971594863696,-0.7503090999987689,2.772931562911324,-0.9797365879777423,0.3216806910223757,0.22107529918468902
4.732215781,-2.2506883459211555,-0.9108250632110824,2.739207878237716,-0.7271348155663105,0.3309023078023951,0.21188715503650632
4.832219171,-2.060139447091188,-1.1512922209719676,2.7529414816890854,-0.5056970369554694,0.3384290799167468,0.21013590769340226
4.932216713,-1.7901004935470963,-1.176387230405656,2.789488463566642,-0.319186992412686,0.34610842812093706,0.2161305431277632
5.032216252,-1.5283653070076435,-1.3050035547155772,2.8181023243193977,-0.026595329451389566,0.3336877876385938,0.21983875389758115
5.132213407,-1.1975127471016072,-1.2360827011864022,2.8146604603191725,0.1871274472681277,0.32547239252311666,0.2169440314110416
5.232214583,-0.9457683956951347,-1.1554773168705348,2.8491571629809327,0.43862816327528203,0.3442251721778449,0.22229429768752074
5.332264743,-0.7256277687280521,-1.0115326932380635,2.7776040974054257,0.6438319380853453,0.3361417906829143,0.21814376358202214
5.432211855,-0.4496478850598001,-0.8533133483672655,2.771739002439068,0.8511394099531012,0.3409220642703713,0.2085287073053572
5.532224884,-0.3454348488867474,-0.6042373578273175,2.82224200280717,1.0730080551153343,0.35480589141884467,0.21986803581948197
5.632214158,-0.20070093538093292,-0.3756507752877846,2.8082378591925963,1.3205115931324696,0.36172135371445213,0.10913286221200935
5.732216151,-0.16282047030456195,-0.059951251138110305,2.8839128723626666,1.3441170180882416,0.35205655489140586,-0.008456846399370587
5.832217761,-0.026621408080930685,0.1890667522451902,2.9724870141804476,1.1742295284531026,0.357354691413449,-0.10949027901480708
5.932217468,0.06177465651662399,0.455081035644094,3.0049771336672113,1.0989467531214328,0.3204842767008168,-0.16319897388896318
6.032214171,0.24996543053450385,0.7197746720835503,2.96740884017447,0.9341842537215497,0.31541050320673414,-0.18358848015948653
6.132214993,0.4176609906836426,0.9331981668512629,2.906006487829973,0.7216638085567864,0.337735501166681,-0.21168252154912948
6.232271974,0.6603686460022993,1.1203439042055117,2.819451082357141,0.4745506985828071,0.3386751298787573,-0.21481810095972168
6.332203216,0.9501738625679076,1.2011283660779457,2.762010012179748,0.18481559797084404,0.34585285508320274,-0.21225487289438416
6.432225597,1.193199883106717,1.2354444728906555,2.7889252843360866,0.01016510012019703,0.3708785892127408,-0.2052406471543488
6.532219896,1.4435594830267753,1.171044838317247,2.7904071108607194,-0.20062514096168815,0.3678143031680216,-0.20602835357910065
6.63221461,1.7255816044824883,1.063323573300506,2.7805257554090765,-0.49297306345180847,0.3599067314383335,-0.20488512222060276
6.732215854,2.009211735285923,0.9631882300933169,2.7687751105697305,-0.6538097922442222,0.36896702472427506,-0.20656022524162723
6.832212179,2.1637944685736907,0.7430552459122204,2.7599866146180045,-0.8807263291702634,0.3613786291973652,-0.21253990799330938
6.932218667,2.3255374311158272,0.5695044552218708,2.819461291191079,-1.1272667686430198,0.34930908792245935,-0.2146993720528899
7.032215959,2.413642205597488,0.2594935729784658,2.696018960574466,-1.3902058028721476,0.35047344265763775,-0.2098989896121016
7.132211512,2.4538072656843837,-0.022425427527819862,2.70002469651398,-1.5819962571033392,0.3488580077168929,-0.21985449551749517
7.232214428,2.4419607937068273,-0.287941297973813,2.666945722573015,-1.7347443058978387,0.3429647264699565,-0.22111257284705543
7.332212208,2.3296127325205096,-0.5313939903474769,2.677737674597761,-1.985895910754498,0.34244770547887604,-0.22786701358222827
7.432215157,2.1985169409191063,-0.7574541231122532,2.6320237607385093,-2.274467315659944,0.3657804259015328,-0.23022795102035076
7.532219642,2.001035100347132,-0.9496003257984164,2.674895855194966,-2.502021944008086,0.3547607938133001,-0.2292229627022004
7.632239581,1.8002456818685417,-1.0944343636383385,2.6122196429718887,-2.690804632976195,0.3559642422155831,-0.227694135539907
7.732225979,1.5596105155763813,-1.1341586559840853,2.650668735762416,-2.9472568186315544,0.36750648363128224,-0.23393406762371938
7.832216442,1.281977645789583,-1.1562030725995647,2.647325925802041,-3.1553835278203297,0.358308394544268,-0.2292826174640395
7.932243397,1.0150393667288495,-1.1055806818969567,2.582150868616299,-3.384616283295398,0.3670195186036055,-0.22971834144157524
8.032221845,0.7686955096310781,-0.9970208379956601,2.6295044587992464,-3.60120586769896,0.3794852998755433,-0.23375534513542065
8.132215538,0.5605757042638775,-0.8306724836392896,2.700995820372841,-3.831796272193022,0.37483055188402237,-0.2298273789972983
8.232214145,0.3855020019700943,-0.6440287270797056,2.644811327323314,-4.0531383186204275,0.3803934656792214,-0.22088055792861386
8.33221677,0.2625297288533872,-0.5083663887113745,2.6705180469507153,-4.292878721964207,0.3930792442002432,-0.2024139787497177
8.432215448000001,0.15081758038263565,-0.19928051014468903,2.816613210977701,-4.413070314666974,0.40763459801907675,-0.0551090772279148
8.532224051,0.05843767957658301,0.0712444513686257,2.9791915144484853,-4.430719310289028,0.3706066798353926,0.062018670142067876
8.632273803,-0.0369863344070299,0.36975034993784367,3.0506293081231783,-4.359297423444987,0.3338660400378909,0.13680688106538405
8.732212812,-0.193171721045355,0.5250438440608627,2.997884306853692,-4.130713608440585,0.3096812098284333,0.18924787848391167
8.832212225,-0.3657319776593875,0.841954000015175,2.974064360833321,-3.860073624279841,0.3005499000307553,0.21032364930359515
8.932214177,-0.5669972340236579,1.0442296579343344,2.943818987569241,-3.673417350339838,0.3032327224919066,0.21278580743634548
9.032215978,-0.8573992061176325,1.146847978431345,2.8790108799435976,-3.4804695674090778,0.3225503853104411,0.2100333670416117
9.132220344,-1.1058655501314354,1.161629502001618,2.841650889798787,-3.2513308208344336,0.3244851865488871,0.19756646163027075
9.232222647,-1.4215472440971293,1.209208195478925,2.918192490084519,-3.0313741058905808,0.336397464002621,0.1942822158939953
9.332213733,-1.7425985270705795,1.117644918129048,2.903959064583096,-2.785968129556123,0.342994682546781,0.19737414311498916
9.432216959,-1.9570439717365613,0.9762329226689831,2.9090716642635805,-2.542042373379021,0.31912140812279655,0.19720098050310086
9.532220513,-2.1522000702600987,0.8230938783146434,2.8781643431004826,-2.334707376547474,0.36608711212659967,0.19509854091786097
9.632216028,-2.333962605655709,0.5698789615724501,2.9100758716355797,-2.0790337153144156,0.3198274178532211,0.1983019848668279
9.732221404,-2.491600594015306,0.4101844462103015,2.92381098931732,-1.8633561831446337,0.28572881512770837,0.19639387896204136
9.832219338,-2.558695551720647,0.013318872501734406,2.8523679978491012,-1.656111608418053,0.27261040787527835,0.2040003165486371
9.932213766,-2.541075404661117,-0.285815664890669,2.8045714401551125,-1.4464095094268838,0.2773816915212187,0.21065457916844138
10.032288832,-2.548616397356727,-0.5574290656824732,2.8671787696944553,-1.2052926091363814,0.2861808020259188,0.2115738664849527
10.132214643,-2.30606136876656,-0.8418563286717635,2.7984840403785833,-0.9823987419305865,0.29660006161444247,0.2117067353493816
10.23221589,-2.098211941096029,-0.9677153027637654,2.7857537036514604,-0.7352939789536392,0.32629029273527704,0.20263156675418437
10.332214065,-1.9056966472518084,-1.1659861012213624,2.7003591703163248,-0.5160330754808745,0.3197062686088274,0.21142680332693561
10.432221256,-1.6606771153782145,-1.2701898675288912,2.7789397246632785,-0.23127980588762043,0.32028824949064316,0.21429086453525698
10.532301398,-1.3750719180882067,-1.2364759861566126,2.7800439434948663,-0.05266783780989976,0.3244754385073596,0.2155505163232289
10.632223609,-1.1057146002911247,-1.3103598744619032,2.7333609164135266,0.1746445237996893,0.3303395182574563,0.21768664570827465
10.732211799,-0.8470966380016469,-1.1336012435199707,2.74541859505764,0.4111182654086753,0.33013825671568653,0.21015495636140047
10.832218154,-0.5759095915100765,-1.0048489967185792,2.7487111619791964,0.6050389014711458,0.3300319746956659,0.214045751488852
10.932269025,-0.394337199695425,-0.915952236249168,2.827087331850307,0.8751458117950566,0.3429874250414923,0.21746522022860879
11.032213003,-0.22073272829244633,-0.6776212707694542,2.8169989049366246,1.1389561430397759,0.3349963913125986,0.20245252474565736
11.132220428,-0.10092601675646483,-0.36095397101565074,2.8686886366966786,1.3164585636889614,0.34466780009576103,0.12094082987009674
11.232214725,-0.049812158815809235,-0.07154546160466009,2.8858391998739954,1.3435546904933615,0.3649843728996761,-0.024167333695895497
11.33228441,0.05387904770902836,0.22567501457898662,2.9100925714881067,1.1935547540022424,0.3363059280400515,-0.12260607918828517
11.432274983,0.10433475338301114,0.4695826352732214,3.0078691441113277,1.0855042236394679,0.31454978700239067,-0.17377452577862548
11.532283434,0.23233094005984511,0.7514384496722377,2.8960649619625336,0.9065326365049682,0.33621032368535475,-0.2070493435606245
11.632215617,0.4737527146669865,0.9710335665530692,2.9338315774246815,0.703637348429163,0.32522247484893047,-0.2150825152662497
11.732217588,0.7149857560535215,1.0920884640017583,2.8371396982487527,0.4204688810935357,0.34234090128138944,-0.2130385231564573
11.832215921,0.9664196980169023,1.2437745651538754,2.7721884915778343,0.18096820058144672,0.3664876713973769,-0.20753864566044208
11.932214614,1.2747682007647345,1.2320629394934186,2.8162493207184722,-0.015049053070563654,0.37439328274531747,-0.2043526833937059
12.032216521,1.4624586126640924,1.1391344860673647,2.789495249442862,-0.2008996542158874,0.37076435694545845,-0.2010275881457979
12.132220381,1.79919498740147,1.1294124665045389,2.8115219283629727,-0.43216038684056884,0.37063511634490354,-0.20133811495231796
12.232218854,1.988662791013963,1.0054715126161051,2.773314952454582,-0.5921849900793883,0.36892290288327156,-0.21238064260524223
12.332219484,2.2286064177439715,0.7398755694905298,2.7345295920788018,-0.8825705206789499,0.35206104378904896,-0.21295999491953765
12.432222832,2.3706192563242907,0.4629994683341734,2.7130576443464016,-1.1009277381326867,0.36274491685695953,-0.21030245080585536
12.53221978,2.459426028876549,0.29136295740751306,2.6989248627667592,-1.3008419467852108,0.35920418528913595,-0.22068143862886994
12.632222878,2.514298811104763,0.01689068189016599,2.647898366429346,-1.579788959097361,0.345989758547192,-0.22223656836121655
12.732215237,2.472043088340971,-0.32820037594967183,2.692772910993394,-1.7024656121933652,0.35321446540870244,-0.2201430226245166
12.832220798,2.3590939641030158,-0.559210914222117,2.723262311377073,-2.003236503922234,0.36050442228655644,-0.2300165537019559
12.932216363,2.2465610575273827,-0.7393118051658281,2.63260805221357,-2.243544237219722,0.3530880812410901,-0.23136334019782234
13.032215039,2.0536941248429113,-0.872708656892798,2.6808114989750025,-2.465738673556026,0.35925841563164507,-0.22770484328901094
13.132220062,1.8493917007421357,-1.0407706192750783,2.6891350321611864,-2.679194705069426,0.37469691603328836,-0.23410684654961314
13.232261449,1.6367121708666112,-1.1749842942060487,2.659388766297011,-2.9543819173524355,0.35669670962143984,-0.23285764118073757
13.332217993,1.2921010994528692,-1.2364609010286534,2.686001386881071,-3.140227721398884,0.36470316966632477,-0.228969448743752
13.432221552,1.077527299506501,-1.1585066237550627,2.6692321921565787,-3.3743990259680894,0.38631742985785583,-0.23421707966062413
13.532221845,0.7842158300739336,-1.0257786437527274,2.7315100767742204,-3.618263375286548,0.3689932940603369,-0.23233721803987237
13.63221534,0.6340478530243672,-0.9441589392500158,2.6844647605113896,-3.868804384077034,0.3663953870396494,-0.23157136344719476
13.732213203,0.42494491234320647,-0.7130853057676113,2.735403766781211,-4.038776157160345,0.3986993479631487,-0.23486225854846782
13.832261102,0.26581194807148795,-0.47101416493025383,2.7233149950317035,-4.316675951347304,0.39934189978926327,-0.18094518739684703
13.932220053,0.17044409406548652,-0.23216111599943187,2.8591993774708513,-4.415661943904887,0.39343183897264816,-0.07189131750509464
14.032265701,0.0843028818833461,0.007268774778159848,2.9528949748538307,-4.40890167751784,0.3752694141364536,0.05019951577394094
14.132216601,-0.04050216328222542,0.30855635841994455,2.9609036370535735,-4.291481201250051,0.32888932926183584,0.1355009553901398
14.232287636,-0.17810108449613749,0.5638278996398531,3.0648406530921113,-4.156894939971146,0.29516029642661135,0.18588818105461966
14.332215388,-0.37628900690028105,0.8180308402591278,2.985011827228405,-4.0316228420112425,0.3070254604453303,0.21045865961819546
14.432274535,-0.5282010420140364,1.020995858589158,2.9845783896079334,-3.708160213537672,0.3036440796911413,0.22031774802834891
14.532219374,-0.8480787294710729,1.2004674531789945,2.8676754425944093,-3.4345878811523707,0.30801187491346493,0.2133885968640375
14.632214202,-1.1314081204997308,1.2436142950888411,2.8458488149284253,-3.2592275314521015,0.33258416357579,0.20240759775666803
14.732219601,-1.4187807708961728,1.256911218032696,2.847577744332317,-2.9891365746421052,0.34914239858876844,0.19752400130215417
14.832219806,-1.703902122500171,1.0846683910518846,2.8947096915232295,-2.7683798282075527,0.3317202855896167,0.19081515587316442
14.932257645,-2.0050368591668266,1.00602348560839,2.8768851660963217,-2.5805998168204907,0.32361685030812515,0.19572818775432518
15.032220159,-2.198771613311972,0.8397636857059384,2.8833448757183677,-2.3471798362749325,0.3241994664119701,0.200807002924748
15.132217301,-2.389838972485225,0.6493590597755605,2.888328256718945,-2.103843286838247,0.3099543596222695,0.19963584535849213
15.23221631,-2.4617969428910436,0.3266459644240611,2.8853620886953073,-1.8861411820354443,0.30154802904895117,0.20243088375682683
15.332215191,-2.5362663359420967,0.053134559078009395,2.869407978896615,-1.6492192124761214,0.3137646373526396,0.21066266533062256
