time (sec),x position (m),y position (m),forward velocity (m/s),"heading angle (rad), from x-axis, positive is CCW",throttle (unitless; -1 to 1),steering angle (unitless; -1 to 1)
1.002815778,2.0017598795681284,-1.0269273963098513,3.1486574148218476,-2.9326147187239178,0.4953424937258652,-0.20902502590320132
1.042754011,1.8753013256034239,-1.0664925384607034,3.1649381818817575,-3.033075231114891,0.45302287700696425,-0.2047186146720272
1.082741885,1.7758996905244175,-1.059273485331739,3.1249322106467896,-3.0875404066642136,0.42483254327592973,-0.205690959472055
1.122793033,1.6073394183950975,-1.0801408262544343,3.135704989652926,-3.1910169841383316,0.40240813970286354,-0.20619452714280478
1.162748402,1.4846416557244753,-1.0251249574537507,3.093785280944423,-3.3046155487229423,0.4113667931742919,-0.20673420429838438
1.202797987,1.3782724971815714,-1.0291968133639757,3.0940059153950563,-3.3768138423285476,0.36986766403341564,-0.2029122208129327
1.242753048,1.29020273971857,-0.9905589350812155,3.0509824165121344,-3.503982679434842,0.35628823615451477,-0.20205158202812162
1.2827927080000001,1.112522062135618,-0.9752878709782831,3.028887413039738,-3.5983230742226455,0.3564597042279532,-0.20328690270078797
1.3227514390000001,1.0505049104327806,-0.9113565486211468,2.975084217733397,-3.6832129249229566,0.35604475798170443,-0.2010428768833822
1.362747643,0.9687335494206702,-0.8281233607155142,2.9537547680301515,-3.7431180452542447,0.34533100845319686,-0.2034986473715724
1.402808178,0.8557044403789557,-0.7461229594112628,2.9315818278656405,-3.8593228562485766,0.35110026813371764,-0.20717022869686225
1.442756517,0.743212292601238,-0.7107820491041138,2.9249027547986564,-3.949115244997692,0.37132947689515466,-0.21100561053082736
1.48274111,0.6924093018289863,-0.6571823640495178,2.91709495479291,-4.055186537551248,0.41188837344834933,-0.19380711404991852
1.522753991,0.6229374527399141,-0.5118608916558246,2.9329453079600407,-4.120912099331011,0.46045927617993493,-0.1611354285448506
1.562746551,0.544239838483429,-0.41811359531800146,3.061617870557533,-4.215027639837771,0.4985051493234779,-0.12914082152774853
1.6027893149999999,0.473690603623585,-0.30332138945684484,3.065763953249219,-4.256594780036949,0.5318348645549461,-0.09520001139701986
1.6427509869999999,0.42734332500636407,-0.20957698654969897,3.1692557645910346,-4.265056256249565,0.525655250874329,-0.058197072873325185
1.6827451180000002,0.36875224056762856,-0.09952499899535935,3.2350948450392045,-4.325917654862811,0.534001985503949,-0.015838160881218546
1.722751266,0.3227569844347549,0.06448503575032895,3.3571865414718665,-4.304084043203346,0.5463139360763564,0.01962009536316057
1.7627496599999999,0.26816565330868986,0.13516308887312567,3.397569294117156,-4.311815534065443,0.5152534652052557,0.045265036026160076
1.802794312,0.23033943766173337,0.2724818235879698,3.436722917036671,-4.255706618825722,0.4762708284216607,0.0715453038145643
1.84276152,0.1668634470599478,0.4214554704631012,3.4932283217319156,-4.243490499536621,0.4483749880836012,0.0931341267779552
1.882808011,0.11004659182408162,0.551699946427145,3.5592204124232065,-4.2397105528999655,0.42806921222404337,0.11088370093860989
1.922740981,-0.04359043756303352,0.7039097797025903,3.580293030919374,-4.177752451147001,0.38030853357170114,0.12925037113395157
1.9627576850000001,-0.06239578444075508,0.7584217891669831,3.599520964134215,-4.140733088142466,0.3554161199322604,0.14561128531050782
2.002799812,-0.1827524770437216,0.9108929910089171,3.5357513304307204,-4.068843806794752,0.33636681681570463,0.15882261881572335
2.04276,-0.23214351620193258,1.0365670044344526,3.5403994643012506,-3.9571489162080877,0.3114697205393876,0.16991466051622686
2.082794583,-0.3400085985570364,1.1153637273095462,3.524800490088049,-3.896082568510633,0.3023508105688782,0.1797942953162622
2.122752986,-0.46247785125678903,1.1635707922360763,3.525055398447311,-3.781884562068416,0.29747551598536354,0.18713470095060084
2.162752416,-0.5753249625610325,1.2715430130608947,3.4465215042448385,-3.7183135929546425,0.3090938085530605,0.1919516117018524
2.202741702,-0.6577477541097589,1.391860066666611,3.466238567773672,-3.616968790208793,0.30682062887143535,0.19294715774630516
2.242752083,-0.7985056286816995,1.414287495230636,3.372095937560764,-3.5257872434910222,0.31068241835401855,0.1943842255918478
2.282739862,-0.9031065462846163,1.4949750289316215,3.3676375679371566,-3.459252429682615,0.33264793992682523,0.19409350125526859
2.322753711,-1.067779600273136,1.5245361941515576,3.3117778834610445,-3.3612466014587574,0.3677096109987004,0.19560824730182155
2.362753,-1.1554231417232856,1.5726603821156326,3.3086125507287254,-3.2887966138921585,0.3734058930374662,0.19401363179896366
2.402822492,-1.287719363119408,1.5605895263799214,3.3164468745397455,-3.190749946580308,0.38935341787399336,0.19509358241670471
2.442763594,-1.3851724124588467,1.6128760984172843,3.3049406411385602,-3.1227813727184035,0.40835333757287673,0.19701761991865774
2.482740281,-1.5683590289731413,1.5631451948369184,3.3294662037094986,-3.043603269651303,0.4338331456328369,0.19494515435718077
2.522748267,-1.7136178848979835,1.5381695646956597,3.286900122068627,-2.945927948313079,0.41560227124107246,0.19834486212571661
2.562747936,-1.8224750675489019,1.5668864995282326,3.2830671752486196,-2.8373305382653595,0.4199335082999846,0.2011176213390353
2.602738498,-1.9583619953984475,1.5042928687791342,3.296584677613094,-2.7404186836996827,0.4440914806983493,0.20365723835613245
2.6427488290000003,-2.0693367659822823,1.4514031202363271,3.322119077548922,-2.673888633987953,0.44284813527179956,0.19871604124098963
2.682740596,-2.1949559632880753,1.3512489284902702,3.3157168121368694,-2.5534491617845627,0.4292379160727647,0.19906319964631697
2.722751959,-2.2738897993488023,1.2993226727584886,3.320534831179522,-2.5147658086976845,0.43890059008653215,0.20034437890219786
2.7627478,-2.4086239935211884,1.2111551519710297,3.2983034954258392,-2.441075273524005,0.4566202127916697,0.20402096109635853
2.802748893,-2.510142692460603,1.1267030816864854,3.3437204206650444,-2.3590817042612233,0.44205402211083916,0.20287115930560895
2.842765002,-2.5945165297798147,1.0823806481618177,3.325310478128878,-2.261440460280372,0.43029750478920564,0.20517516089875362
2.882742371,-2.6501814697757324,0.9420619960694644,3.3420327181044143,-2.199925164849682,0.43017413212875766,0.2088688126440296
2.9227456810000003,-2.7563349278484384,0.811464223704213,3.364485054842091,-2.057205546816815,0.44731579679419575,0.2102071260894802
2.962841,-2.8177826421099694,0.7162538545433295,3.3419020256207586,-1.9966868458864286,0.4055799459419786,0.20436196452935965
3.002811757,-2.8821562214560394,0.579539554273565,3.335659218314008,-1.9111718162581617,0.4026503895921776,0.20539834820742708
3.042754051,-2.869321291960338,0.4589766010091941,3.319487053602555,-1.8290434257892738,0.3825932180956195,0.20420119655069732
3.082740507,-2.941144223545919,0.3260248765972717,3.3336428865871435,-1.6752247757997034,0.3683454021057812,0.2086619439767009
3.122745715,-2.950492950727843,0.2159626978633177,3.286350328209788,-1.6144095693886371,0.3474363276541787,0.2047896474824699
3.162748955,-2.9410814548221174,0.047128521732237666,3.2568953412411905,-1.5629968993062127,0.35015374358586254,0.2032347239190662
3.202745946,-2.960968481598173,-0.059406243226295855,3.2716569132316398,-1.412692878365073,0.34126739841498677,0.20138247855557262
3.242751216,-3.0043959844064836,-0.20749812394756617,3.2202034821168004,-1.2974923095597073,0.3315979158722735,0.20546035466174958
3.2827424179999998,-2.8887348307941227,-0.2909125413804091,3.1852329594822866,-1.2828981411720628,0.318417809169165,0.20663213964486163
3.322762674,-2.8639309898677974,-0.47348252368851046,3.16987819550308,-1.196649072123265,0.3125551250230177,0.20795008152874664
3.362807944,-2.85477434311126,-0.5914738412619818,3.1460346225941915,-1.0986785090897133,0.31756361312511056,0.21363956732865047
3.402742145,-2.8056933946309592,-0.6772217207198284,3.0945096854652228,-0.9645542880840862,0.30978929053176274,0.21718062519195722
3.442752555,-2.7380013885377896,-0.780239663495125,3.125944933645276,-0.9251778166909792,0.31366769525277094,0.21975168735339343
3.482738988,-2.6729749695400034,-0.8738741431140816,3.0531940956530437,-0.8135720413428266,0.3249181100377531,0.22198247290185852
3.522744997,-2.567371690388663,-0.9784891373129655,2.989546658366803,-0.7061900641217076,0.3375617008998835,0.21611625242993648
3.562745093,-2.457814996743102,-1.0455531919045777,3.026673956323255,-0.6600541163836302,0.33704930724563636,0.22054951244975948
3.602823147,-2.3636401719238673,-1.1001891806072372,2.9797836512370584,-0.5439790588225022,0.35881950564992243,0.22712260976597287
3.642750876,-2.2567998369310027,-1.1680888052073695,3.014303699508144,-0.4877867523508344,0.3955681257700293,0.233420464296622
3.682819957,-2.132680671041933,-1.2718587898212885,2.998468906280408,-0.40199606115025965,0.39293302180184836,0.23722376950957563
3.722784711,-2.0894816583867906,-1.2666692255787277,3.018544837814011,-0.27334679859485383,0.405813504781011,0.2402526723965196
3.762751446,-1.9238519842380448,-1.2834230757503702,3.0491984727290795,-0.19565326213216822,0.42044321080905767,0.24253596058489255
3.8028100680000003,-1.8311961340999334,-1.2991196852785034,3.0472656021531797,-0.11299699296586904,0.45074434096673344,0.2364391394647117
3.842753242,-1.7085004714776677,-1.314464362546504,3.047960304973018,0.0011533212017673256,0.4358258756650569,0.236426696734357
3.882784174,-1.577355217176496,-1.3404657336163726,3.1104063280346352,0.08768783439121232,0.4472853859831366,0.23700922672705663
3.922749528,-1.459811940685267,-1.310218490597673,3.1329870363483168,0.18262269501059064,0.4656011288444462,0.2385898837762856
3.96274872,-1.3069967938635496,-1.26044503592068,3.100283658452315,0.24563696647880529,0.4672540903416758,0.2392683659086408
4.002814626,-1.188062425386366,-1.1975948145701703,3.184606035911137,0.37215051317681247,0.45631890183783935,0.23663837536263208
4.042753557,-1.039794070546088,-1.2078347937048155,3.178826784711639,0.45229913149281814,0.4587947591203381,0.23332169274355816
4.082742679,-0.9578587842705365,-1.1151377000836455,3.191470081229971,0.5527547005239678,0.4802336706915516,0.22996061890178782
4.122749585,-0.8584013234568965,-1.070433714199947,3.22657440291954,0.6347827684173143,0.45753619959013786,0.22662727513952344
4.162747823,-0.7443120334959415,-0.9869923443472749,3.1797337029705868,0.7727235397079584,0.4600546301528774,0.22453762191743126
4.20282255,-0.6240683562947055,-0.9224901877422208,3.2460844702920824,0.8128068322056005,0.4603830533851382,0.22086238896421223
4.242752902,-0.5597376279918818,-0.8101813526376889,3.2252131882212933,0.8647153989567093,0.4821000569751662,0.2048133996543244
4.282740057,-0.49535880642236063,-0.7060134544151524,3.3103358480066287,0.9593107591854034,0.5090865773749705,0.16702379313402285
4.322748074,-0.425980115738478,-0.5895469626353148,3.305905808527499,1.0573158393105593,0.5358987281266008,0.1279582183595085
4.362749932,-0.36613463815657826,-0.4941311582913918,3.4148588465539254,1.1076727530691681,0.562228311370139,0.089748600367698
4.402811273,-0.2904597654290498,-0.3573073631764371,3.44719688720918,1.1104550135212545,0.550666046704493,0.04958102961637558
4.442749013,-0.2695407629346232,-0.23804590604773299,3.5065301954626107,1.1398253487220518,0.5519266960491893,0.0073322860304756675
4.482790655,-0.21025414592279396,-0.07142993726687022,3.6183513597756076,1.1548218830012442,0.5518797364807384,-0.027409784265379638
4.522749835,-0.07056369528434729,0.04131880000674469,3.633852131389315,1.077261846193027,0.5315290234574661,-0.04473289234355962
4.5627464710000005,-0.040174254202019116,0.14979146090539092,3.6910280513511404,1.060478876019111,0.492574530859263,-0.06731157452530362
4.60275234,0.06663279272415985,0.294323556148123,3.6962990694401388,1.0518232115420632,0.46914742127407516,-0.08685551817300928
4.642763075,0.08587328221693834,0.4289049403263858,3.7411626741372426,1.0016433052645157,0.45859141952092586,-0.10253552430342341
4.682745409,0.19891676339926215,0.5530696110784395,3.7737767908291024,0.9039282429833307,0.41699143522281956,-0.11258407928649491
4.722740312,0.29667836935687375,0.6594738599551373,3.7026112659539265,0.799344813886473,0.3856763067332853,-0.11965934074157401
4.762749803,0.4044262049409221,0.7821997976389182,3.6891589060121626,0.7191480732133242,0.38253609829503127,-0.12489754028077787
4.802825595,0.52405157298755,0.8884526667467701,3.6776339769998923,0.711952784349826,0.3721464854521578,-0.12618372905939804
4.842763373,0.6175982735069386,0.9596953998424403,3.617337438951389,0.6162697699904692,0.35489135388518406,-0.12962757393978236
4.882799819,0.6885450581551297,1.0277279199147544,3.60136286865484,0.5294872663508471,0.3468469711759461,-0.13155525167921264
4.922745437,0.8680677551900429,1.1375514422252706,3.5419584898703977,0.4818881498936672,0.3506125705970202,-0.13263200478255543
4.962746038,0.9803729977395567,1.1988771926012805,3.5055205934297002,0.3641086225467323,0.33686732380669376,-0.129279681658824
5.002812135,1.0841193541308254,1.242963421040791,3.433753021095918,0.2731140744576461,0.3253441570142105,-0.13173158648398342
5.042744865,1.2184816866373138,1.223749774259926,3.4687883387960072,0.2126110667757978,0.31458642569052214,-0.1344086733415318
5.082739221,1.363196510589346,1.3097849619774484,3.3970709047649565,0.18298697582074896,0.3247105930163875,-0.13729735260602594
5.122741498,1.526797715734681,1.3105284518089764,3.364705332250248,0.07747625400424596,0.3057145031423094,-0.14383844684885747
5.162736271,1.653407641923416,1.3497322915424212,3.2909249826267493,0.019509284711363997,0.2930430238355785,-0.1469862744764934
5.202749641,1.7607486807697383,1.3584860668497376,3.182641788477136,-0.09811991306525704,0.29688015836603066,-0.1510479787329653
5.242751376,1.8957738961904722,1.3142813094617818,3.2055667814729034,-0.21500326719019616,0.3043070990605653,-0.15167466427800208
5.282803997,2.009107448503025,1.3143940044693319,3.137511481788549,-0.2627784935711356,0.28202700031477157,-0.15756406727913955
5.322769981,2.160900939298804,1.2529529615701789,3.160170065759678,-0.3562163606510939,0.29073453119702936,-0.16351439674981036
5.3627470630000005,2.264312693029195,1.2026523278603072,3.0868916993082762,-0.42549765842662185,0.29142239079378124,-0.17137553126139227
5.402774146,2.388982413439752,1.176763424701687,3.032577612135795,-0.5249338190163075,0.3136337338885071,-0.17185781800882213
5.442745513,2.446140805832236,1.1121810714428506,3.038739644672487,-0.6008047445405281,0.3075713005529831,-0.1789900357347144
5.482800064,2.5546641450744554,1.0464077296979462,3.0131736414676005,-0.7107392883754188,0.3135946516701103,-0.18779021329141138
5.522742052,2.6966490771485434,0.9968736745444848,2.9656483018043076,-0.783307484590624,0.3417911723121416,-0.1958603106659612
5.562745689,2.71673422379337,0.888590327051896,2.97083246114675,-0.8783460248317975,0.3685915671272729,-0.19965012132248647
5.602744086,2.8286657260401262,0.8040875340310416,2.9150668557056756,-0.9795247741341453,0.36406099385185875,-0.20504876968233948
5.642749409,2.8494163718785224,0.7042139877093553,2.870981991439673,-1.0549890819810777,0.3957161877808326,-0.20990128532188224
5.682746241,2.944915615470076,0.6098001354848579,2.955885957064079,-1.1325374658018872,0.4270589372810678,-0.21434549165586864
5.722742544,2.951289693470046,0.4586310753937804,2.9523254178456346,-1.2393329339861554,0.44750160867702726,-0.21710167316039336
5.762742715,3.0025604931250993,0.3792039840275842,2.9315931422156067,-1.340375834212805,0.46966972659088163,-0.2175838349000286
5.802746092,3.0250531613961256,0.2507177220277273,2.9890787600238866,-1.43646220066325,0.4741882032638738,-0.21672966720571024
5.842745981,3.0785056940670366,0.1401832565231478,2.981843245435229,-1.5533737597981974,0.5086398266240483,-0.21440491018969815
5.882741616,3.006496343345446,-0.012750949983668738,2.9692817860512077,-1.6179170865815324,0.4922582481021561,-0.21097540222004657
5.922744364,3.03132820606753,-0.1066916383349436,3.0139488589487327,-1.7478696545858252,0.5010287414213462,-0.20925013292857167
5.962746038,2.997538483790801,-0.22650943481699165,3.0593978385145193,-1.8212602459678868,0.5132460017519233,-0.20967038243331088
6.002778273,2.9954400493242286,-0.3603051022082516,3.061030135005326,-1.9231721952980478,0.5241683791471743,-0.20602428150901425
6.042753766,2.9516086667619286,-0.48005310433498527,3.0570873297042085,-1.9919564199904434,0.5095222499875934,-0.20583577986532287
6.082743516,2.899661330697936,-0.5748145684645428,3.086046968818888,-2.1064950937394644,0.50232793821241,-0.20555332486707706
6.122745116,2.808506422638758,-0.691668082245241,3.102572361030912,-2.193116435368272,0.5260807400234203,-0.20443487228229634
6.1627464849999996,2.757646244858111,-0.7891777619825795,3.1508938616113653,-2.3142561296218425,0.5167801482133136,-0.195752271665541
6.202744217,2.6856168100634648,-0.8824186614478803,3.0906870502037647,-2.373148845522302,0.49067234193616555,-0.19509256650406911
6.242746938,2.567286461511246,-0.9280961960589558,3.1345934852574455,-2.484071388666044,0.4971877664987766,-0.19383223083844522
6.282749555,2.496003276634605,-1.0327738862855758,3.186969132878773,-2.580260712592154,0.4963262292648383,-0.19438754431457725
6.322746164,2.352173372408843,-1.0823653958679627,3.172561882913434,-2.6167221349128766,0.5013012133581674,-0.18725622209899076
6.36275087,2.250021829900177,-1.169208257277263,3.148408547938661,-2.736039903271116,0.48253690239053315,-0.1863374990870612
6.402814308,2.137733950108673,-1.2230296027684693,3.1830734441546555,-2.798081700286859,0.47059381622841323,-0.1855600103886419
6.442750404,1.9977513321693148,-1.2731715215134853,3.184794301282211,-2.8799809379092096,0.4846714015565223,-0.1847739430465385
6.48279261,1.8828910316514178,-1.2929532297286974,3.203288587232986,-2.9741995561651513,0.44269427241734927,-0.18085051720170334
6.522742326,1.7804900292218966,-1.3066499572887131,3.1986970610331715,-3.1248395018361816,0.4178619893728316,-0.18398265830928345
6.562744244,1.6197992822494292,-1.2794586472505418,3.2013872501203786,-3.1513839090441067,0.4200110221719184,-0.1859892435108529
6.60279561,1.5191996199388373,-1.3287656609306353,3.1651332031967114,-3.254821805516794,0.4242102348647169,-0.18712946408702613
6.642746689,1.395367740565449,-1.26691406486707,3.147404689512433,-3.3567715030739254,0.3885113908832241,-0.17693514517871886
6.682859734,1.2457279501540754,-1.2644058186913756,3.1343295192150493,-3.4810842089297083,0.37275587071438204,-0.18023409588286374
6.722751004,1.1209329785888167,-1.2245403122800047,3.0845277843579284,-3.5144429800249286,0.36994402467945653,-0.1854506433611521
6.76274493,1.0432982332862162,-1.1868084465015842,3.062579178112782,-3.6084217105100085,0.3625205579327622,-0.19144941018305558
6.8027477990000005,0.9118886041823572,-1.1262241219850426,3.050882165230682,-3.700095100534733,0.34918658385871926,-0.1923387956249883
6.842789172,0.7729784322042603,-1.0722666243138608,3.003373584257386,-3.8315777261335726,0.3521658061597678,-0.19448801316959868
6.882785568,0.6976495949545529,-0.9837601826176082,2.9715358820717603,-3.9336639546131194,0.36189092883814317,-0.19592655689168492
6.922742795,0.6815247928040399,-0.9239203236349944,2.9434422672006293,-3.9930103875210787,0.3885569254353527,-0.18911017219324872
6.96274493,0.5308454349288229,-0.8345427053931919,2.9939895860398,-4.033082372783404,0.42155646128522,-0.17615640139089953
7.002772375,0.4772498910592104,-0.7425514365451417,2.9709448167546575,-4.140706859063189,0.44655335719179245,-0.1638125260835231
7.042744021,0.42624656793768706,-0.6159633468914383,3.0335541833397133,-4.213498378730362,0.47602090585853124,-0.15161916819341414
7.082742902,0.36780970927030066,-0.4909355332974137,3.0747070440166624,-4.261050700055217,0.4949038540132851,-0.11230345834973562
