time (sec),x position (m),y position (m),forward velocity (m/s),"heading angle (rad), from x-axis, positive is CCW",throttle (unitless; -1 to 1),steering angle (unitless; -1 to 1)
1.009368201,-2.7643812181276983,0.1046727784281449,3.2063354512274733,-1.145164338573322,0.5097318540039817,0.20932292933574162
1.049367682,-2.6961457454734847,-0.02200691209679113,3.2049517288792284,-1.0921848816793922,0.4804143671087728,0.20412787985186856
1.089352965,-2.640518683416668,-0.12169715545141145,3.2393531227998626,-0.9780193404568515,0.4726840123837109,0.2060083605746484
1.129372217,-2.576900753342084,-0.20771004048328215,3.298815188670634,-0.8577264005055338,0.4783372270402821,0.21427974366099165
1.169366857,-2.4912008932568974,-0.29704558317384794,3.2471795085083195,-0.7828054659538747,0.4550217124145388,0.21379925954140347
1.2093513630000001,-2.41168175392785,-0.4161984580442711,3.2919405573614706,-0.6622484299436685,0.43540098628729806,0.21370346095232504
1.249366108,-2.3106793871693414,-0.48386358850956657,3.2533310580464248,-0.5715619909001901,0.4338317576404123,0.2133130944992581
1.289354566,-2.2072566378266782,-0.5512836895994209,3.2721837285496043,-0.49455332633783083,0.45067835226946973,0.21106914247089328
1.32936386,-2.0635183108196125,-0.6413348120591161,3.2298256066488826,-0.38493377502763,0.4184427356730301,0.21131870428567104
1.369366015,-1.9806945310011714,-0.7143783306823214,3.2121452360373564,-0.27422222977591304,0.4126732092908302,0.20776516649591686
1.409355191,-1.8409393064919555,-0.7478631134812623,3.244073084434848,-0.1945318070032115,0.42786368742247266,0.2050868637168187
1.4493659810000001,-1.745672871324939,-0.7570057004209357,3.1984349766427442,-0.09177115015467344,0.4146755613264264,0.20540028578354075
1.489355619,-1.6238219539552208,-0.7110465540371321,3.2148246950084247,-0.003132716003687041,0.4056908431419461,0.20316393269438854
1.529566515,-1.4584589635057388,-0.785875940117427,3.1861947582586194,0.028959944329116777,0.41002754736363894,0.20123578408746287
1.569363123,-1.3431702643307806,-0.7357147431143787,3.173385563639333,0.14422791262472118,0.4225651976703342,0.20020248803275031
1.609353588,-1.2372635079526917,-0.7410935362445457,3.162898346397163,0.2358604218902883,0.3952984475504368,0.1970616986837117
1.649433136,-1.0687608137384643,-0.7096286450508106,3.178564688265547,0.37523850770668543,0.3764644481978364,0.19853679450098505
1.6893716360000002,-0.9438288061169858,-0.6375657020926624,3.140189092379527,0.42963760196228734,0.3861147242449796,0.20052204001213733
1.729384306,-0.8352212055960877,-0.6120266419866894,3.1434295499789813,0.5558046252431469,0.37124824743363505,0.20226166593836992
1.769373077,-0.7322406728957697,-0.5674201847230421,3.134713751712322,0.6072766130517133,0.3535384678235371,0.19289840370439
1.8093566920000002,-0.6508017672369009,-0.4919102305417555,3.144778223321563,0.72238556469153,0.3558412086015683,0.19841885014326016
1.849363844,-0.5363515767784426,-0.3728016224587516,3.132656260882035,0.798620563141771,0.35556128931887226,0.19793867577396282
1.889367379,-0.4809740838527393,-0.2948179900730986,3.085275229655401,0.8907122344229457,0.37380685443208667,0.1836472819508585
1.929369832,-0.37631954544212964,-0.20539298533292358,3.106754502199789,0.9993343625584267,0.3863146868579786,0.16101570120569508
1.969368232,-0.3246094743913013,-0.09567860924552885,3.1421072216356283,1.059019383476798,0.41136409724739276,0.13845312909323912
2.009353214,-0.26341317359254357,-0.03254632084343049,3.1277568944428977,1.1316340578918436,0.43003257202720674,0.1147473328613034
2.049362935,-0.20389362594284005,0.1125477142482998,3.180744066819806,1.153321819931197,0.4365143904051345,0.0698507307941272
2.089367645,-0.12493453206080657,0.28972795810540275,3.2843011537838844,1.2079265046128382,0.4672262450570009,0.020454718161244383
2.129418697,-0.11257207154502001,0.3670958214024069,3.357076458637609,1.1981016150565953,0.49138890007117775,-0.025181828360840854
2.169371172,-0.03355149514308993,0.4647842003440487,3.3901879263528127,1.1870804978938152,0.47505501022252306,-0.05860143698472949
2.209350571,0.05313011402964816,0.6295911884557713,3.418826571031985,1.167259031490585,0.44804161526539127,-0.08931377371534509
2.249368093,0.06522929437729086,0.7634923328274369,3.4523105586762055,1.1395875406104878,0.4445197299626749,-0.11138964906887171
2.28935108,0.15262784345189223,0.8917352045810879,3.536344535014927,1.07832489279987,0.4384778096643697,-0.13145986980149682
2.329356346,0.18616153029513563,0.9859710876994041,3.535125594526783,1.0111872781842093,0.3999972509025386,-0.14731842430644787
2.369355452,0.25626479661710894,1.132213490271546,3.5246058106898026,0.9610285412586055,0.38218594686544777,-0.15949360719582723
2.409360747,0.36796370776010684,1.2145158723724776,3.5591512785741615,0.8977946027339935,0.3754783610019055,-0.1698034520855458
2.449371643,0.41602164831437116,1.314832441906473,3.508868633926406,0.8065724485413751,0.36874345907208217,-0.177497823523599
2.489356481,0.5410220499893285,1.4575635654338785,3.5188394030902197,0.7134913059594467,0.3541003379266469,-0.18295926126114867
2.529410109,0.6534740633402936,1.5286408441073163,3.4944156593883715,0.6496168652953852,0.35079463643924075,-0.18803072743275082
2.56935398,0.7401726273352787,1.6054199732261598,3.5411564944361076,0.5583184833147145,0.3672452523541867,-0.19050090634764555
2.60935214,0.8686423354346319,1.6823618906303206,3.478662427379455,0.48091006197801694,0.35163263789015803,-0.1927005657337638
2.649377305,1.0135145445746971,1.7552781744566415,3.409528837031587,0.3778735240685198,0.352570790909197,-0.19451763141369915
2.689356501,1.1132559374613795,1.8305861291197731,3.416100502447541,0.2556494013898456,0.364619148278232,-0.19531949056144443
2.729436853,1.2716911656762635,1.8492615327640964,3.427245570628927,0.19520818813630483,0.38748310286270743,-0.19421791675028732
2.769367564,1.365968056468706,1.855629927391632,3.371589369869824,0.1276452909909104,0.3767397155958779,-0.1852463275747195
2.8093580940000002,1.4931073964062844,1.8963604186782785,3.373704270931784,0.03252128555662445,0.38339001413134105,-0.18760683625047817
2.849362919,1.6491129966360356,1.871902514801418,3.3658085969122054,-0.06791433118727319,0.4026333348979831,-0.19713231326449066
2.889353014,1.792302981359128,1.881113203430547,3.402627949298163,-0.1388873719069027,0.40732748384436096,-0.20167886441457056
2.929445603,1.9590427985152759,1.8158655573260756,3.3526457567722656,-0.1872883710941602,0.40025823170034985,-0.2035954267349726
2.969357236,2.048141723053689,1.8610039179902178,3.3708597815649197,-0.2710348929389272,0.41651471881524776,-0.20554989619895947
3.009359556,2.1933588359788514,1.7849407168699338,3.3864803258758727,-0.3697706494035769,0.4253528452741527,-0.2022041310600644
3.049368163,2.3142244193375463,1.7585200537601517,3.360420355650539,-0.45388207787094065,0.42565621741475906,-0.21350466988049094
3.089358734,2.4194360584561085,1.6716869739990199,3.3620104821158554,-0.5497678604812215,0.4291433968555571,-0.21444140816240664
3.12935317,2.556343534414429,1.600226990410217,3.3793761742890664,-0.6611428380798001,0.44716875503246467,-0.2157949173275723
3.169357408,2.6478959617212747,1.5039630860053133,3.4049362799047977,-0.73024301638835,0.4489030254202144,-0.21643930342035975
3.209432601,2.7655583135953563,1.402987357227682,3.384610835801136,-0.8887408691533788,0.443396150991553,-0.21384253309334478
3.24936505,2.848683240003683,1.3136496776373687,3.383264996920141,-0.9022810699039288,0.4525379109943705,-0.21354752285302722
3.289363204,2.9357160046594197,1.182678379712913,3.3793475533957302,-1.0412462254772175,0.47048653236093374,-0.21208184291340507
3.329437015,3.007286027302715,1.0648163630784673,3.429354003953024,-1.1165731136265227,0.4491843376199001,-0.20047749668068776
3.369363295,3.0472847573203943,0.9748639989143946,3.4215303666517976,-1.1645677005929267,0.4606527680843744,-0.207354635449879
3.409351983,3.095827586109434,0.8361917195079672,3.3965940950100793,-1.21626893551137,0.458991493210846,-0.20166796984091623
3.449359731,3.1208752358472625,0.720026451659371,3.45915262160558,-1.3173246331047548,0.4756884311909356,-0.2038847431619733
3.489349941,3.162688565919761,0.598530412093155,3.4329451101385007,-1.4459243149377612,0.4625029502259787,-0.2106130371800933
3.529349093,3.1676620304930614,0.4662118777788227,3.450703586460282,-1.5348981054713353,0.45733614353137664,-0.2126386743830534
3.569356423,3.1877059606789815,0.3005340547437826,3.4308542461590172,-1.599800058627602,0.46285092825223806,-0.2140338514122494
3.60942615,3.2023166393996383,0.18172684804328412,3.4589394619499716,-1.6962029002692856,0.45787477551439437,-0.2100324009271436
3.649366431,3.20159459157874,0.024280482081525903,3.4567867729060757,-1.8099962825802336,0.4409111439292413,-0.21061140676143483
3.689360576,3.1344182815001784,-0.1047416977191365,3.4400019184481705,-1.8817615786554631,0.44758571977177053,-0.21125057202560593
3.7295131,3.1478704329848792,-0.25048961231218453,3.453377170738209,-1.951364026385758,0.45954033093994373,-0.21163040129895228
3.769361007,3.032115526831286,-0.36652819140773024,3.464604877375705,-2.0705295073100736,0.442854382491521,-0.20958772709022486
3.809354516,2.9985442010828107,-0.47925266151092416,3.471635168754318,-2.1185591945300835,0.4393572952922761,-0.2077623970252837
3.84936617,2.877105742599043,-0.5812718346611259,3.462942345732893,-2.227543207325684,0.44555823821948487,-0.20790794705810703
3.88937685,2.8152043820136767,-0.7103230028559446,3.467893536841657,-2.298402569406718,0.450187157767523,-0.21072600921296347
3.929350754,2.733006164673463,-0.8103859907806414,3.4394583658579414,-2.4016534771758558,0.42351130401990594,-0.2063762974663137
3.969356528,2.626783034238767,-0.9559624418013283,3.4305602139924294,-2.540714226327628,0.42198885028384414,-0.20618249318376528
4.009357449,2.501547534418315,-0.9903265554297993,3.458997981200964,-2.5791850324360537,0.41868679512199614,-0.20656148032805746
4.049363165,2.382126032193344,-1.0669731213559603,3.4142165169877003,-2.6529551057137977,0.4251357487843898,-0.1986084401949385
4.089350937,2.274254945678622,-1.126282873762236,3.438638690881924,-2.7613068850503293,0.4018760453413239,-0.19185568149111062
4.129361459,2.1366084712704745,-1.1984153369340627,3.455122476473914,-2.8414665814636324,0.4010057002895258,-0.19945056986493026
4.169361455,2.0445193371217614,-1.205204172261067,3.43267695211221,-2.8933692937527278,0.4099894525243935,-0.2017027051784416
4.209351148,1.8934887072737157,-1.236509649292966,3.4440241273597456,-2.9858248325905015,0.3869213638010919,-0.19896317025190202
4.249358614,1.7634636449980692,-1.2816347962875811,3.4222603485465495,-3.0445951972713976,0.3579376869855536,-0.2034577021117583
4.289350324,1.6236569317403955,-1.2816719289473988,3.361832805555926,-3.127894815697514,0.36079170815766815,-0.20687011975714925
4.329382086,1.5069483179139749,-1.2607977508244634,3.3953189683614085,-3.231366477247914,0.36603930927049144,-0.20966431170915686
4.369385361,1.369132522027079,-1.256465914882627,3.3653505391458043,-3.325411528789804,0.33730128325081554,-0.20871569762830497
4.409376391,1.2343085619300473,-1.2227767929682776,3.3359351865205173,-3.4396073828058826,0.33473987055787124,-0.21001361146253414
4.449364995,1.0933431806636396,-1.1961312159781565,3.294377719688786,-3.5153025066998915,0.3264433638775548,-0.21135705878077832
4.489358657,0.9474295909911506,-1.1646948551695613,3.2822212572580383,-3.6477525740487686,0.34962719593260067,-0.2134649962359188
4.529423738,0.810124482495741,-1.1304064133643443,3.254421120164585,-3.721666951300963,0.32654172908377505,-0.21087074443560277
4.569354062,0.7681921111237983,-1.0257395189685163,3.2059334968888815,-3.823713529313175,0.3295531267813911,-0.2119284316027471
4.609440672,0.6187998205262571,-0.9118612338496889,3.1925839562985905,-3.909298250785149,0.3371526808426117,-0.2064524358085603
4.649375324,0.575500654945976,-0.8214541111756373,3.179322076974417,-3.9864571197748644,0.36291317182669824,-0.21263405405677477
4.689432861,0.47841431749127494,-0.7653662481655144,3.230669946139866,-4.067279610738494,0.4094469735890331,-0.1829788957401478
4.729441642,0.3791273071772606,-0.6370412735598638,3.2399904178949384,-4.143430249784942,0.44050547559562336,-0.14785029785818346
4.7693789980000005,0.3308136178246487,-0.5961428589259244,3.3109457056826757,-4.169016222502526,0.4750344828882012,-0.12701927754078732
4.809443846,0.24145714376743926,-0.4572820043992414,3.378755931181358,-4.20327902783483,0.47236317792425186,-0.0945274504225616
4.8493673610000005,0.17200427844952454,-0.38147744652667737,3.427825442663664,-4.251731510564012,0.47852471862174834,-0.05466532816811431
4.889367087,0.13175413930945284,-0.20587093342543708,3.53872407172137,-4.2420096430087355,0.49468021206567403,-0.022742901303552873
4.929439201,0.024153826853358817,-0.0641367028884648,3.6447847840523604,-4.19287048917777,0.509641555411652,0.008996031547126917
4.969376413,-0.025095148468085957,0.06628319057506178,3.661986617087885,-4.1907067041902755,0.44456399353235043,0.02690083375955467
5.009357727,-0.11092251646112752,0.18801468384616452,3.6748154880251684,-4.130825436628331,0.4081332126861875,0.05012055622216852
5.049366127,-0.1484424108670001,0.310011644553684,3.6872716188733956,-4.135805775896473,0.3748967704398679,0.06754326777696265
5.089351849,-0.2578881115372238,0.4126852504293999,3.709465620949666,-4.124344842947871,0.3775330989468423,0.086504029288833
5.129350182,-0.35087021361841064,0.5353591518055574,3.7130855413182813,-4.099605134121643,0.31784404390832033,0.093668758301508
5.169356835,-0.437916722717511,0.6895306641151867,3.680627265460696,-4.042464355587495,0.28985283384745053,0.11186256118224291
5.209345208,-0.5501344074902045,0.8009614020807556,3.7308706332852184,-3.9649280356536307,0.2792833062546433,0.12758235166499968
5.249362992,-0.6524198748136949,0.894453142964301,3.710330872320825,-3.9000790300251214,0.2469419559246154,0.1418822302653301
5.289349091,-0.7610640565886834,0.9633213379653867,3.6967607328311765,-3.8208542515791746,0.22620893518839263,0.15180121852247053
5.329357003,-0.851905479137796,1.0910153176123685,3.62572656394679,-3.7133818811496355,0.2112835997094682,0.1595693927062675
5.369359263,-0.9630225475490859,1.1659321050140372,3.5779249677730287,-3.6503810719932326,0.21198096667355762,0.1634009048970096
5.409361305,-1.1246320061303878,1.232002659377557,3.449653485796481,-3.502825413407816,0.19718952817662247,0.1618666511769717
5.44936179,-1.2097860665029518,1.2787096309359494,3.4396944629939643,-3.435353356170131,0.20200561883224097,0.16393923896183654
5.489354475,-1.3629399218335494,1.3185109915150715,3.394967327045912,-3.323225918733527,0.21277988838178036,0.16481055194941152
5.529357753,-1.4624930900828055,1.3615781708028458,3.3098420471438477,-3.266945082473815,0.24146900997883108,0.15734979657769338
5.569359535,-1.6303602610450194,1.3824094535125855,3.260106540204432,-3.1135076095433956,0.24837785675985288,0.1600274639663318
5.609447735,-1.7708463455767125,1.4003206035064073,3.221341291848747,-3.033281190067806,0.2527030047578854,0.16168197652709404
5.649367905,-1.8589875118840904,1.3708088313983482,3.22194519246329,-2.9824073181546487,0.2801324363067437,0.16445993116522084
5.689368434,-1.9997399962254079,1.3726601924272968,3.136409007508,-2.9185930188602587,0.31303388249820324,0.1586894441110318
5.729357693,-2.1169386304559654,1.3186761367419204,3.1172752292957058,-2.809055363750944,0.3170938560046826,0.16908996902055148
5.769356006,-2.2604960894801933,1.3109818467859704,3.138936983491087,-2.7451600022024016,0.3299579678933822,0.17427457305055058
5.809353413,-2.3396872864474227,1.235370454652712,3.1781868984494497,-2.652312929749809,0.3548896205390009,0.18238092230289815
5.849376404,-2.447642265969316,1.1475030908207462,3.1563822220359214,-2.600569766404427,0.3678956862925568,0.1846198178521528
5.889427158,-2.5812799404403246,1.0871568593385366,3.1430469260272704,-2.4885375474639817,0.35437493715179014,0.19159668281339948
5.9293723830000005,-2.677087883763871,1.0314107443696328,3.1092490203609295,-2.381080165072844,0.3555883076751166,0.1963676682081105
5.969373885,-2.7735851189720884,0.9616170315825969,3.078574714339817,-2.3075602180444545,0.3768534603391806,0.19870271548940846
6.009350262,-2.8482569587809405,0.841421232632903,3.1268296345016116,-2.205702062713804,0.3762368352679192,0.184525992633124
6.049361561,-2.9141263926063163,0.7561349901410813,3.1026770036980897,-2.0857798293613317,0.3764823167999961,0.19371792494937248
6.089355627,-2.972159394199554,0.6271101127902545,3.0692374559000974,-1.9995209091665838,0.38937765973514016,0.19545048475333518
6.12943161,-3.025474513031114,0.49814022606272196,3.1457931522062337,-1.90114128435149,0.4113838179077478,0.19769910986869685
6.169369011,-3.069914936940577,0.40425633313039133,3.1254582949746887,-1.8468909791577062,0.4031364385921143,0.19853096620263158
6.209416654,-3.1100653502961353,0.2651968609516296,3.135235607269147,-1.7560620301241332,0.4204272240019008,0.19768379389701657
6.249373518,-3.1106639785312615,0.16243061362050168,3.073407702907206,-1.6443269609876578,0.41137751924026283,0.19146251758294588
6.289354157,-3.1252348308323348,0.03178454690402336,3.1531109018666093,-1.5391755793997488,0.4294687306488503,0.1960888194421596
6.329363465,-3.121598287775796,-0.057631646557552554,3.1272218785357566,-1.4343408846132268,0.42501961255906967,0.19940748725007904
6.369357573,-3.090619050979927,-0.1744522554661504,3.243366417012684,-1.4301894512912887,0.4330695079206523,0.2026992825887498
6.409357169,-3.090685842457704,-0.3503271772471145,3.1997979713597844,-1.2756543561621532,0.4347867494418433,0.20452452513813632
6.449372372,-3.006520775164484,-0.4506409063029069,3.1360430085430053,-1.1967523231232233,0.4379780365080505,0.20226183340033183
6.489350747,-2.989023096806256,-0.593129952089872,3.1786688729162798,-1.111996835242788,0.4112752357353829,0.2094307238657194
6.529353794,-2.915509130646913,-0.6937471797457725,3.2365147521254167,-1.013769984723342,0.43195851590581463,0.20363408914447564
6.569358672,-2.903209741084986,-0.8195545036743148,3.209848693231649,-0.8767339744408497,0.4690874677003787,0.2068548676899719
6.609353048,-2.799273702361547,-0.9021237010454222,3.2407147061121306,-0.8206303633643693,0.4563325824775305,0.21178601325539664
6.649365348,-2.7073151364454118,-0.9938124250451559,3.2262509875170187,-0.7210202035885398,0.451326466083539,0.2125010309216816
6.689353849,-2.6327008816007655,-1.0665861832798582,3.208292725211064,-0.6636300103370866,0.46288346662782004,0.21085859794150538
6.729357265,-2.4997209220017766,-1.1614763680913458,3.2511356232137145,-0.5749826435270493,0.4944332631201253,0.21079037184884303
6.769354679,-2.385487966428285,-1.2439224880154705,3.2448586095320575,-0.5075157557879887,0.4563637223612526,0.20480546625842502
6.809353912,-2.2962815943565347,-1.2799465665195522,3.241124386914915,-0.4108633227570536,0.46252756097255443,0.2079987081361549
6.849357384,-2.1409021485449786,-1.3366906965441043,3.2604778894694255,-0.3056724124249746,0.47461891054754834,0.21058907870901122
6.889352577,-2.0187444710071913,-1.3591630838044455,3.2755834303057814,-0.20515820199941476,0.4664625197468962,0.20707145878244354
6.929404708,-1.9152349161458666,-1.416035943120904,3.2738356615331714,-0.10405975382455691,0.4596823464301068,0.20596212322702898
6.969373819,-1.7915512523401593,-1.4085161098981123,3.316653663017459,-0.034371527991574155,0.4572682112881497,0.2062230212318362
7.009354026,-1.6335207135559624,-1.3805576748736927,3.300718973715615,0.04043691808443004,0.4662375565605543,0.2056099223876567
7.049369138,-1.5043234224688122,-1.3800252536956155,3.299293921781913,0.1378429344196722,0.44941932393771156,0.2003657416546644
7.089372193,-1.396708011997183,-1.3540394192555059,3.3085428325754003,0.22589210321527503,0.43370753178014065,0.19971465691429077
