time (sec),x position (m),y position (m),forward velocity (m/s),"heading angle (rad), from x-axis, positive is CCW",throttle (unitless; -1 to 1),steering angle (unitless; -1 to 1)
1.005349853,0.7196079910556906,0.18648809344703843,3.561720293947597,0.8621038881774254,0.43913689154142005,-0.15026202026077967
1.045349752,0.8020362807792842,0.29379235298706735,3.5617054368139027,0.7698317671770033,0.39370259099221033,-0.15894788363325746
1.085357685,0.8690205860882526,0.42523172106306417,3.54524310187103,0.6911421289676652,0.3580803046506827,-0.16192939952572305
1.125339672,1.0358501738405796,0.49799709668467645,3.5674168605082337,0.5652297957570693,0.3523471019878397,-0.17251519324343756
1.1653521,1.179985839110056,0.5910066105338877,3.53764243809865,0.4504347296521318,0.32419465249429374,-0.1778943409350156
1.20534771,1.2426733933944123,0.6323372670343649,3.480292227668507,0.44906819641249507,0.30027002185678703,-0.18053275431606444
1.245360426,1.3299169649601799,0.7057876782632315,3.441784197470651,0.3504224805253402,0.29354611955100884,-0.17573427699643662
1.285353061,1.498774181898777,0.7070246906515915,3.405870793213497,0.2724582082946241,0.2976266826853799,-0.17742949101817945
1.325344707,1.6203905043590177,0.7999685809691924,3.327249676453738,0.1552412697633793,0.27823222756000704,-0.18664395506541254
1.365349825,1.7304600171066393,0.751273507566986,3.327414527901986,0.051989124300257976,0.27282713211575255,-0.19076896382887226
1.405347852,1.9214262594525937,0.8089398854764154,3.3012968492354697,-0.07802754686220295,0.2778570520804539,-0.19536995279060784
1.445344069,2.0154543075898936,0.8068664340016014,3.2782997481444602,-0.1256554294560262,0.30259483166976536,-0.2010149614716587
1.485350291,2.1623950737274944,0.7805261712324589,3.2005890522268725,-0.23171266887498482,0.3366701008527006,-0.20531987474706406
1.525362306,2.244939998415753,0.771577234175358,3.195103837133251,-0.35189000930917974,0.28943402903677584,-0.20130808988773136
1.565351625,2.418080139499919,0.6973181098179417,3.2241681882083593,-0.37513397595563797,0.30725360997918943,-0.21401356047341277
1.605345797,2.519995611680565,0.6510109356052804,3.178387492480422,-0.45541538665456005,0.3476584562108871,-0.21917361143218178
1.645443229,2.633940630016572,0.5934634865369435,3.137314183416216,-0.5756183076399153,0.3956707283211727,-0.22326335571692535
1.685353931,2.741772689623029,0.5162061928311426,3.127233378165772,-0.6976116328680986,0.33535732496173554,-0.2291706066228689
1.725344635,2.827131019581263,0.47230975979334533,3.0975719863281137,-0.8059440510832745,0.3767076489185953,-0.2342290150980938
1.7653498550000002,2.911433642801497,0.3525236909421953,3.1043809237661866,-0.8764209196961149,0.42124510011985655,-0.23652362298463805
1.805349835,3.0111393845791676,0.20598603057235984,3.0493365797591925,-1.0109932123949972,0.4712825670725195,-0.23064578029995003
1.845353202,3.106430309402858,0.14100282048304547,3.067363485478613,-1.1124218291927612,0.5556618271108001,-0.24281998783638722
1.8853680000000002,3.1052366075735995,0.029919150822515915,3.056163033435289,-1.221478040770128,0.4771571500037298,-0.24243779507998434
1.925364381,3.1502854616172,-0.06633198301290694,3.0910329001917605,-1.2851355767113437,0.4516178327978617,-0.2383468346147468
1.96534706,3.2230101083319984,-0.23188425097446222,3.1183333974254603,-1.3708876604697697,0.45931983650319513,-0.23520891997104704
2.005347745,3.1802794948128725,-0.2999821126053548,3.1833378363465266,-1.4728064093487296,0.4746990204513512,-0.23190607179963135
2.045421983,3.230417958942536,-0.4561707223137802,3.180273210513525,-1.5594940986407926,0.5009834860374182,-0.23526306404404532
2.085355801,3.2556268873519776,-0.5678019543478944,3.1727473918080817,-1.6342013262701265,0.45632652417002084,-0.22491763872946252
2.125346618,3.226006535553873,-0.7521277524344238,3.2145829355852222,-1.7822205368595256,0.46963903121567996,-0.23340370353695697
2.165356557,3.1890716663735947,-0.8337776876761984,3.1949625710581335,-1.8974866745758738,0.4929279343974235,-0.2334513178777933
2.205355376,3.175130461240622,-0.9319582113736337,3.195184101032684,-2.010657400825295,0.4783528172998496,-0.22693576989392145
2.245346435,3.108536512806861,-1.0451032469204804,3.2054424853575596,-2.0189727975230456,0.4715519148425531,-0.21776638775440177
2.285346935,3.047626458032606,-1.1612125666549493,3.2133566967437135,-2.1160951375899737,0.49245047536752307,-0.22263045131108625
2.325350491,2.9767773357596843,-1.2480369424654902,3.256239815377967,-2.213970485100934,0.5255265080743399,-0.21960900687303947
2.365363756,2.8869664157933057,-1.4230779425672218,3.3171158332281134,-2.3002948387011015,0.5015144997782278,-0.21003484547882328
2.405356373,2.8091556826242723,-1.4716110244256542,3.3381173921193055,-2.3985088827917846,0.4982397602414617,-0.20977890444609448
2.445356629,2.6758554115054065,-1.5753094735755881,3.3663863908676204,-2.487775790043061,0.5013308291005544,-0.2106482224853013
2.485354844,2.609710102037243,-1.6277486174402964,3.326363641752508,-2.5749902101492474,0.4919591721275218,-0.20898113043302874
2.525343301,2.481926275936286,-1.7614430086135595,3.352066561439454,-2.6668951844157163,0.4780342472554318,-0.20757874580868774
2.565370225,2.3538623126915708,-1.7769138400850808,3.3797066660965163,-2.7537096927329716,0.4724488668507308,-0.2066923478944941
2.605351319,2.2161441740270496,-1.8581523262473865,3.3742918842831178,-2.8586042074623386,0.4893565095753698,-0.2037885454037237
2.6453502550000003,2.1077117939363035,-1.8851154152246479,3.398215800268588,-2.909743728559239,0.45401650966147855,-0.19530791372887127
2.685348917,2.00289618529605,-1.9150324744073255,3.4160031334979872,-3.0079493734477465,0.4441272858187222,-0.20054603231530338
2.7254374180000003,1.8307995726788,-1.8986181641639786,3.405525252606509,-3.1445579179467904,0.44800171888553086,-0.19936439623600533
2.76535172,1.6888499073067749,-1.9198972991042997,3.4178887218374085,-3.154971119072235,0.43461499128471603,-0.1952994087822269
2.805373798,1.5988509916512672,-1.9093757465974928,3.454795823730732,-3.272585686854079,0.41734467743697584,-0.19592431705298918
2.84534424,1.425899789628749,-1.9275282408836953,3.3982571969653477,-3.333908432017257,0.4177057741329691,-0.19017492498146166
2.885354677,1.3435068109197827,-1.902394670152573,3.4166321784622222,-3.433959431736901,0.4241000531561795,-0.19870803255869174
2.925348725,1.172455233935116,-1.8379246166630012,3.4072319776593973,-3.535397997357539,0.4100418239492111,-0.19688407293755322
2.965342674,1.019460878488595,-1.7782456500458577,3.3505896674438924,-3.6438523894291635,0.399724772996787,-0.19725322297897493
3.005347394,0.9278183871410649,-1.7049023021820624,3.378392263438903,-3.6992608738318435,0.40421299172539754,-0.1991384600308498
3.045442264,0.8064034947508905,-1.6857951581820518,3.42224785652233,-3.7974131607401245,0.4212060563746002,-0.2003499664124993
3.08536713,0.693491889507767,-1.59176568570997,3.3703243375384315,-3.872805421848111,0.40874277384810637,-0.1944477469880156
3.125337725,0.5829212402673465,-1.4739216872375247,3.3233620937218697,-4.004386833274597,0.408007381126923,-0.19374904225180745
3.165352826,0.5226222756321345,-1.3921651630006575,3.327090575032283,-4.0497734407471535,0.4207790190305238,-0.20122727355403022
3.205350781,0.41692310110665165,-1.3032119768732846,3.383596818332945,-4.1503256771573644,0.4438494315335225,-0.2012430895562246
3.245348089,0.3750126241852554,-1.1685552046739607,3.414022382013958,-4.201842865001083,0.47664262304735855,-0.15318341877898403
3.285354518,0.26616816335493076,-1.0420903382776898,3.41316675695469,-4.294708149077095,0.5126878836517863,-0.11752214307409005
3.3253925840000003,0.18965730198886374,-0.896485352231368,3.541551656909817,-4.351514830873508,0.5468061108712177,-0.07317651233053779
3.365349906,0.18046201486721178,-0.7701164914377646,3.6829371782351443,-4.358608391441367,0.5825722126045988,-0.03223363215410664
3.405352654,0.11930131762364449,-0.6446576982936474,3.7403263092939425,-4.356619981430505,0.5267591161212077,-0.0072538714964340174
3.445350795,0.09615733219467396,-0.5178005463741061,3.7823432844830394,-4.299582936279433,0.49470588266199095,0.026379560334510922
3.485348441,-0.025530454858024156,-0.4168192840889814,3.8441945248273184,-4.3350943026028235,0.46115343300964595,0.05171689342202416
3.525349849,-0.10395462980908343,-0.22687841845947668,3.837205290101493,-4.3043708217571615,0.4160298196691082,0.06677952895598879
3.565344504,-0.17053388048715745,-0.045276920885434176,3.913377161886589,-4.221997855794797,0.3684198736208407,0.08380941805332537
3.60534692,-0.21321860764094094,0.015629437219892496,3.8428036011701003,-4.199091570429685,0.33922220004447706,0.10023197681562887
3.645431904,-0.2596299725954661,0.19784429663505113,3.8503977956091178,-4.167198409973044,0.31685117954373065,0.11348760478888541
3.685352527,-0.37110307256111685,0.31540266194974903,3.8533122204643684,-4.050286610360057,0.2604622563726802,0.12047758060970937
3.725354229,-0.42756218588764877,0.44475649712126614,3.861151445377445,-4.018938608491489,0.24235481421783742,0.13351316835251845
3.765349876,-0.5420953005920439,0.49813219525268165,3.787562362150887,-3.9504413154702673,0.22313687476264837,0.1430188500674958
3.805353043,-0.6467516599338408,0.6723079737581973,3.76712991513145,-3.8865833440668163,0.18881450624502027,0.14727599185762116
3.845357603,-0.7848579106816482,0.7960482738307769,3.725080482233918,-3.7704062895390957,0.17623930606607502,0.15706862632292914
3.885348951,-0.8994308126159306,0.8739502840248077,3.576072485997358,-3.676366504497025,0.16842044072670673,0.16092790633396709
3.925355695,-1.010231921410397,0.9550402967984414,3.5731293438187093,-3.573068350657039,0.18370567077635788,0.16240718268404924
3.965349711,-1.1554972508229062,0.985275668756169,3.4579091991559716,-3.482641362473327,0.16875002056114807,0.16139778806777041
4.005343288,-1.245248045259296,1.029612500212876,3.399670699792384,-3.3626177923000595,0.1854262405347156,0.15407688403965358
4.045440782,-1.357718828249808,1.05282073999965,3.3262211146571583,-3.2946737975880196,0.19086616964131306,0.15288548919755726
4.08535026,-1.5197304347867044,1.1222006839166665,3.263563014480705,-3.1796200509907093,0.22968648390513063,0.15356328210122494
4.125340341,-1.6849627989544098,1.1130067694269519,3.1778227894575637,-3.121704492636004,0.23633332842780527,0.15863031178989018
4.165350546,-1.7583940362607475,1.1003692118976236,3.164812119673706,-3.009058186482538,0.24769007532550283,0.1619861436540169
4.20536011,-1.8894503453510572,1.107492948480685,3.1216903900548596,-2.957460822204874,0.27892557456615374,0.1672905613871287
4.24547092,-2.051534030522196,1.0807867809333116,3.0318879939694687,-2.8192463204693694,0.17683853548648176,0.19001693156212243
4.285368132,-2.096074049034578,1.0548517321335376,2.960637391282146,-2.7592263990003785,0.10202338603158177,0.2254717229449382
4.325346752,-2.209156418650247,1.0150190922767632,2.8394374998621217,-2.6391099816548795,0.07691107686225677,0.2625782641772394
4.365347242,-2.3409390059755637,0.9506584473017436,2.7730106560381333,-2.529482632501186,0.1027754509322535,0.3030732410468399
4.405348774,-2.4785989641648283,0.8952464733812624,2.6891092229644453,-2.399531530488302,0.25017518400757116,0.24946919123806024
4.445348846,-2.534869860834253,0.7959038960702605,2.710627026561866,-2.3452444123223986,0.35004726711501466,0.2249830369435134
4.485355883,-2.5416040575672443,0.6997480622953808,2.746867453640206,-2.2216113863982625,0.44920225080972087,0.19602218844892919
4.525406746,-2.6139584546588903,0.6336288164402512,2.771044953095172,-2.1111208633951057,0.5307618982013599,0.1667698399184479
4.56535233,-2.696000390652669,0.551263918489197,2.8958857615334366,-2.01609624986496,0.5132903597600897,0.16913027473380932
4.60533742,-2.7340686048102167,0.4109151217142247,2.9508565170459726,-1.9564822221602471,0.5105036146853423,0.16904385123464366
4.645430494,-2.7645129992770707,0.31715640262068356,3.0313934724417018,-1.8621979344297341,0.4966247704485622,0.1723136215358051
4.6853568800000005,-2.812323536257902,0.20040204541561188,3.0599494631379884,-1.790946690816403,0.46870405224358286,0.1727937651574226
4.7253770280000005,-2.832608999214462,0.07597294054025183,3.059292999641257,-1.7205364532861955,0.4388544497002824,0.17875725230726056
4.765348224,-2.8580227398012408,-0.0345583779629188,3.125492483949582,-1.6593088625398766,0.4203834576721722,0.18359192495503754
4.805349371,-2.8636465166297302,-0.208427729253783,3.142960921998619,-1.5551304488757987,0.43112947337484636,0.19365847704036085
4.845429627,-2.806836391219829,-0.31806944537928,3.173414336922253,-1.4161584014274704,0.4064811428831677,0.18636111763585553
4.88535125,-2.8473536570866,-0.45168966935996746,3.176878998268177,-1.3518231805135943,0.39393022854703147,0.1958248795439554
4.925363958,-2.8150899223655355,-0.559774963235794,3.1568806049424647,-1.262402894076431,0.39572007006931936,0.19693899808942722
4.965352975,-2.7592692439474673,-0.645742891813573,3.1323494423704425,-1.150377311279006,0.40319945106541216,0.19209673171533762
5.005346668,-2.707888373101316,-0.8216488273659616,3.121141053219806,-1.0556360726753635,0.400996731733617,0.19760148634308972
5.045347606,-2.6402682575153062,-0.8710708670402063,3.1104140011870527,-0.9939660553373634,0.4069939349056135,0.1975364878348373
5.085350049,-2.5589859280461726,-0.9862857676954793,3.16393223598609,-0.8953348884568751,0.43737907993837266,0.19587512430630852
5.125336041,-2.488441584985344,-1.132054316219028,3.130005656244907,-0.7847810889219056,0.43563663839993466,0.198141311439548
5.165347944,-2.441512959737374,-1.1755512649596196,3.167259123273675,-0.7098197171888221,0.44346873696156014,0.1985678337177671
5.205427062,-2.3288190797490027,-1.2087055372250495,3.1877287038487228,-0.600117282722428,0.4448062964079977,0.19977575210495122
5.24540294,-2.1850527048162873,-1.316229926457493,3.1717944859978533,-0.585922871730228,0.47841938799079037,0.1937861402570801
5.285374643,-2.0462344841965083,-1.4227084772143772,3.1830828275896232,-0.3911088503822787,0.4486648344312099,0.20263448791664584
5.325343866,-1.9820717475678111,-1.4320462203303763,3.1956096946726387,-0.3494578411482002,0.45768212835773314,0.20300585305261643
5.365357612,-1.850732067898874,-1.495679987709786,3.208958906073776,-0.280604317437078,0.4719857238373429,0.20353024638691508
5.4053499590000005,-1.7131276582812938,-1.5116111767709903,3.2131365160724865,-0.15287187915973685,0.4506959743218959,0.19157110329712096
5.445463031,-1.5809415683831562,-1.5169663768430925,3.2493570777580985,-0.03270572338579997,0.4427257770839716,0.19841786494567676
5.485359443,-1.4944059862789143,-1.5629943989064765,3.2291463219299748,0.025258591073368697,0.44279413965921627,0.19864911138256813
5.52534805,-1.3464788819972549,-1.5312854024765656,3.299852066697153,0.09869207665857649,0.4597054986697994,0.19843545345328173
5.565346208,-1.22096556686924,-1.4951363386395051,3.27886725834229,0.22642328539656514,0.42779802208649154,0.18988377184439612
5.605349874,-1.0405046250382184,-1.457062929889054,3.296923796807833,0.2991282182927638,0.4291292601906557,0.19573622342238456
5.645368179,-0.950414678456648,-1.4575708380610588,3.298888114815889,0.3784890927572369,0.435330440737815,0.19470397185319618
5.685362329,-0.8206630097255027,-1.4010308972958931,3.3167529629561523,0.5090093847418611,0.42666123117917315,0.19176893897321268
5.725392951,-0.7292138332983842,-1.3749192549666318,3.2419331202083517,0.5435339678739975,0.40289517271174385,0.18242654378080833
5.765355108,-0.6173596970434295,-1.2815130986397725,3.242917044378861,0.6780743628762991,0.41059745449042523,0.18758848667558128
5.805345386,-0.5231965282262888,-1.2025882520092557,3.2474183832377217,0.7743504595504009,0.4208262526008938,0.18370069257473984
5.845352715,-0.4175153158423478,-1.0907086623795326,3.2179681447288315,0.8354115817253129,0.41409625250356724,0.1777433052331983
5.885362914,-0.33301122670223676,-1.0080462606184981,3.2643306753193593,0.9232783293859922,0.41452362021141637,0.17582307260776986
5.925360727,-0.21103573745874335,-0.9011591620825123,3.2938431886167243,1.0042996290734931,0.4240448488587739,0.17398299061570519
5.965354015,-0.16616518674361258,-0.8020152378618931,3.2613206177623715,1.10214078247485,0.4310197385504542,0.1734103675926635
6.005421509,-0.11511374322847104,-0.6833070696473825,3.299360629394898,1.1855997924533264,0.4524666747590684,0.13643728695464935
6.045351034,-0.03489095819427642,-0.5293137474388568,3.3275549392318426,1.2251796029377409,0.48025084101728294,0.08670033194663565
6.085411803,-0.012735928951347765,-0.3949067016502801,3.329885905475815,1.2611342734062219,0.5204348465177158,0.03737578962309286
6.1253364359999996,0.03052963533204232,-0.2816732475334069,3.4874318034924805,1.2958909805732186,0.5488219855899156,-0.018720937810906405
6.165390597,0.0979480256165857,-0.12052660121948744,3.512110609008682,1.2693402839447385,0.5076788016375603,-0.044249708007550695
6.205347013,0.12660167965273983,-0.05892333255208855,3.5513780085302233,1.2513987027329854,0.49303049524277887,-0.07938106535965281
6.245449412,0.1871818388392369,0.05376935929455035,3.6249280233902352,1.2067139887461475,0.480328931497157,-0.1012566711575136
6.285357347,0.20904027151622515,0.24492548791656776,3.6597166672671575,1.1725109119384702,0.4444337406172193,-0.11492117800546667
6.325409377,0.24090086738759034,0.340797335545802,3.6557512200447255,1.1167689809365873,0.41919290493591815,-0.13365907937555757
6.365353818,0.3197486476098576,0.4834833241952795,3.6514377548906904,1.084555358104872,0.3956680732205693,-0.14657766670551328
6.405344975,0.42203457227255375,0.6407107242462208,3.651983379078652,0.9298584373948142,0.3835901914965718,-0.15714302198013821
6.445347315,0.48400415361422416,0.7315095579088301,3.643579202249778,0.9101668825988348,0.35810345433941204,-0.15949589731880082
6.485351827,0.5884966767299632,0.88768706220808,3.612726597829514,0.8175861172108851,0.3399588000899554,-0.1675239815029201
6.525358968,0.6560442830301256,0.9470712914043652,3.5852749559561747,0.727653040736017,0.32539638688114436,-0.16837773015460897
6.565351814,0.793500037514148,1.10553550908848,3.5702509091493293,0.6159792407362652,0.3385980528341393,-0.17935502626183952
6.605346149,0.9312236311278866,1.1864419916293216,3.5171761897411455,0.5699452528002871,0.31737436179994755,-0.18653088673828538
6.645347026,1.0049385479422737,1.2208143115038594,3.4913183671144012,0.4815802160371126,0.31800032040441767,-0.1872042236004303
6.68536903,1.14061104916522,1.2966972868606361,3.461328126554587,0.3928161960735859,0.3247054572011243,-0.1796558896995921
6.725419938,1.2723412683845259,1.3470253027170571,3.4091287637184893,0.2656254960545448,0.3308235710355378,-0.18226835048620232
6.765347481,1.4112355810897645,1.4185528247160961,3.414375289652486,0.18959602935452688,0.32601667657548655,-0.18888081404189455
6.805369483,1.4733704476290357,1.424191357771756,3.3359015069913798,0.0952485316665401,0.33590348098463707,-0.1896710317170081
6.845356818,1.6456294330015664,1.463098463794732,3.3330472410362177,0.043645308005198113,0.35592153657405795,-0.1915855581788044
6.8853487520000005,1.8251809480608494,1.4764798544809865,3.332440160085705,-0.08129599199058897,0.3392522089889099,-0.19180325853092503
6.925348033,1.8916828047713317,1.4321554342749332,3.2983290179975118,-0.147358864562512,0.35562117931579895,-0.20177162619409064
6.965356623,2.0461347954182303,1.4050932390012387,3.2809904698387395,-0.2167018600640097,0.37185952964495295,-0.20514405425351712
7.005359785,2.1492231779385373,1.4248283859491093,3.2871696654857905,-0.3054459052845522,0.37486085640380623,-0.20411042430997478
7.0453602,2.312581549188667,1.3783377603628115,3.2490514069634613,-0.38347527901659306,0.3784993945313614,-0.2132881455602207
7.085350758,2.386246618656503,1.2986834993744032,3.265028250400444,-0.4917655362673573,0.3978037371250831,-0.21520850743371106
