time (sec),x position (m),y position (m),forward velocity (m/s),"heading angle (rad), from x-axis, positive is CCW",throttle (unitless; -1 to 1),steering angle (unitless; -1 to 1)
1.011727591,-2.2349987578030555,-1.1446477674987208,3.2361822584919473,-0.11869314326380591,0.5212114716854374,0.23636044287866512
1.051743865,-2.132809684421268,-1.1415842811771115,3.2556678122495875,-0.05930355968953868,0.491575845889275,0.23018152720164775
1.09175136,-1.9919505615335158,-1.1448442945789552,3.282466201911028,0.026570583068782027,0.48679746761409,0.23866096805014406
1.131723923,-1.8719602855478596,-1.10366185363246,3.3242824343112627,0.12711627384001822,0.48910815030796406,0.2389796564774423
1.171737375,-1.7193101503720312,-1.1178357959711887,3.314694115629482,0.23456155188270067,0.4471795092774185,0.23695204004564344
1.211723661,-1.5630772433223765,-1.08451877940925,3.312709907233314,0.32265706092045027,0.43096145731893615,0.23412379908325617
1.251723976,-1.4782272074520073,-1.0640086636412913,3.273720647497115,0.396251057147944,0.41580332311211415,0.2286632555457524
1.291779922,-1.3701397652079037,-0.9812021709510329,3.273275099398625,0.49753609422514755,0.4255513723910593,0.2238301094310526
1.331729786,-1.253067824432706,-0.9325092326554916,3.2124115836289473,0.5998208195902553,0.38474973775416027,0.21317847471370052
1.371719225,-1.0803741109768572,-0.8236270947162668,3.2120834113761165,0.7219782599404465,0.3768413580105372,0.20854266372984998
1.411724463,-1.0360497955141603,-0.7615163259869047,3.179052496796753,0.7909051647666067,0.3796575340297665,0.20576348116293727
1.451798597,-0.9542411070220065,-0.6516660311732918,3.1990252711889386,0.8605464942977908,0.38708952465422625,0.18955906788603588
1.4917288910000002,-0.8174119686762761,-0.5998619566581731,3.174940866905275,0.9758383682154579,0.41032928722893536,0.15526296815369317
1.5318023649999999,-0.7585046980384225,-0.4092221638075092,3.1993876213776424,1.0737446225653702,0.4257189466247922,0.12841348383606127
1.571717604,-0.7671923440866368,-0.3054491676880173,3.29706495529149,1.1107060744424109,0.44875560301018114,0.10872771790666344
1.611714533,-0.6392523715192645,-0.17985555915349055,3.2996994304774705,1.1947429983168316,0.460012492587951,0.06094871604228328
1.651727796,-0.6083723472003921,-0.08280759763291029,3.3539741985258575,1.1715559371130693,0.4720745621546584,0.008985806578868421
1.691716143,-0.5522286223972036,-0.003114499946197287,3.3919088370913144,1.1708874681048376,0.47892805116898407,-0.032827210201913454
1.7317145900000002,-0.49850029139950924,0.19427536255779682,3.462288158692112,1.1800379680125563,0.47054572558486046,-0.05834173902473084
1.771730228,-0.4522368273827467,0.2681395708007822,3.5500089042991028,1.137205203239409,0.44989035626307144,-0.08707151456844585
1.811739057,-0.38211778708130045,0.39532514846485306,3.534796435736876,1.1222915023388087,0.43083734943454927,-0.11084558448396793
1.851728029,-0.28899845097754523,0.4804894459669545,3.544140250300483,1.0687904025357218,0.43364727671483144,-0.13055949442970632
1.891733287,-0.2635051951177504,0.6371170247206126,3.5434150457924156,0.9629695269597446,0.4081435599007539,-0.14309007707959429
1.9317412530000002,-0.13420905674400624,0.7544458394143908,3.5893575537775817,0.9341548186549665,0.39625929560983886,-0.15642432230189382
1.971734474,-0.09166615241369751,0.875332097370742,3.548720687254653,0.8498697854803003,0.38837510573627476,-0.16508617158751906
2.011740379,0.018831538484655897,0.9533382139500903,3.543130195836428,0.7703743697326318,0.40100586007392414,-0.17200779406254024
2.051808914,0.1495446349869589,1.0046001438088998,3.549713822663642,0.6766158483707599,0.3790807092180954,-0.17024701489835417
2.091728358,0.20403627759608564,1.0830882090792608,3.552054404225297,0.5599885606965512,0.37869245123688283,-0.17415118122352152
2.131725968,0.36270296844508687,1.2155389456988606,3.515423553236235,0.49577115415249406,0.3847187755033689,-0.1770960656056541
2.171770761,0.4549847238628045,1.3204355973922557,3.4768821695938685,0.4169277628031176,0.3997868086611593,-0.1723798527881452
2.211728058,0.6143754595415404,1.3463987835726143,3.510981419219468,0.35271811716127677,0.3788650861406291,-0.1741445350572125
2.251748503,0.7662758505540906,1.3566920233688191,3.516092376934713,0.28612262170801184,0.37837146458451565,-0.17627002577720818
2.291728788,0.8899826417569402,1.4246418066127102,3.4783821927769414,0.16176832183764667,0.38886099341975183,-0.1786948654860032
2.331750755,0.9822546692810439,1.4526133288375627,3.4292920484469716,0.09170779059006935,0.38745885107595973,-0.17402726304012817
2.371720246,1.1696449780291254,1.46612640764077,3.4410279711904597,-0.036386652187049354,0.37356925415390374,-0.17477244827392716
2.411722735,1.3370110740267973,1.425724284479636,3.447128597848694,-0.08986287405248053,0.3806178893720256,-0.1759830406589876
2.451811031,1.4599999881290164,1.4609598430357646,3.4049980566679308,-0.19540381227901235,0.3879987289590837,-0.1772690644230394
2.49172731,1.5877961401961436,1.4428672260990179,3.415926053977292,-0.26823069817096884,0.36190080727546825,-0.16955066218499126
2.531755346,1.665372219030353,1.4003986259936234,3.3896050424916737,-0.3385112866366659,0.3663093785080968,-0.17007840030420918
2.571736447,1.8537720370187976,1.3607873185295327,3.4033776067830597,-0.3781249263616139,0.36797057135590944,-0.171635492269513
2.611729891,1.96575443693541,1.2595166471864376,3.4214013936197345,-0.5044931294302379,0.35855948622629186,-0.1742267147204417
2.651730889,2.0740439901723704,1.1956140303357445,3.375861975442815,-0.5603307416559328,0.3558688712634284,-0.18228536131834513
2.691739834,2.2075439927750597,1.2031868467987086,3.353317932425096,-0.6768344461950591,0.34466060219100747,-0.1794049225947936
2.731730447,2.268289362593421,1.083008261265529,3.3573013507640455,-0.7369241054863551,0.3524209999107038,-0.18303209310194427
2.771735536,2.387337272902838,0.957880385057773,3.339831354327203,-0.827152866343566,0.34348331235435886,-0.1922158451176698
2.811725399,2.427370151633366,0.8738648605873797,3.3104873707690063,-0.8962894802687046,0.3341243058880264,-0.1936425378911809
2.851727824,2.5523981868999925,0.7799708493389979,3.270058221322017,-0.9961563867565215,0.34182018241292206,-0.19550518261272734
2.891729335,2.5844056870406886,0.6646977004022189,3.236049482354705,-1.066781344480624,0.35779377377388377,-0.1975188434592966
2.931726395,2.655979060929171,0.49696245749510726,3.28929490736642,-1.2073365159167253,0.33897907813507255,-0.1861735593221366
2.971752599,2.721281825674064,0.4427239925346561,3.273997992979709,-1.2906199498633026,0.3328901349828471,-0.19199422565032903
3.01174724,2.7643927787240696,0.2784568569757325,3.234442710598066,-1.4290008509213636,0.3424285789770157,-0.198896529847108
3.05175386,2.746921872160956,0.16091821341314214,3.204300713642532,-1.432321056841132,0.33750203696111586,-0.20397813389108557
3.09173147,2.789881479786112,0.06618333011820025,3.156453528361206,-1.572782837013321,0.33340106381918605,-0.20279701884380133
3.131743336,2.78359133668144,-0.06861960031048264,3.1734269431861937,-1.6295629223886139,0.3394468788114864,-0.2027567355462518
3.17173759,2.7738873005124267,-0.2102067575607668,3.188367469866158,-1.738935022537723,0.3623155376216579,-0.20918243542179027
3.21175033,2.783476044702715,-0.3453634393464199,3.1516366092127845,-1.8009392252538705,0.3603651204185643,-0.20807879958899844
3.251744109,2.7192432400643405,-0.44902211484423743,3.1196930883657386,-1.9065070427406599,0.3630009156796592,-0.20934574872430936
3.291741167,2.6850622522823064,-0.5302498179984815,3.136082035285262,-1.9605634108635681,0.3763566055989202,-0.21077548189298578
3.331739246,2.6404944543067663,-0.6948463651403195,3.0958199090206215,-2.08838935202824,0.3969403658554241,-0.21331268226350905
3.371731476,2.5483498998393155,-0.7681785538238324,3.1499663624461784,-2.151160056883293,0.38824572326538237,-0.21402626555176374
3.411735014,2.5100268590783874,-0.892557024474724,3.1641397960207795,-2.2753322859855194,0.3839970246285317,-0.2147543288569918
3.45173313,2.385490396716055,-0.9611439962028889,3.137139196118932,-2.3567531165335134,0.400971972828259,-0.21650404595412837
3.491729447,2.322156297949179,-1.0513888902013568,3.171952484925293,-2.4373265509370894,0.4042380784529317,-0.20995929180651973
3.531733864,2.2203869958584175,-1.1274150735144322,3.14136378648247,-2.5367043859126577,0.3894056177766717,-0.2104492357862695
3.571724405,2.058434246320066,-1.2067004651687878,3.1480669138764896,-2.644197933051935,0.39989251830447764,-0.21022555380948
3.611723772,1.9957877869989114,-1.27436647412707,3.1515416762435287,-2.7319875682715855,0.4070778857183561,-0.21213757531980282
3.651823577,1.8157085735827412,-1.3368270318433875,3.2229702566754765,-2.8151351812776757,0.39634499074457447,-0.21056901269759712
3.691735624,1.7420696459089877,-1.3395907946244867,3.1843131125162074,-2.8812372777521795,0.38178542037565977,-0.20620263986743684
3.73174373,1.6278583252271008,-1.4233586851654714,3.1816927613499755,-3.005841263378901,0.39150218685335914,-0.2140228569724768
3.771736048,1.51375069347013,-1.3908925116878068,3.1499377924093377,-3.0543835515528905,0.377979417306079,-0.22077562962500666
3.811723514,1.3483100685309206,-1.396586619334555,3.1952202065606605,-3.2259629080029915,0.3757042576864256,-0.21771488564729682
3.85174711,1.27442207073076,-1.3986542208702453,3.183485006306267,-3.2824477466992508,0.3718817965037269,-0.2142674293567181
3.891736213,1.0818063086706613,-1.3576789848571018,3.15290385115854,-3.4153772764166397,0.3825007002640527,-0.21124658526521684
3.931740745,1.0141248663377234,-1.3503835718925954,3.177665899761302,-3.4685861767950863,0.3670412208781133,-0.2013028789787073
3.971749258,0.8548948840010181,-1.3157948505076766,3.136307287953479,-3.570731892345585,0.3658533213568298,-0.2063691383739209
4.011728123,0.8136717421256071,-1.2525789909660916,3.158196659257323,-3.676749368982416,0.36615807459236777,-0.204021075921349
4.051775181,0.6801934754295522,-1.1680833536837831,3.1304483899729973,-3.721706208929663,0.3807497165011722,-0.20352939667104872
4.091731867,0.5013842806424557,-1.109282205860573,3.1396809550055407,-3.8508647271002774,0.3601808733957772,-0.19543127390469092
4.131730515,0.45848495792728733,-1.0434470126086257,3.155643872806754,-3.908405984810088,0.35349683415793703,-0.20363686800744632
4.171733242,0.3612098250398484,-0.941608652433125,3.135409135445424,-3.9907165082959644,0.36236219514600193,-0.2055992223116986
4.211789659,0.27553113797413153,-0.8258657807223696,3.1103981998639836,-4.113763603198216,0.37141411420164566,-0.19415373804914096
4.25174668,0.2550887796961493,-0.7446911028712964,3.1444453288280063,-4.204703214669122,0.39947299900131134,-0.16872641113678735
4.29173229,0.18666331625361826,-0.609385538340081,3.179007149425823,-4.277069617460261,0.42760986377459076,-0.13547690875280383
4.331728481,0.09448523040619518,-0.5320755974923572,3.226874475573032,-4.275168867002961,0.4486498793751622,-0.09507582375855372
4.371728922,0.029693619212978226,-0.3781424856634568,3.361565562639629,-4.355578001329171,0.4534200807523199,-0.06365433248315984
4.411731086,0.026408706440692778,-0.2612735160084854,3.3964204617684888,-4.34051757811014,0.4529480572858228,-0.017880988429909803
4.451815878,-0.022839319197498147,-0.14035826377008984,3.458583346793085,-4.330129662662501,0.4466083537919126,0.019752208141645834
4.491736621,-0.140685210818692,-0.02691298092757105,3.4921410736379213,-4.3109437275311215,0.40845842415555816,0.04882924083288223
4.5317319860000005,-0.15609876720594484,0.11892606678872118,3.564399432282225,-4.255426464958629,0.38566853164756587,0.0739757109581563
4.571777952,-0.22476529711267654,0.24301389381157237,3.5824476455768677,-4.297608930280803,0.35556928495468026,0.09685382387774627
4.611731136,-0.2745034919503637,0.40161212189848733,3.5236583328906996,-4.225270339481576,0.3382241683503118,0.1168397330629789
4.651728972,-0.33473947288991684,0.491587777940575,3.6256636611524615,-4.165605083681696,0.3044958381373582,0.13086766938952157
4.691739728,-0.43084838206854353,0.6322197407691449,3.589508631342104,-4.074000616326047,0.2730476020891271,0.14524009850640374
4.731812961,-0.5100356404714625,0.7146756749826456,3.526711919580568,-4.04328539396245,0.2630663962070413,0.1539614620286008
4.771733652,-0.6037159642021876,0.8814331830446529,3.506039166972398,-3.9330946911307136,0.25188873855718785,0.16800938691412307
4.811726711,-0.7011701968813213,0.9412753303033757,3.4767768706795508,-3.8393869649154477,0.2344734473539179,0.16823925132073814
4.851733224,-0.7729780148786277,1.0192785253970595,3.4342098677731996,-3.7881982080258685,0.22717939341282523,0.17819118808756593
4.891733098,-0.9312910766001663,1.147466939478528,3.4217256055919796,-3.6637793280398654,0.23352486235246506,0.17318581478611164
4.931762534,-1.0126089093385495,1.1710591706378455,3.332023907818116,-3.605073381828873,0.24137420679886554,0.16836038752005247
4.971771659,-1.1365778296964675,1.2299327906558264,3.2999273487323415,-3.4924226159239184,0.24606369133076852,0.17573618007183378
5.011824487,-1.2478422566191447,1.3002770650069557,3.251166684631421,-3.3910112506845036,0.257139469123576,0.16874117210896028
5.05177965,-1.368220938472731,1.3127430105898688,3.1692733499539814,-3.2671769594468136,0.2877428711973782,0.1772232630625139
5.091729872,-1.5819375300732772,1.3744907847194014,3.122971633831602,-3.172291151327373,0.2979872837893271,0.17094353683338773
5.131817237,-1.6465389606093508,1.4278281839412676,3.0895077711735035,-3.1021537424751124,0.29765112097788815,0.1726766339723029
5.171731101,-1.7674788740062235,1.3203079350562663,3.1118114562049257,-3.0340219097706744,0.3191687488627392,0.17497626821168993
5.211727899,-1.8489429962984993,1.3211276488657793,3.1022577304967025,-2.9351114776598637,0.3376218657283207,0.17103752629592545
5.251726744,-1.9997225611884752,1.3038408688503496,3.081418666157533,-2.8921347754952995,0.3292532539349987,0.17206699664324152
5.29173002,-2.1708169032481863,1.2945691684741296,3.1184485470173566,-2.7839509121165924,0.336461016709183,0.1806236040429037
5.331737446,-2.191217110383626,1.2504786954002567,3.1169237282669866,-2.698226529235557,0.3410974743867703,0.1768401546350792
5.371724345,-2.4009232401475478,1.1692644075653296,3.097328576031895,-2.589419781956051,0.36433353629698867,0.1882102753249339
5.411731361,-2.446630156775513,1.097841740873709,3.0504979362799642,-2.525977633449795,0.3301513357785488,0.18425699081765315
5.451805103,-2.5609364039019895,1.0632780038372653,3.0474166331403496,-2.4391408773077923,0.3422576577841599,0.19402184235488557
5.491731316,-2.65653434081128,0.9265437926193799,3.0567782428100934,-2.325284341490783,0.3443636233929197,0.19029120946348652
5.531812693,-2.7125258171158872,0.8588178282910086,3.0262799158287046,-2.251687946573361,0.3439986512801761,0.20036746002802772
5.571732509,-2.7890865824772972,0.7989812683040287,3.0508720058648042,-2.1851024211697405,0.3338777731977185,0.20105154300028386
5.611725842,-2.8679631766326774,0.6498632845547017,3.021074662325109,-2.088739355344051,0.3319234966476648,0.19374242782798348
5.651754583,-2.893859288604501,0.589327013881555,3.0213748509053735,-1.976969116453203,0.3586402203109424,0.20061460738208375
5.691727321,-2.975971680280542,0.4373656047801304,2.9905101333593027,-1.8670573979244482,0.34168315499908286,0.19556003263884206
5.7317691150000005,-2.9869405706420133,0.33129777641890457,2.965246302953234,-1.7716865232284622,0.3468884894093327,0.1990322407631348
5.77173078,-3.00543314438712,0.18162240988101003,2.9244802732305666,-1.686565532929651,0.3593848488164835,0.20241668423854187
5.8117269910000005,-3.0470025968013537,0.13130891291548927,2.971202705700051,-1.5976056005643444,0.38031011732719183,0.19829564326984694
5.851722446,-3.041644690569783,-0.04638431567923577,3.065056936666865,-1.4887631313817853,0.35386136972693444,0.197291722902121
5.891732593,-3.005976997783889,-0.12900928534094994,2.975578110706259,-1.4277807785070524,0.3772115927380251,0.20180711589928332
5.931732564,-3.034752184415897,-0.2554206982969746,2.995565539694203,-1.2745071550248,0.37948496889438,0.21125680156765053
5.97174224,-2.983277281157124,-0.36233291816990437,3.0044806929601098,-1.222968261386327,0.3639149826971572,0.20718137703940598
6.011746546,-2.9275296135502282,-0.49312289048142555,2.9838944766213644,-1.137972704045703,0.3838196241773,0.2154013036158256
6.051843598,-2.8524982841168303,-0.5717262944164064,3.026203335011979,-1.014674506687411,0.4015221290155771,0.21787106447319096
6.09173441,-2.8455278451824517,-0.7082224515252524,3.030588007521486,-0.9387390006677285,0.42212886666182764,0.2183752212894936
6.131851139,-2.745340082865895,-0.7828734147231744,3.0635785505773474,-0.8356964338348386,0.418277592312166,0.21700351104371016
6.171734541,-2.6147775633502404,-0.9182107828212303,3.06526031196869,-0.7252123778104815,0.42060756187714565,0.2186588460872986
6.211750495,-2.54727216223816,-0.9551129426229072,3.0526971128620435,-0.6430071350421273,0.43949825177763324,0.21750920516535385
6.251739921,-2.4435811513183623,-1.0259315555676338,3.026126111528995,-0.5705378896729777,0.46854280573073004,0.2158984488676422
6.291737719,-2.3649558540304714,-1.1338727573979106,3.1075312596781366,-0.4993641400759685,0.4376826870803997,0.20236966394166547
6.331746112,-2.239947065602444,-1.1459384608015875,3.099982812302117,-0.3849552726395016,0.4552839933843781,0.21065948976162527
6.371718975,-2.117475918528083,-1.2005473805728857,3.1431428553413525,-0.26756494056851654,0.4785939187179792,0.21106542921891405
6.411725392,-1.968715932519134,-1.2706127613889304,3.1702744253134565,-0.21196902672413429,0.46277173731459925,0.2048378358980653
6.451814532,-1.8946601906990084,-1.2602741999287679,3.172614306073008,-0.12665354996609393,0.4523570547807604,0.20548385797515742
6.491729885,-1.7419496826117482,-1.2570524113930526,3.2268763670934084,-0.03744781305067055,0.44144169895588187,0.19844223554291213
6.531734692,-1.6319496701181924,-1.281839854328978,3.2556376395131146,0.0634024953600767,0.4550963771080933,0.19922508176295287
6.571728713,-1.5172735133938922,-1.2425258053039603,3.265784007084387,0.15287603398523752,0.4868239813778592,0.20623581767176669
6.611727178,-1.3372509120152258,-1.2472752684744786,3.2484562781415254,0.2894454017977745,0.41997767185426277,0.19439421992381095
6.651728949,-1.2569763254384358,-1.2592664588380003,3.2331209000507752,0.3385235170166891,0.41324519809752513,0.1946494196884017
6.691791382,-1.0900715355612476,-1.1694828931809922,3.2673414914852588,0.43850508967500146,0.41944087687231235,0.188567967073304
6.731818148,-1.0210184487460043,-1.0939629995660947,3.2669428049837927,0.49980798586792774,0.38866148084594165,0.1857940848266361
6.7717300080000005,-0.8916552967366704,-1.0686974729547516,3.2201361933989214,0.5897096893645611,0.38517706103177124,0.18992014036974753
6.811731571,-0.7780719111021505,-0.9804235381615063,3.251693185139752,0.7103722879644843,0.376589965846367,0.18154396623606284
6.851818695,-0.6856291408135825,-0.889761981629071,3.2086152834215804,0.7573789637768247,0.39618936454585124,0.18804770000804677
6.891725585,-0.5731577931433909,-0.7882573585940676,3.243059581557766,0.8414720241139988,0.3648417925130813,0.18071373868090912
6.93172666,-0.4968477603645421,-0.7099647914490128,3.179160871338642,0.9535674051967138,0.35405875159718797,0.18434600178591953
6.971730373,-0.42709026816998225,-0.6117501625141596,3.173803003001069,1.0243954568904508,0.35639811027387747,0.18774879051443027
7.011724287,-0.39349923467285153,-0.5072443350260482,3.191984294205107,1.1172990572924795,0.3560103889353992,0.16879503770966395
7.051730837,-0.2859539491428693,-0.417773978574161,3.1451691363345966,1.1809185545417804,0.38546936182281827,0.11583361932752126
7.091727039,-0.2764562145284859,-0.24153368974164455,3.2422995284959986,1.2334317481629409,0.42112302756214653,0.07094720615056133
