time (sec),x position (m),y position (m),forward velocity (m/s),"heading angle (rad), from x-axis, positive is CCW",throttle (unitless; -1 to 1),steering angle (unitless; -1 to 1)
1.006163203,0.23848134781703967,-0.21234401291304641,3.1828663065604363,2.0034896317504716,0.407121246356944,0.01581006319652727
1.046158422,0.17090275690925572,-0.11950337530228498,3.2242291751757337,2.0471353122419655,0.3719883338110657,0.04569249944078877
1.086075669,0.13335870057456004,0.044840819177471146,3.320440276648272,2.083492396476502,0.35003649691411687,0.0728302209552343
1.126076887,0.03854757571432994,0.12783736644393973,3.3057555970275554,2.119050447171456,0.34195166583009695,0.09852371234282971
1.166075865,-0.007678834234202139,0.2406471044026982,3.3358840414759996,2.134511894240478,0.3187641891916844,0.10822118807269107
1.206075884,-0.08727023349236128,0.3497407438231461,3.298602640063253,2.2233826074894445,0.2905804609496806,0.1283709220377788
1.246073864,-0.1652690724983367,0.45330573977601335,3.283955003740102,2.2432070051393085,0.27989145136121313,0.14526082360408366
1.2860809880000001,-0.2739827210157612,0.5364580357026686,3.2987825129311634,2.331282224287162,0.2818847113589384,0.16297329677783223
1.326076402,-0.3623296541764364,0.6668319214078097,3.2746248276389207,2.4119495525044274,0.26459258947628367,0.17625252051043971
1.36608623,-0.48769055828488117,0.7153633223645659,3.240884453129841,2.4595707285523583,0.26075423686604465,0.18595919027268937
1.406087403,-0.568768473837557,0.8100035360909045,3.223122804019275,2.5554270739199656,0.2537673149504896,0.1944259411165364
1.446086136,-0.6516480992368145,0.9072266795879673,3.191575172613101,2.726941841501499,0.26422089563394624,0.19628917644825108
1.486089491,-0.7627769273375609,0.9670412121427232,3.1142178622905434,2.7514332814282594,0.2555427876022623,0.19905101966757213
1.5260728270000001,-0.8866453801911243,0.9908702762583019,3.089002709608684,2.8710836525781436,0.26039717820501007,0.20094403830353685
1.566079983,-1.0404071763768437,1.0354398082960563,3.058340280901113,2.9422775550858793,0.2781723990366202,0.20110704436822416
1.606100088,-1.1117323045052454,1.0673327723860233,3.0502653926620296,3.0217573351519786,0.2853168300897146,0.19485358064842914
1.646093577,-1.2269770367282395,1.0851418961701393,3.0209825554568543,3.151641054193963,0.2860030843095095,0.19499275837085503
1.686074175,-1.363421724169229,1.0888552183789924,2.9649840780736954,3.1907856435959605,0.29573959318113435,0.19659387002733597
1.726077816,-1.4308232119836826,1.0701334973829928,2.959196705492911,3.2937625702563675,0.31752020207847614,0.19986781264059908
1.7660842730000001,-1.6033284902472633,1.0462356811869797,2.940082364217874,3.3632763935173213,0.3147172073897146,0.1954742199968908
1.806138088,-1.7325869461356835,1.0219975460478399,2.8731226179081792,3.4549794681829957,0.31319845013993525,0.2002043950809466
1.846157175,-1.8366690211910803,0.9864057863641572,2.9356051274625674,3.535559398951894,0.31979842059770197,0.20520892698120388
1.886086609,-1.944052137529428,0.8991953445069835,2.8978220188434167,3.658924113337158,0.32851983451916444,0.20628067770482544
1.926096007,-2.0237394995699955,0.8313189550166326,2.906780365813734,3.66186788770042,0.31798235840322486,0.2096761325334622
1.9661481470000002,-2.110086129711195,0.7757378342700928,2.8751713292677,3.7638566257329176,0.32447161271108127,0.21374914992160252
2.006073984,-2.188057208317394,0.7143495592178862,2.864360463836997,3.8944593319635645,0.3248951254354942,0.21893775126170076
2.046079035,-2.3413314675382253,0.6473727150141706,2.892451795070423,3.9730470909971056,0.3257714012535407,0.21620883551341166
2.086074571,-2.3342802549783284,0.5857756225590065,2.9071429089999996,4.064281698994273,0.3176416030626019,0.2222212867292843
2.126073842,-2.449302209262125,0.4815910483354647,2.8308029582931167,4.1336429803607055,0.3217250417473072,0.2266014176589809
2.166075866,-2.47387660903442,0.37042004745849805,2.8511788339716224,4.214798718840571,0.3306786597903621,0.23134191600096723
2.206078832,-2.5587134681924226,0.26118735297976703,2.8457855994932872,4.35731338763103,0.3144776565000731,0.23097788357802257
2.246077261,-2.5644191123309863,0.20171328835322927,2.8263514132806034,4.423109825180875,0.323000996717675,0.2320897946193576
2.286077249,-2.617984251783734,0.10425100494285956,2.824694939251588,4.479641879327117,0.32919026791208694,0.23311463201879873
2.326073762,-2.6444608422653233,-0.037884822098665095,2.764705964929997,4.628225164792278,0.3396921879516994,0.22644019546549404
2.366170227,-2.6951196870233773,-0.13165440909852866,2.828669570793718,4.670385273955893,0.33481939879863715,0.23033739646052992
2.406113736,-2.6120683351499423,-0.26928536794221103,2.760162377856086,4.779720815427294,0.3402658813068156,0.2406701669321291
2.446076802,-2.6003440598052037,-0.37429122689177485,2.768457083439458,4.865954564903387,0.35655505474042143,0.23700804487672936
2.486082271,-2.61416179985814,-0.5034491771117385,2.801301812900645,5.0094829887207855,0.35239965695740655,0.24286608067791343
2.526073202,-2.5237405022662642,-0.5789118371611157,2.7821300976966423,5.052742998424062,0.3435418735756465,0.2359018991843572
2.566071607,-2.5454973761540005,-0.7188014742699008,2.77996282290635,5.147949761110107,0.3545807850146216,0.23736019604517444
2.606076797,-2.454234241245296,-0.8181798938225657,2.797546547021492,5.282882852291352,0.3651099666353343,0.23837731272468038
2.646073354,-2.4400167761231732,-0.9178618338405394,2.7589375214435132,5.333761341453046,0.35599907745190956,0.23062331943210274
2.686074311,-2.360848490461549,-0.9671158868569133,2.777541968593348,5.426820630904415,0.35598761376494154,0.23369600922263659
2.726074375,-2.2593789556981383,-1.073361110265677,2.802543312540735,5.493363302459652,0.36238945167356346,0.23678768662566577
2.766080701,-2.192528601177207,-1.1665985827109828,2.8087894979749812,5.56281587393648,0.3907422738827105,0.23998955772772956
2.806127547,-2.072187908521744,-1.222141820082371,2.7903379738030263,5.716500655885152,0.3597498876378262,0.23170780044460426
2.84607869,-2.0413466251185706,-1.2503683762118238,2.805594962114346,5.7844679792907785,0.3631257892985366,0.2372392157675281
2.886162527,-1.91009169281273,-1.3230332030477352,2.7959667920504554,5.8770009631500555,0.3705735974456759,0.2425336475463232
2.9260756480000003,-1.8078573654415575,-1.3771998900625293,2.8150142700904706,5.970710848742581,0.363649668352444,0.23472085362713987
2.966072617,-1.7260398107565662,-1.407852425915286,2.826505073958995,6.083065825436364,0.35855671695919483,0.24278225568497735
3.006075595,-1.5968173068916882,-1.4090402652857323,2.8566553283035505,6.16001877726871,0.3704688336787393,0.24240314676569533
3.046074765,-1.4772014459721754,-1.4331852190184318,2.7808820502560305,6.242971550740565,0.3857272969727601,0.241692576801459
3.086074669,-1.355839306911426,-1.4564862651494705,2.8203580114173583,6.328630801486317,0.370254501892509,0.2358158049130369
3.126077823,-1.2561274377353082,-1.396386586584219,2.8371627643223047,6.413792367244054,0.36448448559144375,0.23677055526572177
3.166197524,-1.155004419811606,-1.3743442244776969,2.8302005054902746,6.565258633014018,0.38225173251595085,0.23903955081965533
3.206155264,-1.0585410000799016,-1.3667521668212856,2.837604860888544,6.625980171185032,0.3933768630194359,0.23983860261830697
3.246086266,-0.8709583493639311,-1.3142511268826214,2.8211487069786263,6.734109746979548,0.37648766177605836,0.23030265235129413
3.286087438,-0.8228920558058077,-1.3069845924245644,2.838205608890479,6.8284537816242015,0.36904343388958855,0.23036905632662985
3.326077568,-0.7165940800659893,-1.1871661495561368,2.864086910991578,6.942626837554223,0.38512838571774,0.23070724856441727
3.366093761,-0.6232712499071282,-1.125734432463721,2.812301998911136,7.044550465559637,0.38072738723136684,0.2284541258700487
3.406074974,-0.5458301970713172,-1.0522687738376737,2.809634155486624,7.108190174962945,0.380052698447085,0.22712152634432003
3.446078112,-0.47815434270784657,-1.0016249495494132,2.8548075070491103,7.157137593513737,0.38200011340537554,0.2278760056681659
3.486077366,-0.4323292006090682,-0.8621589815440948,2.8821748449917997,7.291046517706185,0.40109275528870786,0.2290564320045778
3.526074973,-0.33486949759511336,-0.8021997241716342,2.8896611173675635,7.360912770440548,0.41105302929438176,0.19150635138717303
3.5660715510000003,-0.3234238579962766,-0.6799454580243347,2.9138826992847076,7.426640091993385,0.4187627803003389,0.1550261987874486
3.606071359,-0.22033156233702023,-0.6173031655904445,2.9342855274867974,7.493140982979718,0.4282613435457674,0.11926496305121025
3.646121652,-0.18612812348609054,-0.46934289490108105,3.028735981898121,7.540864780244049,0.41826959766346095,0.07931271019143254
3.686089892,-0.1625006860333783,-0.36789648388194196,3.0316676673703866,7.533978557184444,0.4062371444179687,0.03027703051287079
3.7260785160000003,-0.12539722830590336,-0.22717859730945766,3.0799110604741675,7.536234567985954,0.4061690135906427,-0.013403331686413288
3.766093754,-0.019659791043389635,-0.12568522378534147,3.1298011535771075,7.544988857013164,0.39944283553416443,-0.05223280685931531
3.80615689,-0.08392122000815522,-0.046915907659929534,3.166490161203165,7.564527242716724,0.3843066969448146,-0.0765438860921149
3.846102207,-0.016324082098883787,0.1258491612112854,3.188924280159664,7.505604749732566,0.3492735381531511,-0.1106196426901728
3.886125325,0.03116361956708458,0.2136238405325519,3.179243779998348,7.481267406831797,0.3345960210039128,-0.14082075407737943
3.926089196,0.08337137569025733,0.3466402101910105,3.207790931010469,7.404755907371653,0.3404169919394859,-0.1682561865726979
3.966078002,0.17518818442552403,0.4347300544031615,3.1913821871589336,7.347877477163963,0.302306360006738,-0.1786779725846954
4.006077561,0.23299010495067016,0.5988525185591083,3.1682164934553345,7.2318727418833735,0.2883500102102761,-0.19844323742309802
4.046090972,0.2965194962481837,0.6268438755309358,3.1379184227500567,7.207130780865162,0.290121830639201,-0.21271482338430464
4.086090579,0.3885935741432247,0.7472043348018903,3.0933180680638084,7.190434015645565,0.30480480727457565,-0.2229209909972275
4.126073256,0.4959987796842601,0.833782768433559,3.081526944649255,6.995577924680811,0.2806852509565299,-0.21668194669628965
4.166074778,0.591993619403023,0.9532028908110267,3.0751053191871476,6.94274793508182,0.28648101950267624,-0.23352860330845815
4.206106514,0.6179472254567904,0.9731615796619035,3.053179401022382,6.834764268969653,0.2955183011324276,-0.23661924282565497
4.246158911,0.7997740767897469,1.0733276297459016,3.0332497821964512,6.756118873651268,0.3048912791679246,-0.23053544073709456
4.286102359,0.8937736318918649,1.1152061752492586,2.9977111435491257,6.648519924291145,0.30393854172551565,-0.23113534250153123
4.326072923,1.0411262593746076,1.1670358756394694,3.0030925437601543,6.53354369962247,0.31633161264087184,-0.23899991327278602
4.366089555,1.092483143012358,1.1809869919063338,2.932164597131807,6.48241195023191,0.3300511649619681,-0.2320153758466535
4.4060865190000005,1.2498825002902247,1.2044545393789972,2.936547222007204,6.385887595421441,0.3218089847895821,-0.22610883099438148
4.446132302,1.3342559920804928,1.1814279483584893,2.943568990578304,6.289779063644419,0.317825293924956,-0.21987468456991735
4.486078798,1.4742550046379288,1.211688962976557,2.9240621993545224,6.206210256932707,0.32340954853745724,-0.2296458842632634
4.526085008,1.5699542791390069,1.186268849405985,2.8930147883867403,6.113395613534413,0.3490630105746567,-0.23349090831811092
4.566075662,1.6932812268589603,1.170558294987103,2.8935086424038556,6.010367178026703,0.33192356789054706,-0.23164029474266862
4.60607831,1.7968366418201043,1.1517149639315796,2.924877357788428,5.9742827369497915,0.3293780749724847,-0.24133339695637882
4.646074007,1.8825706556817632,1.0557111373144412,2.883774942217624,5.85589206215827,0.3422835376625223,-0.23792659449879966
4.6860766730000005,1.9956106635136504,1.0556379822269255,2.9289513886956353,5.753564350642881,0.3418869093899688,-0.23890776145045833
4.72607178,2.105850550999285,0.9429642363142572,2.9313294864652217,5.650798237108801,0.32697748384959235,-0.23938221253971592
4.766085525,2.194272152289932,0.8969567771938849,2.8933111354440437,5.594080669505165,0.33109865646979647,-0.241085190865604
4.806153496,2.299321459229787,0.8210304949985612,2.8606445970096694,5.480390254491855,0.3454618581636487,-0.24938477949876173
4.846080252,2.365165510789724,0.7686729228946716,2.8534158893023305,5.3917277876249905,0.3342177447384608,-0.23740887713469325
4.886075678,2.4288621627149225,0.6407542209889149,2.8966664896609426,5.277892154854231,0.3309212673801097,-0.24073243615137468
4.926072908,2.497933834106751,0.542621458184838,2.8123586607112423,5.235530811357163,0.3362520773684996,-0.2427213327827968
4.966077075,2.5036972732665213,0.46523495292145234,2.8326555420739212,5.156272228850244,0.35521011620731363,-0.24554570358460706
5.006074291,2.589652005688497,0.30671814952321397,2.8887831079026234,5.0385909961061754,0.33104589199905093,-0.24142378077547585
5.046074902,2.618666841271738,0.21482930768287972,2.8364821777632594,4.971309011131503,0.328823570996739,-0.24363286499871611
5.086076227,2.6219763082327,0.09333233968978072,2.857838468799927,4.8297922588315085,0.3378075429631698,-0.25400659230257233
5.126086826,2.6172440516802156,-0.007991031493914325,2.81028013971746,4.733244728477048,0.3314362247740271,-0.2480720553738174
5.166071429,2.5966212609349815,-0.12455570107782896,2.8110578278989475,4.655291585355145,0.33409930002403554,-0.2507408545392295
5.206073111,2.6119772558096694,-0.23982618142901482,2.810140337446071,4.547384489758958,0.33030925884663076,-0.25123913707848916
5.24609814,2.562333530652105,-0.31835348143284303,2.7979779871137453,4.433632160196864,0.3464961934288026,-0.25208244813171693
5.286079281,2.6142796376276705,-0.46584159481662624,2.819380528059071,4.383434426236809,0.3431032050664336,-0.2419864691313444
5.326076883,2.5463627218726,-0.5570182440855229,2.7594398393026096,4.309047889599879,0.337497130683712,-0.2459781690530373
5.366078008,2.47948805748032,-0.6771181699205387,2.772727342658099,4.164596164014104,0.336132297810628,-0.2505162339809081
5.406087522,2.4226056255274786,-0.7540606853166035,2.816263617374853,4.125742985795678,0.35484177724924926,-0.2539277827766161
5.446075733,2.3293636311637718,-0.821092264541216,2.814033480710066,4.024871680559194,0.34896294159379654,-0.24824817419951517
5.48609024,2.249598742603046,-0.9179663234748912,2.8038270908705876,3.9088908309192063,0.34556721352300285,-0.2513733820549938
5.526118403,2.2187824890424155,-0.9781785511597298,2.8527193322851767,3.830208677062169,0.3433650145297434,-0.2552949199131347
5.566083208,2.084362384528897,-1.0872525070350967,2.7932968727910175,3.711080711995529,0.3524051171935465,-0.25618256925259275
5.606077056,1.991930042078796,-1.1370555357179386,2.814649864436587,3.63580640473218,0.344080647081361,-0.2582691954017351
5.646074331,1.9027312389494966,-1.158134467466705,2.799164191423978,3.562722902314233,0.33875429783802513,-0.25977595898284045
5.686076502,1.821993150223998,-1.2075184809049901,2.8022355160236563,3.4942633198620587,0.3557683932130698,-0.26167778419732984
5.726074568,1.6473905930036994,-1.2386536521100733,2.756474500616332,3.3591058957733098,0.3477760883295318,-0.2535130903660812
5.766075805,1.5785032494740483,-1.2364595101477707,2.801323547662104,3.2627360224691513,0.35247901133912035,-0.2604304233503621
5.806074942,1.4740395308878784,-1.2830496703464722,2.8288358140136416,3.1697241902328526,0.36651076987947256,-0.2680181833896481
5.846078521,1.2852272738528179,-1.2235372001095735,2.834952494445518,3.0940617748558488,0.3806178530216261,-0.2591284056571768
5.886091706,1.2407531477240707,-1.246584900467787,2.8659482877639695,3.001799661240183,0.3646337897877933,-0.25267674225487513
5.926073161,1.1056205686912965,-1.2088385652407938,2.8211195966630953,2.8960417304262434,0.364526057108407,-0.25563316589824286
5.966169313,1.0147964589599665,-1.197685057501113,2.8329147018763448,2.790666313790417,0.3677127262589675,-0.25105473363357406
6.006084161,0.8827820515607256,-1.147140432294336,2.8466301854516223,2.690694446739832,0.37404081673088946,-0.25104412482944566
6.046196768,0.8148710371169238,-1.1332275914782985,2.84282268829493,2.6526117030595278,0.3698885665269518,-0.25120151569899746
6.086089483,0.7318736060734712,-1.0516993294330594,2.8510213778537867,2.5609851194136732,0.3683233341548867,-0.25283577217902226
6.126092022,0.6384723050958678,-1.0107106169802451,2.8302596564773306,2.4414580118437503,0.38084685242113475,-0.24595688931595464
6.166075928,0.5242040340185903,-0.9302404789202473,2.847314527077615,2.362234327232723,0.38186960667926334,-0.24789220074343615
6.206073468,0.46161371667307366,-0.8448653604771544,2.8264909846343222,2.2585174548540223,0.37515862522726945,-0.2469245179011441
6.246073456,0.40769415793878233,-0.7241550274011599,2.885852026360083,2.1412432446584235,0.38237314370682274,-0.2533268005706222
6.286095194,0.3662263957112371,-0.6407504732850754,2.839440833613043,2.046130665002239,0.3938144156679303,-0.24549095450872607
6.326075001,0.3020737901613194,-0.5313210314887478,2.912713913468791,1.9397356624211688,0.3961160075940815,-0.18008194232897054
6.366074244,0.27203462642931286,-0.4552492286058837,2.919378002350348,1.8796372435091397,0.41076944256901615,-0.12155312275417948
6.406168223,0.16130349351409454,-0.2970914282111267,3.026680088583168,1.9424031917355369,0.4237235514212504,-0.0634880184877648
6.446138193,0.14629046187073885,-0.22894862968147803,3.0861327680422703,1.919565955608399,0.4332119291842274,-0.011967749125991313
6.486084663,0.13859305291090365,-0.09509278185093509,3.126002433309541,1.9574651306491266,0.3852947348202662,0.022622087364882186
6.52607353,0.06895680941848195,0.033477686805556295,3.1649706250799743,1.9588096183844939,0.35244597128446914,0.05558105135402821
6.566077931,0.02285272087755718,0.18132066060433685,3.196177311650693,2.0058147596473677,0.3486516483647993,0.0832555614034942
6.606072489,-0.042686034968576356,0.29783759897057666,3.236803707966089,2.0462546509768162,0.3363680822974093,0.10209832700328408
6.646074543,-0.075826060970606,0.408642412019274,3.256577229959646,2.0690938779305794,0.3026900181228293,0.12565956684282734
6.6860743540000005,-0.14660055094253976,0.48701666663350435,3.235237371836413,2.1658652105537852,0.2868970120979429,0.14546166707323313
6.726087738,-0.2566666134992357,0.6211091772534729,3.219565104213764,2.2304266830477526,0.2984684692058677,0.16325388240415564
6.766077214,-0.2994563990404845,0.6643538018843521,3.2323099841480625,2.2795236287950766,0.2790615844699225,0.17009388937061026
6.806124747,-0.3984560369143786,0.8208544298543118,3.1798634355762228,2.341675486815255,0.26199590793527083,0.18381841487134706
6.846094608,-0.5338469534025936,0.9337797105048691,3.174461564908797,2.412373387599192,0.2641931749706758,0.1953926835543075
6.886073696,-0.5835325124544539,0.9817584151826165,3.1435441223419573,2.4880244866383867,0.2795226312160417,0.20553059460367692
6.926076421,-0.7105245535602024,1.0805658656296913,3.1088050872411648,2.587223520450224,0.26700717519258294,0.20583847516128453
6.966071559,-0.8047885607737869,1.077621982047154,3.093574592595255,2.7288174426709797,0.2585082903070549,0.20347807858127823
7.006074984,-0.8807320915533304,1.1444039835201003,3.0566324721912155,2.823217398499119,0.28139815597376366,0.21338776198201181
7.046089185,-1.0012915972085479,1.179421334789012,3.002940716878929,2.877457036756606,0.2896637244765831,0.21080285816980926
7.086073507,-1.173212424934952,1.2275938298079585,2.9578584572314437,2.9745720971062264,0.29906672300410597,0.2100131387137334
7.126071737,-1.2324388847382708,1.250794611072038,2.9132502675642407,3.0878598249911495,0.30688224823867605,0.2089056334454101
7.166073476,-1.386301220401763,1.2614617114613618,2.9431032730730706,3.194760575147952,0.33137462238799575,0.2167664693253231
