time (sec),x position (m),y position (m),forward velocity (m/s),"heading angle (rad), from x-axis, positive is CCW",throttle (unitless; -1 to 1),steering angle (unitless; -1 to 1)
1.005965918,2.0485053345012676,-0.9470340060588966,2.8977566359101163,-2.95900423317876,0.4860320506254024,-0.24566318165244624
1.045984008,1.9432043418518405,-0.9780507931756751,2.891146565576498,-3.0252741831783108,0.48143308777858057,-0.22726055103989992
1.085973102,1.8689744610652301,-0.9946353498645534,2.933667058856434,-3.093286265422166,0.4585496464171372,-0.22724691614699483
1.125994098,1.7462282266998173,-1.0065205129345975,2.922084095748033,-3.293776605002226,0.43365691183475125,-0.22853395824146736
1.165979411,1.6194298785929295,-0.960400343648703,2.964340931404091,-3.336986764900184,0.441278863433988,-0.23011994658603796
1.206002022,1.4939750870234656,-0.9889777136304942,2.9005104522280054,-3.406720588769932,0.40097721319158114,-0.23080478346192015
1.245973088,1.4003925408673452,-0.9261395599566353,2.868202700365838,-3.541210574054784,0.39023711960670077,-0.22773303739879383
1.285976092,1.288165379286641,-0.885483451552614,2.921507631805294,-3.6532342748637507,0.39185313968826785,-0.22450580937210948
1.326021506,1.170323629168397,-0.8181270825912416,2.844651465108546,-3.730452693223903,0.39066532958033917,-0.219106324553732
1.365975085,1.072460714333209,-0.738859342156445,2.8718001106673094,-3.796293191351331,0.3815116023257268,-0.21945208747449904
1.4059654560000001,1.006583941343231,-0.6724731090101761,2.7662258656590186,-3.8891126122672297,0.3695182067073678,-0.2202837791718822
1.446066041,0.9377390294663263,-0.5857534767032647,2.836572280346847,-4.028072651904291,0.38135955080291656,-0.221580307536981
1.48597649,0.8213910646228341,-0.5389762384487883,2.789895057029441,-4.115035913666596,0.4050465201160862,-0.1990695699506542
1.526064133,0.7745473867873652,-0.41782674106639534,2.8533298309219726,-4.14643507082644,0.4401086751707255,-0.16010667726824185
1.565968092,0.7621200388739914,-0.3280685198084452,2.9556084522620223,-4.250501802164169,0.4725471603281836,-0.12226279094583327
1.6060360870000001,0.6619918972010167,-0.2655977424068273,2.987007593656124,-4.255076618695109,0.4998855991707629,-0.08413022180192124
1.6459809010000002,0.6158655450331477,-0.1466424406247756,3.061865426149058,-4.307798477705276,0.49541124029544525,-0.03855377994117899
1.6859737350000001,0.5892533232663076,-0.01445532605580832,3.153100611886642,-4.301155194283512,0.4893831377422788,0.0031199583064331843
1.725971569,0.49623075296611746,0.11077227192240731,3.2403271131769555,-4.313584009124631,0.4966459693528153,0.03930248677960638
1.765978326,0.4940886913556534,0.24646728106194463,3.3093168360350043,-4.28954370507677,0.47018891175391375,0.06113934104437211
1.805967262,0.409584402454057,0.36799036158696247,3.339934360464529,-4.2345106445101175,0.4348615908605797,0.08737636040577164
1.84598129,0.3581142248279746,0.4722775206159169,3.39036899685924,-4.188888275535184,0.4155869837993655,0.11036666859598106
1.8859720910000002,0.2777525550448394,0.5626131058347124,3.415183516366188,-4.152562221890849,0.3992480922020922,0.13114833707945098
1.925973017,0.19668215529043853,0.6857297273703937,3.357089000063954,-4.109405354791733,0.3731366279150567,0.14293099724763847
1.965970189,0.12164380422892573,0.7898046285234638,3.4051965190768487,-4.041457538203591,0.3459535879290086,0.15835360412996444
2.005966274,-0.013687512551725053,0.9171041999912374,3.3606941161293267,-4.008413706723981,0.3398440451488055,0.17164796271201638
2.045972694,-0.03680483722426307,1.0299811169341684,3.355960904996401,-3.9509383811063223,0.35411708860251684,0.18208593062185546
2.085972517,-0.19611700281133748,1.0908314602678213,3.389863721499205,-3.8282436195595086,0.3330815522279984,0.1873489192663322
2.125972759,-0.2635101638244201,1.1756458547177104,3.354638916433669,-3.760040414938827,0.33719400250611553,0.19585290793687843
2.165973308,-0.37106710581336294,1.2450242364610742,3.338256342006639,-3.621010182317829,0.3455140265760518,0.20142285200439788
2.205964809,-0.5051226862852327,1.3293947047905963,3.295973342919161,-3.551690099047494,0.369633706495266,0.2032410553962461
2.246048499,-0.636341475865815,1.3607865740486065,3.3235879928762158,-3.4134736549235956,0.3656826876469066,0.19541898223955154
2.285978588,-0.7458943364496646,1.4339524258792287,3.2372702329665786,-3.3523828990021425,0.3755698083090993,0.19405901446987656
2.326061004,-0.8708868858751327,1.4260115657069776,3.225799288430363,-3.2519462496019815,0.39532477372269204,0.19133973411896343
2.365989735,-0.9980215216386247,1.45831279556141,3.2158171667931184,-3.1607658884032626,0.4116863953046027,0.1794959968464815
2.405968455,-1.145617266406694,1.4488901519169775,3.2751769684986356,-3.058429687031907,0.4174736227650662,0.1778697521407161
2.446037691,-1.283272786641287,1.4250666686367448,3.2675031741038945,-3.010571061477716,0.42977262437626884,0.17795091093398765
2.485975212,-1.391038529498963,1.4328124403548583,3.254352750069011,-2.908752071694871,0.4503856891199334,0.17981590829993027
2.526064717,-1.5626021057213157,1.387671484845001,3.197444663652128,-2.8520485740085015,0.28678549734720044,0.1857028827945261
2.565973686,-1.6446334230393997,1.3510343033019776,3.191985322312306,-2.7547676085014072,0.18818301205803267,0.19906707399363974
2.6059670500000003,-1.7571199803964874,1.3298945428334363,3.1300665867154542,-2.671147290563694,0.11248854570606803,0.21832105503871063
2.646040326,-1.9095908102448613,1.2645324739420276,3.006578025117982,-2.573065942645758,0.08306326380651101,0.24249700853709324
2.685982701,-1.9769841337423708,1.2047820115360561,3.0459397552933325,-2.4481348688055427,0.2727064019918309,0.20642355992224626
2.7260576050000003,-2.0434609702251287,1.122838245075278,3.0422851713207093,-2.348450364212876,0.3700207714139283,0.19467014347249548
2.765974577,-2.1619295865175285,1.0326350651303189,3.0622291285536005,-2.255508929217567,0.4687745245518718,0.17741756717149307
2.805966184,-2.243374794739709,0.9522670261219439,3.0763800613641674,-2.2162910430342126,0.48530022148040586,0.16092107103731393
2.8459737030000003,-2.3204341604067458,0.8068977070964716,3.1240482580305033,-2.1312419096380393,0.4591575846621932,0.15750857032366877
2.886015511,-2.3415809127862013,0.7234774112908419,3.155664180449125,-2.05837743284071,0.435543044221079,0.15936004939718318
2.926027193,-2.413840964513526,0.5909498390610765,3.18820084348933,-1.994316165305388,0.4234812731820886,0.16520161807955136
2.965978548,-2.4855807759542685,0.4586816082452059,3.2089398911677973,-1.8799248272135916,0.379765537252629,0.17404278707698434
3.006021318,-2.513185363400008,0.3742807690474455,3.195602889520535,-1.8058129061017099,0.3551410778045178,0.17838333695404984
3.045975591,-2.5612408555053583,0.23856826569749906,3.195507923683853,-1.7282563346387245,0.3277565196933136,0.18309542234281487
3.0859798449999998,-2.5629065878784174,0.1134743814467953,3.1926546370440994,-1.6702914092967935,0.31963634170828437,0.18665114119667806
3.126054079,-2.5649033441711624,-0.00990221921896004,3.18208876786788,-1.6080757354163489,0.28473179607017074,0.18531599045502464
3.165974097,-2.5759252534241983,-0.16518600698473956,3.1732223852091033,-1.4845492820047417,0.26265718576872277,0.19013880557299004
3.206032498,-2.532003599913681,-0.29321640910335806,3.0550975207940723,-1.3754386922426478,0.25921390139117256,0.19506301966460804
3.246026727,-2.561874579102189,-0.38150712419918,3.0415511884169883,-1.2953304544604125,0.257713209091682,0.19722354537860853
3.285978513,-2.5111018220723813,-0.5053079548330415,2.9824325393253126,-1.2277746663992184,0.2384359736785343,0.19962598040091994
3.325967654,-2.4364334307767774,-0.6445921102939882,2.9885361553949386,-1.1373289862619946,0.23494402792871052,0.20295089936172772
3.36597833,-2.3771426758692726,-0.6666255843012105,2.887579893260901,-1.0358385937212704,0.24828653294152278,0.2067103678238043
3.4059652,-2.34873875418664,-0.7865417190068134,2.878148958477672,-0.8810017044281079,0.24836640197487686,0.21422375649250774
3.446041512,-2.311381423568911,-0.8907539796225354,2.8433560291730444,-0.8186642551191192,0.25075597280966655,0.2166749493834891
3.48597804,-2.252593488480792,-0.9932916856156463,2.8272744301092674,-0.7779243923594796,0.2675478074318004,0.22067801739727738
3.526047714,-2.141639868268382,-1.0556644620762867,2.7863270954596717,-0.648299701947042,0.29118066786095753,0.22605137966411026
3.565973848,-2.0492032733092542,-1.1355306350624776,2.794380684691261,-0.5459586498998399,0.3012687951422489,0.2295500829850537
3.606041243,-1.9447016400636603,-1.1932937296193544,2.785716253966652,-0.4854245611253593,0.3141684501640379,0.23397043469192572
3.645980494,-1.8541367375448812,-1.2430297424312404,2.779656681070714,-0.35944931381649176,0.3434908660993249,0.23810483015076744
3.685971133,-1.7318969657198822,-1.3037911152690829,2.813192451291637,-0.2942191036657862,0.3662065543584212,0.24336376063117676
3.726029173,-1.6180728946206977,-1.3002007115658685,2.7856474004755905,-0.17791806527129342,0.3732587374539419,0.24548339927163312
3.765974214,-1.5270145483889404,-1.312293530846789,2.8342893445581367,-0.03355306787870735,0.4016360385566164,0.24568049107639495
3.806010543,-1.3973829028471052,-1.3255790616652745,2.827513475170439,0.021313771127563434,0.425288587871092,0.2439485460771627
3.84597771,-1.2845228328434979,-1.2675516438247894,2.8760279169830074,0.14250322546738334,0.4290655706235916,0.2410784338878428
3.885977076,-1.2054605052524694,-1.2616924422485265,2.8965464819708377,0.24134353643536946,0.43251022665003386,0.23838174418538374
3.925972867,-1.054353813743607,-1.2435463478430824,2.917254108168106,0.31857268838237807,0.45629049183967296,0.2362372627168279
3.966029041,-0.9498550612110181,-1.2052868637988379,2.9589609940566395,0.3958192306864131,0.4600796896000202,0.22729852545102738
4.006018998,-0.8686967252062825,-1.1481529483866084,3.0095584497516943,0.5074876040942322,0.4506234778523789,0.22409007298352265
4.045976618,-0.733613413082751,-1.0955929915261726,2.986437325504551,0.5629774149249839,0.4488399829744617,0.22262227904523052
4.085980687,-0.6309144441415707,-1.0246003634458778,3.017584402331722,0.689838581626174,0.4617316142666861,0.22207062747142928
4.126053031,-0.5460754110062215,-0.9815035333457682,3.0482009929545715,0.7770904708579933,0.44060149798288273,0.21708319087868533
4.165975763,-0.4599938575400767,-0.86921268114335,3.0453737991698433,0.8745299221396395,0.43440454892140046,0.21605745297428197
4.205968614,-0.37700627687004895,-0.7567180269214705,3.0999940605643803,0.9519764058437612,0.430419848215166,0.21568666935100575
4.24598042,-0.33837859282918203,-0.6617059780439262,3.094923417884611,1.0489043237012146,0.4447070659644284,0.2151175661247716
4.285980485,-0.262973198972464,-0.5447229507519351,3.098092840659043,1.164600585604788,0.44962217584635933,0.1649662247764487
4.325973612,-0.20997431682866458,-0.4217217830401023,3.183723448846208,1.207259310120667,0.469088825424354,0.11193452482472366
4.36598051,-0.15190770547914165,-0.330318935247065,3.2280041830919215,1.2537963363940914,0.4947689241382097,0.05802199784861327
4.406025534,-0.13902218087502988,-0.19190163633040253,3.262231075850853,1.2783084730295924,0.4898059843294246,0.014960005722508073
4.445976085,-0.05841399793355051,-0.08998594550851413,3.345445340220011,1.262880224666812,0.479619687251535,-0.03465455110077974
4.485986924,-0.024893997334211125,0.07190374172116103,3.3496434674445097,1.1866183386342686,0.4707241925318015,-0.07494678150632053
4.526015221,0.06105382121349517,0.15853095971781667,3.4020622308294635,1.1839203577314694,0.47033914160539664,-0.10394049044875973
4.565988282,0.06798768279434586,0.3025449257129066,3.419758238299396,1.1065431658743088,0.4379860753993634,-0.12301756672136424
4.605965232,0.11101795145864847,0.4505363084416479,3.4296373460844665,1.0749023249758338,0.41166421851390406,-0.14040203922909458
4.645972741,0.2176961607455857,0.525285971019851,3.488701549603616,1.001778215911355,0.3994815962376054,-0.15031030150809813
4.685981885,0.24173692194637464,0.6293769114902426,3.4175627890751685,0.93276299756442,0.4020125588351268,-0.15587904840469935
4.72600603,0.3472810450058611,0.7584093482225555,3.451976346059271,0.8610639743814197,0.37346822469772106,-0.15694851757024075
4.76597707,0.4645476740219902,0.863677165470612,3.4313542204227785,0.7603406612051296,0.36543186916737097,-0.15972190178166543
4.806085432,0.5670430250191918,0.9710381108513318,3.4129808805477566,0.6338555170410014,0.38199128843298974,-0.16019742488380068
4.845982925,0.653138149217814,1.039367938772056,3.3779765350573916,0.613582506829158,0.39781885739855444,-0.16038676770786123
4.885978495,0.778348135846979,1.0984813622903045,3.3734759041460385,0.5111333369858987,0.3653030493670839,-0.1501604052850255
4.92602987,0.8549590032132505,1.1947822212812569,3.353711356274703,0.43946347356496385,0.3600122792234869,-0.15349851147766289
4.965982634,0.9992269231231485,1.246844964731555,3.2990242148252458,0.3401554344294982,0.3705267549426939,-0.15882755158194908
5.00596914,1.0908066621040757,1.2811884054942004,3.272201879062751,0.2844927047421077,0.3599804084958421,-0.1593663184139606
5.04600348,1.251981531435291,1.2979911261511816,3.2697018728718334,0.1811544558108684,0.3459386634937073,-0.16093859518641196
5.086031031,1.3799280539064707,1.363827478648709,3.2123121580350635,0.11774086141373302,0.34356682752138484,-0.16373858078626666
5.126045662,1.4800386146973914,1.3807643755993628,3.2260739426091036,0.04529033658659635,0.3530743240844996,-0.16726502042381625
5.165984487,1.6041298210979573,1.3521857002218882,3.148040925640802,-0.06802099257125388,0.37645459765237105,-0.17121745754913176
5.206030702,1.7702125934175228,1.3613032438200994,3.156143341282448,-0.1283213487168616,0.3365628277229099,-0.1641617676573512
5.245971714,1.8743009816069462,1.365891318381638,3.1315801546338955,-0.16704245627352066,0.3231332500474559,-0.17157861336395894
5.285973913,2.0179087960088933,1.30872268813157,3.106788735552452,-0.2874416671368067,0.33384254394883894,-0.17920261642598442
5.326014141,2.103738836443492,1.3187320329429233,3.0500638851444606,-0.3697031961320539,0.31075451089382305,-0.19058961434141225
5.365991467,2.2520813463384197,1.210089140317731,3.035624859578774,-0.44336381276754894,0.30943439422447305,-0.1918004324577692
5.405998368,2.292745887950678,1.1657983018599132,2.9783596693428303,-0.52059267399201,0.32402482102541,-0.1925493097060006
5.446020929,2.4194793946113524,1.1020124985962934,2.9605499544587097,-0.6757094645487112,0.33639637631777375,-0.1883569185167035
5.485978022,2.519825245224128,0.982264236095758,2.898304879665086,-0.7153735564128034,0.32814289273903446,-0.19216636945532284
5.525966697,2.5965157766218665,0.9761284685103245,2.9137792958107736,-0.8374684063730733,0.3416824748246193,-0.19570165396068231
5.565980033,2.6137522960215507,0.8713693602939843,2.9453042779848677,-0.934159505169707,0.3567347894150548,-0.19978194019787354
5.606067407,2.7405211478333014,0.7502540912593428,2.898366760178177,-0.9966210260823782,0.36850318546163324,-0.20060812599427472
5.645980818,2.7720023780725924,0.6642324370708409,2.8779979948983403,-1.0895522211877187,0.3605971108878778,-0.20640485942890338
5.68598568,2.861912872175222,0.5346606377521396,2.8793610229021938,-1.1871375006060558,0.3679143217194937,-0.21289941949240695
5.726030443,2.8756838598532535,0.4731572488720156,2.8846786810156058,-1.2611628854453818,0.39109437605379904,-0.21910253551864423
5.766040984,2.914493395685523,0.3561886818677834,2.846424211573439,-1.3533164014277783,0.3963093583382891,-0.21795239682343204
5.8059679630000005,2.95674207925065,0.2358591765359324,2.85642211163021,-1.4213754370652436,0.3905505058233266,-0.22060988231775772
5.845973638,2.9675070721682455,0.12438623990783325,2.884768214268238,-1.5535361907439118,0.40327945521168845,-0.2210737634492745
5.885974944,2.924422777131506,-0.005045914802152605,2.846342289088506,-1.633015311959242,0.4362676219157518,-0.2209751894120904
5.926067514,2.9310756621383476,-0.10113832860988642,2.8422687172723133,-1.7185402087622608,0.41996650361041205,-0.21602975961090207
5.965991439,2.9275433433156426,-0.18811744668156838,2.8412141125520565,-1.8416704480818877,0.4207407886291796,-0.21838340582725
6.006031253,2.8586879711681337,-0.317884146500573,2.880353894315714,-1.9228069107457406,0.43367206931191693,-0.22016110153637947
6.045977237,2.8236028782271276,-0.4545067702699665,2.8977158888165078,-2.0141687886460193,0.44511247764053735,-0.21686088513601345
6.08597692,2.7698707194753194,-0.5072195985752285,2.8584343396103393,-2.1174073681141823,0.43801853821022546,-0.217049447451822
6.125973605,2.71359060381768,-0.6287747929797927,2.9146909855245786,-2.2094123032267734,0.43809101638086057,-0.21815689843226493
6.165984121,2.636007833373756,-0.7191405122446272,2.928229209613327,-2.2757887193549102,0.4541013991630444,-0.2180434935869084
6.205971312,2.5932437942550512,-0.8349732947741962,2.905315951028391,-2.395175601943418,0.4545723995890366,-0.21067668028697015
6.245973848,2.4773174003025584,-0.8595893458638538,2.94856801403622,-2.5204182623199665,0.4419037346696145,-0.21009182932841988
6.285979629,2.3603651481679258,-0.9222737222536777,2.957636755392021,-2.597450177698691,0.4448062394522215,-0.20899586914704038
6.326046913,2.3356171902815137,-0.9874419168116602,2.957028160480875,-2.6529312615835035,0.4698496096389452,-0.2065282372294457
6.365986425,2.1970965147644494,-1.0259130421481202,2.945494942700635,-2.7338680049345268,0.4403099170355432,-0.20574031576580842
6.4059690830000005,2.0904108047828225,-1.081043044442979,2.961733516736177,-2.8529651372772276,0.43793823686710776,-0.20478219115723656
6.445973641,1.9495592619618476,-1.166285143077839,3.005491852149487,-2.932765419258376,0.439984177757865,-0.20505771618369414
6.485978417,1.8445342410907444,-1.1878879133323719,2.979958878652421,-3.0398577281787595,0.4308060795516799,-0.20430444801446193
6.525970729,1.6896773484238639,-1.1943970020505499,3.0021666001963454,-3.128091011545796,0.41937156544450327,-0.20490723905372407
6.56597688,1.617858084526859,-1.189898079702581,2.996919706741129,-3.1824657052457006,0.39467617675522926,-0.20453875527867685
6.606040778,1.473448825383256,-1.1530496934930168,2.9658818970149015,-3.286964518816491,0.40748825875768996,-0.20224738599034595
6.645999673,1.3479746658476646,-1.164067385327198,2.9474821730826664,-3.3974991158328005,0.3995347768590801,-0.19297844464452069
6.685990946,1.2422406141510085,-1.1182517292950998,2.9627779108679846,-3.468328245937986,0.3806271765667971,-0.1952801493750134
6.72603346,1.1346760326037717,-1.0725702603105887,2.9038594091523886,-3.568579118794373,0.37859700716497335,-0.19860897410504444
6.7659853420000005,1.0064613642101603,-1.0273594302931253,2.9301694231503435,-3.6528035315436744,0.39357315939869164,-0.20210356776726002
6.80597116,0.9299848702769735,-0.9511731240385889,2.9119942663693865,-3.745169989127749,0.4167204564360435,-0.20551528783670306
6.845975721,0.8554670420179332,-0.8491737255647032,2.864512592993378,-3.8193838848338304,0.4571932118720989,-0.20730237929558354
6.885979812,0.7482343916250986,-0.8165236948358724,2.9068930255917875,-3.9255247763269505,0.3770659110405318,-0.2060210166978054
6.926059963,0.6447871189831759,-0.6978327042525236,2.9109747683253957,-4.02357684965557,0.3933810465779611,-0.21323398941044597
6.965977342,0.6006807651916964,-0.6788291268151732,2.8938672353646067,-4.109118777091063,0.41304578827125077,-0.19046145880715729
7.006024906,0.518336955171618,-0.5525659161254318,2.9593014476014403,-4.180358717295456,0.4241299041102207,-0.1633239888348196
7.04597843,0.46417655258803175,-0.4067605579875735,2.9602665057530437,-4.2606752668240855,0.43873352106020214,-0.13453334088227545
7.085975147,0.4139881105461946,-0.2993359461153247,3.0249996723887045,-4.3389176872675055,0.4530035886583867,-0.10656156012263979
