time (sec),x position (m),y position (m),forward velocity (m/s),"heading angle (rad), from x-axis, positive is CCW",throttle (unitless; -1 to 1),steering angle (unitless; -1 to 1)
1.003833842,1.7889777704123484,-1.1890891848371263,3.2818774895640117,-2.929992823700905,0.43984230406324215,-0.19728746367358804
1.043845254,1.6702679334649266,-1.236670851962714,3.2724898968062157,-3.0192254197276673,0.3890685864289881,-0.19153766654260712
1.08383225,1.5178202764382376,-1.226461580114807,3.2349562565259276,-3.0985230230722043,0.3749249521237337,-0.19357936604615705
1.123891418,1.4441101673669683,-1.244097502408383,3.2121042151474692,-3.2033295821884855,0.36183682689724567,-0.19546414021359176
1.163838589,1.2924163093842462,-1.2216914510400365,3.1679382027497756,-3.2865820127360794,0.3477368626854862,-0.19781698264803066
1.203831179,1.1925639557596632,-1.203791236476014,3.096537522942275,-3.38278932291709,0.32679431941961257,-0.19935165638971974
1.2438494580000001,1.0557745174088933,-1.1781266065445613,3.115311956660875,-3.4572255810790367,0.3228022523938645,-0.20206588942419507
1.283851158,0.9259393507067364,-1.1302527552526311,3.05770988187663,-3.582691932457659,0.34146383331975366,-0.20538215399031146
1.323900127,0.8003288403517517,-1.0912693003824288,3.0015622681370426,-3.6430009762065767,0.34562751058453783,-0.20131987138537916
1.363862752,0.7216350647453871,-1.0369186030545485,3.014659696996439,-3.756645469748,0.34114793948328465,-0.2064563899535331
1.403829492,0.6141071988325616,-0.9847371151643838,2.9318857365353925,-3.8166679302258357,0.3608402543144908,-0.21287769483485963
1.443838387,0.5389775302478358,-0.8868486100806817,2.9639113287366516,-3.933905883700995,0.3900524824627739,-0.2191716498453589
1.483834239,0.4284672106827542,-0.8057362670590537,2.9333148885931477,-4.026236686763495,0.44160610376688164,-0.2061066201154263
1.523835315,0.37828204236591245,-0.7395598875876133,2.988851484002079,-4.093775326775983,0.5012809059243929,-0.1776347802709986
1.563838705,0.2979500744340808,-0.6231396284753785,3.124146217949847,-4.165167266968774,0.5427438256268685,-0.14936642318707652
1.6038285669999999,0.21188107480633128,-0.508844659437576,3.1095160085255302,-4.180155853199217,0.567812963013578,-0.12727198648014046
1.643939665,0.15668038136195633,-0.36596549061644246,3.229238728889891,-4.262275647061253,0.5722187588659488,-0.08397213299699341
1.683834824,0.11039954117316603,-0.28910271305872987,3.3298145116615467,-4.29333698370851,0.577039986422163,-0.04393770820264234
1.723899434,0.04428483531629082,-0.15740806199696547,3.4449499650116917,-4.303061247224019,0.5899507533721106,-0.006806352589734996
1.7638433500000001,-0.024719605780662873,-0.01131689893594096,3.5384838894872925,-4.276665028888347,0.533696225932162,0.023786701352451
1.8038493930000001,-0.09077982650136257,0.1121369153843578,3.5657401589857294,-4.238338092497385,0.4964194398271503,0.04966435094398161
1.8438286750000001,-0.12580440751561295,0.23408242391147532,3.614481339495675,-4.262946215399287,0.465393727234174,0.07025137459496346
1.883831946,-0.22554372150422927,0.34961917442837953,3.634587401422432,-4.253044411248776,0.4512158511829318,0.0870814089918299
1.9238877030000001,-0.2747597181067874,0.49506101238566763,3.6444001198913143,-4.1858425104245995,0.389694073438604,0.095616870583415
1.963831509,-0.3561990677422406,0.5682735499055633,3.6970996638537343,-4.137701054227873,0.34943525959620025,0.11522825850679425
2.003855184,-0.4680565073058459,0.7206392448952968,3.6528938165276506,-4.110014407075825,0.3253322265838916,0.13226266031546205
2.043834962,-0.4980445138244481,0.8416635663159641,3.643605945554122,-4.051632677898403,0.2840730115383533,0.15546033577564974
2.083833938,-0.6264954691983246,0.9557391602840839,3.6239434699671467,-3.9346811438217504,0.25959413586959496,0.16524732692200933
2.12392277,-0.7124596945643806,1.0478915812788512,3.5689603286512233,-3.873385753366335,0.2469111014901089,0.17179021518222318
2.163877521,-0.8532374241806001,1.1614424073967933,3.488213070821668,-3.8029420349324363,0.2501572278336302,0.17601487229802448
2.203852569,-0.9446470110610072,1.2034686883741765,3.50714784029988,-3.7197152943016416,0.24272174276524625,0.18260378266817662
2.243846102,-1.034843686602311,1.3246413519250977,3.4217596281455736,-3.6134445039742027,0.24100727364411448,0.18412345336874866
2.283835298,-1.1432933198523119,1.3857161032688272,3.355453750636896,-3.507413566855646,0.2518598557178062,0.184539865679845
2.323897402,-1.2722211514279638,1.3862072822488267,3.337611493399689,-3.403481875087151,0.27419935784739297,0.1911175556863233
2.363840888,-1.4366079992040313,1.4221576859052856,3.256232990337428,-3.3105867112754646,0.28012642319639997,0.1896023080360635
2.403828136,-1.5563981170351369,1.4870165012407168,3.250565876319768,-3.2257501723665842,0.2975932760421697,0.18844259018778786
2.443828165,-1.7156637051405648,1.4670520835599636,3.199773950056948,-3.1204147835381617,0.32531281594051614,0.18741491931051552
2.4838483670000002,-1.8273752359915614,1.4879094207036916,3.185520529286676,-3.0351726907006125,0.34436197300490834,0.19077213959077347
2.523904057,-1.9441564156046518,1.4922127410510768,3.1328358639817955,-2.926315882807089,0.35226702512084956,0.19319283846262575
2.563852301,-2.0527659588403293,1.4436502347900855,3.1476069287336013,-2.8791891977808572,0.37098976465130534,0.19525608024690502
2.603827586,-2.1967606269832376,1.4438766217673396,3.1503637597760044,-2.7842793764623415,0.4071057645420055,0.19876546901508574
2.643840494,-2.284733258456905,1.385878709602965,3.1762869118815424,-2.7077180564668826,0.4116034741494178,0.19926402402024992
2.683839122,-2.4222106558206877,1.2999423683455504,3.1416620252223386,-2.60500824598356,0.415497346187687,0.2055395659067459
2.723914732,-2.5166397771870876,1.2550830735036038,3.165707680747093,-2.549065959412251,0.4440699987339525,0.21135076688606774
2.7638340340000003,-2.626777845620676,1.1843731175241679,3.1581538522931694,-2.450158438628551,0.45267446945713524,0.2170055579851131
2.803826067,-2.7274525738997157,1.0706627584209272,3.1661485357592434,-2.347353009947345,0.4500260290391448,0.21808065297067242
2.843837652,-2.7963976477430226,0.9809736237717772,3.2325776649936873,-2.241090364894003,0.451803434145507,0.21849935031715947
2.883833962,-2.879836899173778,0.8948792508418287,3.191270186091398,-2.123918972846061,0.47904101353075274,0.21761042619185889
2.9238251330000002,-2.9390395281782653,0.8052632069687101,3.205145573038267,-2.038963585691363,0.48570498608759316,0.20511166536467632
2.963866252,-3.0115948784014828,0.7099649186971653,3.2196735001954497,-1.9707535289496643,0.45874826666384616,0.2052131726799991
3.003891587,-3.042668803135515,0.49383520052104557,3.245463311861425,-1.8616590423213186,0.46847692046571854,0.2068963866793305
3.043834297,-3.046688096219385,0.4084414307041186,3.2474493410421106,-1.772767388408323,0.4881571325558883,0.20837379020120128
3.083830983,-3.092945734882591,0.32491619356614165,3.2746975694722944,-1.6898091183242963,0.4511508607633835,0.21229967964999535
3.123831189,-3.127151041403281,0.1541129468163636,3.2703299865323574,-1.5913460806531465,0.44349782103526675,0.20923955189993376
3.163833001,-3.141200690146195,0.048186960089439373,3.282503725361558,-1.5228399131767647,0.44834159806823665,0.2080014932855688
3.203827636,-3.136765191099015,-0.11417868688800657,3.2025928538846147,-1.426668328477814,0.43144761477241617,0.2017391533858762
3.243872317,-3.1004742040785893,-0.2995853946030491,3.3234245949270296,-1.3302289994123488,0.4073162296681791,0.20436526135349384
3.283836771,-3.0795579329989966,-0.37247305122791063,3.281209004057347,-1.2213627214218739,0.39840333239172987,0.20582297489352305
3.323913421,-2.9925891758624483,-0.4820401009838128,3.267228959721153,-1.1072033010390367,0.41255322098274466,0.20705622444385965
3.363909157,-2.9514077478575698,-0.5692751721076265,3.2620825302184273,-1.0539203516690385,0.36503016908239033,0.20673352677228746
3.40382729,-2.885943541619806,-0.7100516203039369,3.2167565974290797,-0.9223155207967318,0.3693971223379402,0.20579226074795556
3.443834986,-2.8278000154524006,-0.8370376795733444,3.2422770807376278,-0.8669176352791467,0.38219885113515695,0.20691849838847823
3.48384048,-2.743566070302973,-0.9099548346630704,3.2014518153339604,-0.7858792352579734,0.39038420810287505,0.20807841195758728
3.523825034,-2.674917927455893,-1.0129903081288025,3.152223311284264,-0.711400939699508,0.3934291612372856,0.20935089816066121
3.563834221,-2.5897087583648553,-1.1300821079880583,3.1820143954128017,-0.5979603238672666,0.38615942386831215,0.20871762202955532
3.603825679,-2.464713032561781,-1.1672736026449257,3.1698745156504873,-0.5243620185706043,0.4111646463637539,0.20919222865706683
3.643836188,-2.3551028388778774,-1.217322221480977,3.162485108411587,-0.38549956863529156,0.42886911208078127,0.2114875881017545
3.683838495,-2.2548908424603438,-1.2447313233585409,3.1465435780226847,-0.2912995004292823,0.43035822246671607,0.21245436272432103
3.72383299,-2.109657873212144,-1.2838743551322331,3.1388349488541225,-0.22711571309096446,0.4399001551416105,0.21345226719796231
3.763833999,-1.9925785164474832,-1.3349962383732945,3.1863336959206494,-0.1624600830762165,0.46918065344982146,0.21376660237414868
3.803829835,-1.8675800257430013,-1.3419787189960382,3.2129885913026723,-0.04360934389917309,0.4592793945992917,0.21241226538721605
3.843832409,-1.701182739110282,-1.3563243001621648,3.2470437316039775,0.0594256409761666,0.45579776199502003,0.2123129761317043
3.883832782,-1.6451991391437808,-1.360861392156419,3.2047274767932,0.11712122699828172,0.4663539744805869,0.211984952380302
3.923831736,-1.4664618958936726,-1.3281255612067566,3.2381203532652503,0.200979427597145,0.46056832161746464,0.21020151075463436
3.963844029,-1.3569297493334207,-1.3096485157286342,3.2693462498947166,0.31841804508966576,0.4516527358121544,0.2101499220103641
4.003825391,-1.2151771195992327,-1.2422255659852075,3.25689040973108,0.3857980251991636,0.4501605154291442,0.20951127286482335
4.043830248,-1.113458574956732,-1.1970737739656327,3.226132400381495,0.48706815275617305,0.4655705101136782,0.2090474057050967
4.083834257,-0.997453466189357,-1.11312575382699,3.2574340106606954,0.60649818011484,0.48519910000572686,0.20744739321237432
4.123888654,-0.8976123692216085,-1.0901131004634101,3.2726077372437206,0.7219972768895521,0.4425149394312269,0.20058155985781487
4.163828,-0.8089121559999495,-0.9832088064731933,3.270022854976955,0.7558830468562899,0.44358083451715746,0.19970995709833575
4.203876181,-0.7023457180160495,-0.902863389126265,3.265585523372236,0.8707035082082334,0.4571152138176308,0.19960493747332914
4.243833613,-0.5663737550715117,-0.821317454160471,3.3087632610968765,0.9539052626948309,0.48355680834058146,0.17929227398116956
4.283838241,-0.5195132134608049,-0.6550197061062429,3.304012001535354,1.0162623946256881,0.5157452004205506,0.14871824534406358
4.323889752,-0.4435822429389298,-0.5766274758214633,3.4257904951955163,1.1162590613506744,0.5399668454669778,0.11682518861085464
4.3638353930000005,-0.4103559067097831,-0.44079055366080266,3.434324082704654,1.1589183548551591,0.5452615187037774,0.08901718568535
4.403889974,-0.32777745962274923,-0.2886752246350271,3.4772059902687675,1.1487495080674204,0.5550065799265176,0.04567794845081006
4.443890142,-0.2509548401408291,-0.1980609084583167,3.5935788745134896,1.17216989228786,0.5554332100786237,0.0056076652842520485
4.483835242,-0.21225055260422923,-0.06960468214949754,3.692117235646439,1.1832336130910743,0.5759188001186344,-0.0279937928626876
4.523829362,-0.18376127596954964,0.06585780043894113,3.6996325809247943,1.137924636032825,0.5294603748615953,-0.04765365164739304
4.5638361419999995,-0.08977710142964547,0.20501000291347068,3.773139554362252,1.1015815472936656,0.49196953137027294,-0.06878462326630785
4.603826188,-0.03545279856578481,0.3515353703900596,3.8087045644584014,1.0659505294943903,0.47251465959671557,-0.08815802581070709
4.64384185,0.06621242911718356,0.48991476536062817,3.8111907916325602,1.0437305788182132,0.45730636974816763,-0.10517442369730118
4.683834844,0.1495575863248198,0.5505797771927974,3.844339456919831,0.9838160115502707,0.4031309649326156,-0.1088040719693883
4.723853195,0.24972414048478297,0.699649690569516,3.8041267497984377,0.9492221271961692,0.37462466207528705,-0.12203656904740848
4.763836487,0.3228682817356511,0.8380884726569146,3.8330974880966022,0.875427016947858,0.35298787219172917,-0.13263297159793702
4.803878047,0.39599661558489185,0.9849910360154327,3.7461397186989673,0.7914541974813997,0.3502615677880068,-0.14316351917954104
4.843833172,0.5029390233165053,1.0849680813349474,3.8145654723427023,0.7658868688224348,0.3042457823370159,-0.15041936257190822
4.88386637,0.5925184760302499,1.190044381011079,3.746958707455694,0.6829900495277766,0.2943431869592044,-0.1557356176443475
4.923901681,0.7365461455317572,1.28070262376672,3.6635426326773834,0.605042941623534,0.3032077624566941,-0.16075925371062033
4.963837805,0.8363615202529763,1.4057464943298794,3.5960257314582074,0.4844398154096709,0.2767316992153814,-0.1627244498125372
5.003832842,0.985049784024278,1.4571479844380029,3.55895173800193,0.42069668544839817,0.26405550368606495,-0.16531414675762626
5.043840327,1.1201374113317055,1.4989171835203905,3.4992331476107132,0.33853312411446923,0.26101365524317094,-0.16731889284059845
5.083835466,1.266281469552606,1.5095280863370897,3.4052826228269866,0.2801306286973257,0.27500466943836904,-0.16928399149080928
5.123830979,1.377133618150795,1.5705893579360597,3.3650108950680537,0.17571734705084663,0.2662257025884697,-0.17600324873587356
5.16384081,1.464580427871992,1.6281560525724745,3.274078859638002,0.1206532452843473,0.2651573692355188,-0.17888453921201167
5.203893203,1.647819026195431,1.6048057523385983,3.2470619724567715,0.005197173719822506,0.27878767179753566,-0.18269300781737466
5.243882363,1.7827559234399377,1.6196190855541301,3.213839725172699,-0.037073075044103294,0.28896732039599243,-0.19294041143014193
5.283831688,1.8835928949905216,1.575182596821714,3.153767515860189,-0.1517107581199089,0.29014688594266,-0.19608271884065678
5.323870027,1.9745534839966914,1.5586055087975534,3.073685372183141,-0.25870925417596147,0.29579083705381876,-0.20104160742861263
5.3638320440000005,2.137408806162982,1.5860925991644201,3.050815948462512,-0.32411821111113764,0.31769784256627015,-0.2057126013568206
5.403829043,2.2475445945420214,1.4974477190083035,2.9981969762507585,-0.44212336254310325,0.35642438168835,-0.21088961228433234
5.443835881,2.3904531374590987,1.4507170392887512,3.0128712331331973,-0.5251357012061258,0.3625630334256537,-0.2162447281082582
5.483830884,2.433298867086326,1.3702078538619737,2.937985298859916,-0.6377990615624544,0.3910034555268248,-0.22121321712336167
5.523846637,2.5431789996863183,1.3034737676196488,2.989820137072891,-0.6570607528902388,0.42488817843738985,-0.22659578313545692
5.563831024,2.6561137108595774,1.2334521525618194,2.9744333670407004,-0.807117830053912,0.45836066992203117,-0.23609169173308722
5.6038315050000005,2.7253723443144016,1.1486272376378575,3.0007053813001465,-0.878129939837781,0.48116391116234425,-0.23766142369786
5.643833387,2.8143466850609022,1.0559032695088555,3.0601315457304556,-0.9521386914653578,0.5134588106506063,-0.23930652978152764
5.68383093,2.8374589202173666,0.9259994148105343,3.0418218319844876,-1.0621447649386722,0.5513646217895207,-0.24093055962135265
5.723830989,2.930929260712816,0.8554869674336703,3.039032277734835,-1.169222757442627,0.5612678496694548,-0.23865299809164212
5.763877655,2.9735385210866805,0.6832192030755972,3.122939380104642,-1.2375795398581426,0.5563288785191085,-0.23870994397774525
5.803832432,2.975041597146979,0.6131994479305926,3.1343424839702196,-1.3221546010908085,0.5813090392465854,-0.23696838361106176
5.843886974,2.9926478373008907,0.4703566781570927,3.1468477171720766,-1.4168005629367812,0.6004768411762456,-0.2315235019926529
5.883835102,3.013400788458034,0.30981523172799236,3.231853225153229,-1.516509706369183,0.5686955071730844,-0.2317558989773092
5.923881412,3.0476520433122873,0.20674417206016907,3.272446503016151,-1.6296421127552012,0.5820628597557965,-0.22920255542225043
5.963875112,3.0336500043279067,0.07830186927541968,3.2497996636201165,-1.6737900832461665,0.5986848618002976,-0.22819966529285132
6.003832842,2.994575976567658,-0.06979893805690754,3.297049630604086,-1.807984354717084,0.5624411419821466,-0.22407141286345242
6.04383758,2.944146241643064,-0.1834481447196282,3.35583149597307,-1.8594027604764891,0.5499722240430179,-0.22287901949191594
6.08383432,2.9552685184811858,-0.3073461297720528,3.370982283430824,-1.9524171106229684,0.5567447705236033,-0.22152819828599127
6.123919588,2.914510814479487,-0.41827569063068853,3.379212957294425,-2.0190576634745647,0.5392632570170872,-0.22071403343474638
6.1638236410000005,2.8251387407647797,-0.5333148616316504,3.377786896882969,-2.1651029296966042,0.5246047333940609,-0.21803619729674834
6.203884693,2.771742454258725,-0.6841382632133548,3.368353546953187,-2.2614706247960283,0.511499363153886,-0.217715105155633
6.243833052,2.705203312450594,-0.7475464644574548,3.334432717490959,-2.336563385277041,0.5150418791976779,-0.21712997205786444
6.283831574,2.6293112722458813,-0.8555668098656893,3.3367129387341925,-2.415892993771921,0.4852001335577705,-0.21554642035720084
6.323884852,2.4928368819339664,-0.9419675479128881,3.3206531274444027,-2.5229236991326776,0.4782953258778259,-0.21269570808091634
6.3638357580000005,2.355287666513662,-1.0190850935402365,3.2934559363188725,-2.6025182747777156,0.48085563742982784,-0.21000449313628483
6.403868522,2.247715055836928,-1.0758003322540783,3.3141444468333328,-2.6682716862676403,0.47097070252036427,-0.20325627688962822
6.443831658,2.152559389094764,-1.1494695283092227,3.297275738061444,-2.732469138455815,0.4516324773231822,-0.2031058765296236
6.483831276,2.0252540721797603,-1.1703679754937384,3.3098713084406843,-2.822492403137368,0.4366789323097919,-0.2034819342994415
6.523837545,1.8887636457705033,-1.2662225171938217,3.2908391699315658,-2.9094588959875707,0.43165437014556446,-0.20627111381215735
6.563840188,1.8056284864909506,-1.2960865176214365,3.251142795163259,-3.026710768883852,0.3996326331373877,-0.21379110094702602
6.603836359,1.6335704550913255,-1.2905331382271554,3.2384087102965347,-3.0809351080569884,0.37391233625896203,-0.21590581797293648
6.643829464,1.5277045807663046,-1.3080492970233781,3.1825259682078872,-3.18623337118273,0.3725224649660854,-0.21581900297366194
6.68383983,1.3811637254693527,-1.3031978185537196,3.1320516718442546,-3.2697692207097826,0.3762727779429022,-0.21608044189630018
6.723834777,1.3027797880696295,-1.2943427402328989,3.133208150362714,-3.3483024624457824,0.3532594823742309,-0.21334414528075396
6.763833089,1.1565847469345603,-1.2170642129759102,3.1026050702873187,-3.4701325531832805,0.3510240535059226,-0.21507429384119925
6.803826978,1.069442671855493,-1.1886826047658086,3.069153136812975,-3.5652867098511485,0.35245103485585205,-0.21887599340118247
6.843842632,0.9250135104013391,-1.1642206257967982,3.0317034125469586,-3.6485856943952504,0.35679896697757035,-0.21858136373376555
6.883833403,0.8132180706257482,-1.077986054191564,3.0202857722648315,-3.736499963227671,0.35105958429491624,-0.2211490807812024
6.923837078,0.7094455467173758,-1.0577927430026786,2.9493968405311053,-3.8158510468848643,0.36441269723950936,-0.22621329316457103
6.963888385,0.5862254347220033,-0.960928215850705,2.9610196985099138,-3.885890584065222,0.39051029692068556,-0.2295731613359848
7.003835212,0.5220793410725657,-0.8712192137120807,2.9684232504484487,-3.9703232848123307,0.451365320782037,-0.21433558526388366
7.043829866,0.47217034597829477,-0.8137245569316969,3.005685415079296,-4.085346297569837,0.514456589341171,-0.17830296255892963
7.083863596,0.41579275670806415,-0.6527240768142633,3.1005040893565856,-4.118111623186456,0.5754567524943099,-0.14178868854057947
