time (sec),x position (m),y position (m),forward velocity (m/s),"heading angle (rad), from x-axis, positive is CCW",throttle (unitless; -1 to 1),steering angle (unitless; -1 to 1)
1.007776285,-0.08669754812189807,0.12923124440677347,3.282385156030827,1.072497026693697,0.6232091293607706,-0.18542303034251595
1.047826529,-0.025166533817139614,0.2880668543992642,3.34408415136311,0.9907970799532526,0.541297850950967,-0.17050980024160106
1.087771363,0.08287333355081698,0.4108036611634217,3.381821772120877,0.9173703133693168,0.4694784594306571,-0.1853693982768032
1.127865915,0.15395872829190088,0.4967839943105983,3.3979956460685488,0.8362633039973255,0.4437823779217668,-0.2042795788567108
1.167824425,0.23998488811856944,0.5989075545926932,3.4388184718506767,0.7735825503494844,0.38616827552119737,-0.22572014268633372
1.207774859,0.39969002834264566,0.7103192502721292,3.451718709635969,0.7343806246987927,0.34924380206268785,-0.23199896577072948
1.247789054,0.46811316617641413,0.7584296837632659,3.4364164407428084,0.5952108201134154,0.32765360662980997,-0.23753600625591917
1.2878930450000001,0.6003811775659518,0.8674994015987442,3.3454274038174105,0.5576142570882802,0.31706569106747434,-0.24343735000778907
1.327769424,0.7306342300727595,0.9667046365363867,3.323324700951765,0.4608091801356509,0.28453974040347424,-0.2590248929029931
1.3678716180000001,0.8040213005664528,0.9739714071622105,3.319710286605074,0.32978838073789984,0.2867658223152525,-0.2571070127989225
1.407881522,0.9727956018742682,0.999581389681933,3.232479091077695,0.24316938052711048,0.2999728889682149,-0.25311494114337957
1.447837788,1.1102438542798283,1.012198410045822,3.2275046435921806,0.1022336817531295,0.30555881961929127,-0.24619371926593647
1.4878694160000001,1.220698664697467,1.0809175909638293,3.1523628288986187,0.06255181011602237,0.3082018909654775,-0.25171936747981727
1.527778503,1.3171798862952757,1.0606515129921206,3.1279551104910097,-0.05630993526128326,0.3395377235673978,-0.24956116591601377
1.567772978,1.475183604099736,1.0343543362495835,3.081722036786742,-0.15533240549706964,0.3556288662487364,-0.2480001526306455
1.607848063,1.552999136037942,1.006131154385015,3.0373490051651393,-0.2797357955463085,0.36714099371327674,-0.24666472183079122
1.6477956360000001,1.6904253447534325,1.0011327673321209,2.9941284736584013,-0.33593514610052067,0.3838720237905496,-0.24790997878249052
1.687875285,1.8306614068199298,0.9467603052534529,3.048574423818784,-0.4216495573662511,0.41340491531335816,-0.24915305892720008
1.7277739900000002,1.8924724318518165,0.9164851320279166,3.0601299282180943,-0.5583351815443496,0.41042994102413566,-0.24915042926400816
1.767855843,2.0398559354106056,0.8717788103534273,3.0360789612958796,-0.6534640806652439,0.4122170364576916,-0.2506990291592403
1.80792123,2.145265993629561,0.7498679472646425,3.0579737526176096,-0.7721599123795819,0.41861803176330126,-0.2515137019280347
1.847866014,2.225252976533616,0.627593890326642,3.0540492181265124,-0.8477574912925574,0.4448482207506937,-0.25177705884877316
1.887787356,2.2722717258825664,0.5872676660765089,3.0574182436989665,-0.8707940291006963,0.40870429243571416,-0.25166736029166054
1.927780413,2.351044124020205,0.4959289542788533,3.0556242854543756,-0.9978334234032841,0.39976289867294507,-0.24494182609793405
1.967789714,2.3793449651021525,0.4236947400436583,3.1085717925144682,-1.0618343395900864,0.4104224332493799,-0.24420761728221205
2.007846399,2.4366123647640574,0.253243274815544,3.0587233179831075,-1.1731417949745175,0.3884459827394349,-0.25167036778991164
2.047793008,2.5103698186483068,0.11886597401747401,3.044835974121223,-1.2396325313743113,0.38604400921498055,-0.24961187437393204
2.087878883,2.545868375641351,0.01925020390040903,3.065074851357013,-1.3445331577345143,0.383838022831049,-0.25058444817414777
2.127773797,2.596767767285391,-0.03842151010146775,3.092772167217567,-1.3903216098970301,0.39978999630063605,-0.25073673818024966
2.167769107,2.578722078257348,-0.21668701186092593,3.074669575705625,-1.5643493265996338,0.3693910540253556,-0.24683623802401036
2.207765797,2.6181007315418467,-0.32030628442255266,3.059556653742669,-1.590698330115982,0.3580345251296195,-0.24896099300016786
2.247763002,2.567041419108406,-0.45389005337460264,3.0187054548655117,-1.7141122432379692,0.3595468882135113,-0.25235992199772617
2.287785163,2.5795582379339606,-0.6172310765869121,3.0204066157710203,-1.779435674809227,0.3598646961021395,-0.2502475342827453
2.32777231,2.5168866850004386,-0.6831564887245765,3.031750712068724,-1.8375712742042016,0.3383306155142133,-0.2541266149797993
2.367797493,2.502027854567951,-0.8168700212017216,2.9778503804682046,-1.9717013752290646,0.33568761775887446,-0.25666071838214516
2.407878215,2.409683275011403,-0.9166390952995643,2.9841267644896474,-2.0871383380003143,0.34567896018985345,-0.25840414850755966
2.447888686,2.3146109758710667,-1.0357033543883145,2.949714811012797,-2.1849370742885257,0.3350144442018515,-0.25677750602601196
2.487784999,2.293400559260225,-1.1206835575075722,2.9205953035983803,-2.239242192599575,0.33026169094540214,-0.25808776768673475
2.527788994,2.214766316021981,-1.1566549186100508,2.958237189051541,-2.3446562715923243,0.3305424746712057,-0.2621670013864574
2.56789679,2.129968872773084,-1.2478676264441184,2.935228209496281,-2.457866694081619,0.35442388168077044,-0.26509556547835517
2.6077717700000003,2.021141236505005,-1.3311027932862731,2.907088540050584,-2.537993232916074,0.3420775353757336,-0.26659762820489336
2.647769275,1.864861056029099,-1.4085253650590273,2.9103126688816854,-2.692499660776435,0.34222827394452265,-0.2692000928893443
2.687895536,1.8159216022876463,-1.4267838160326463,2.8948514942182726,-2.710356335342326,0.35319463824130065,-0.2719784954269461
2.727772867,1.7184516848074205,-1.4777719125999471,2.8597973648710027,-2.8193639084132487,0.3693317366706835,-0.2708465512848668
2.767772025,1.6011779754419277,-1.4978499219243975,2.888837477914753,-2.9576896469085376,0.36609250172362173,-0.26675646208981685
2.807774354,1.532250744577731,-1.517831779394807,2.874805299487413,-3.0159565173731595,0.3823367000471803,-0.27854634840529063
2.847776444,1.335486460733822,-1.5407549491606043,2.872365547669782,-3.1569476124652796,0.4062256632961573,-0.28181294769154036
2.887772965,1.2536184556368832,-1.540130312411902,2.8925229288677503,-3.219957362680353,0.4520181078327282,-0.28291686761713025
2.927785428,1.1325401750057214,-1.4756253519399298,2.908224754714084,-3.288208022593794,0.436351087310733,-0.28866148785735857
2.967799112,1.0202386737540563,-1.4938786302352556,2.9450714621428737,-3.406824731962329,0.4588402856468357,-0.27385301224870484
3.007812382,0.8541202524363639,-1.4386683377610214,2.9734327828673277,-3.578319394139621,0.487393258271971,-0.2815242021003337
3.047771842,0.8340603060740697,-1.4397830526553232,2.9426014800305036,-3.6299622865780954,0.49223450186132295,-0.27795061817163225
3.087771119,0.6872840763713187,-1.3524594232853788,2.9583683535268155,-3.7050054647186488,0.4985390178806663,-0.27464817688251053
3.127772299,0.559364069825817,-1.2528861176309367,2.982815530733911,-3.859098609116818,0.5111060542673949,-0.2615527355771234
3.167804255,0.5298378997476985,-1.2115763408235551,3.0015256829110957,-3.966163364040053,0.5477333713760223,-0.262478407068739
3.207774034,0.4195395971715282,-1.0919335804869166,3.0384914534595495,-4.063128589766096,0.5415987227225492,-0.2384155458768207
3.247789018,0.36385174849528923,-1.004871127876445,3.059238641348892,-4.111725485080144,0.5475789815985164,-0.20947182881651447
3.287770891,0.26963935190706423,-0.9099479633326344,3.146901409426213,-4.249250605163131,0.5722627803421789,-0.19717445844146156
3.327771323,0.24717920667889604,-0.7732846195477782,3.1567733840116277,-4.293488969035907,0.5601873065004506,-0.1522226819703755
3.367792615,0.17522192399182845,-0.6875643551169253,3.2168196408024374,-4.365401015102427,0.5608959019000014,-0.10539503726727713
3.407797003,0.15243747019774592,-0.5717244055764864,3.391758595751884,-4.3903840280997235,0.5570385013184125,-0.045251660630397296
3.4477897950000003,0.09309645766461147,-0.409008350313448,3.4863528875229592,-4.3415077996622085,0.5844272524973959,-0.003709006502348232
3.48777087,0.000562967414451403,-0.23969893367308118,3.539622742922372,-4.3572377516123915,0.5217636322987138,0.03211554242271426
3.527776083,-0.06348871827029114,-0.16778887433951767,3.6114465639540896,-4.301721530023419,0.47826261291032607,0.05928410868170916
3.567773522,-0.08628761754769934,-0.03542141352286316,3.653242366015542,-4.266958896999669,0.44665763846902656,0.07608496547295758
3.607838679,-0.1869046102064516,0.10868416376247271,3.6309877251989175,-4.203979841533984,0.41890290361963034,0.08933976667690693
3.647789349,-0.25998250695075736,0.24921531719676385,3.661507189359788,-4.162324985784422,0.3583192374788981,0.09542657357853954
3.68776918,-0.3045541004002447,0.4061526176242415,3.637599900584116,-4.1164171958854485,0.34117740900104554,0.11416556804876639
3.727769351,-0.36251623654878307,0.48468233917031267,3.632923843451922,-4.061421322216845,0.31991918327438884,0.12660530870956793
3.767897205,-0.43927577815562,0.5680776908077828,3.660348091934092,-4.010650200582223,0.28187814402733796,0.1436624982312256
3.807867892,-0.584246316194585,0.6938718995599977,3.6541765061915594,-3.962430677534919,0.2628829208639522,0.15304388141590305
3.847856522,-0.6519601631537149,0.787144513048171,3.6155484944192207,-3.8801420909502746,0.25361915454958583,0.16066037929626734
3.887879657,-0.7899974550541315,0.8756674193612229,3.5552102477613188,-3.786065936706924,0.2581830579056549,0.17192018572603796
3.927769821,-0.8870120140137826,0.9848192650623722,3.475926585068893,-3.734708501338349,0.23034228220375658,0.17436668414354378
3.967789844,-0.9966736335057277,1.072859217757552,3.444006764458646,-3.5639283497005767,0.214414347797019,0.17955393863398691
4.007796414,-1.0995494794906853,1.1329554208294994,3.368963830798719,-3.5353182891644916,0.22505339467873073,0.18248601862580288
4.047868278,-1.263666618551503,1.162103510461434,3.329303274206115,-3.433491232930269,0.24203758914061413,0.18589695604733383
4.087797415,-1.3332693541585654,1.1998511759326966,3.281189250982126,-3.3244461727177663,0.22611074486117017,0.1844263255634725
4.127768744,-1.5179833024351508,1.2483370268847898,3.238458376868426,-3.273630297637306,0.23544443096733747,0.18706288452381864
4.167894632,-1.623047032969886,1.2516934658486,3.1664836906024325,-3.170490559380101,0.2541918148705766,0.18992148362962497
4.207874691,-1.7093542291282016,1.293142999138481,3.0962072460616037,-3.056365817858876,0.2686520387412389,0.18963360417097996
4.247774922,-1.8589692073747386,1.2845616209692594,3.0713551380214104,-2.9949859416477964,0.27021197722441037,0.18766347603805467
4.2877704770000005,-1.9734297218863028,1.1946479795403262,3.0467153958871065,-2.869899898477389,0.2822977309455394,0.19949967854585912
4.32780447,-2.0995667930418627,1.2257688069186203,3.0195383381131875,-2.7884816612418164,0.2951435238962216,0.20550354520912706
4.367895378,-2.19135578314751,1.178928643822482,3.0167133568015925,-2.6733851950920555,0.3075180777609203,0.20701805898924563
4.407790434,-2.3137981342099647,1.154744240044191,2.948637549416634,-2.6176280464155153,0.30708891503657904,0.21133688675185996
4.447843926,-2.401282609029342,1.1163058059698603,2.964278541870354,-2.5370115617936664,0.32492008396450167,0.21471317297125464
4.48778443,-2.437017192217751,1.0163407327674399,2.9429735050552837,-2.4914106980765407,0.3513678437162959,0.21776143582641197
4.527802916,-2.5928650832306706,0.9168795310544803,2.918773321230846,-2.3241371775611332,0.36603145097801165,0.21812722717203448
4.56777011,-2.681036152833301,0.8521199356573226,2.940796963313335,-2.225573364263841,0.35892652055082114,0.22261726257870781
4.607892369,-2.717718697642069,0.7767467779195484,2.8903274472016007,-2.1842358664823656,0.38046420362188443,0.23380406800947462
4.647775072,-2.799569797996147,0.6579443597013465,2.906666673258954,-2.0832587465196872,0.4127235709028676,0.23090875377180736
4.687775417,-2.876627359935139,0.5655334067094966,2.9497274626456584,-2.0195672365845523,0.3956951640344848,0.22661347829808806
4.727795204,-2.9237031783720586,0.4387976314215495,2.8977001010679504,-1.9253227827675121,0.4039357698592433,0.2279568868144671
4.767890204,-2.983963562689121,0.34427723884779515,2.936079682588531,-1.8034750696428197,0.42586766511642765,0.22927509874262877
4.807772074,-3.0066260941613834,0.20413437191389566,2.978453645999819,-1.7102248942740117,0.43464124127406667,0.22080469772024605
4.847781679,-2.9931292558988534,0.10522024287226665,2.966358956783326,-1.59991847151561,0.43454170306575696,0.2220435259649521
4.887774369,-3.038085895506383,-0.013074989045858739,2.9686341621163184,-1.5203698737826858,0.4364680364328371,0.22407437724955892
4.927774086,-3.006382473730659,-0.13932255713199995,2.991575752013002,-1.408231292791995,0.44378751300707026,0.2179578166643653
4.967774206,-2.996053980395317,-0.25596517048220757,2.9843490450500187,-1.3347677444166335,0.45381146413477497,0.22273702612573312
5.00776873,-2.9802749483760675,-0.3788436911161883,3.0089183936062227,-1.2246237220222107,0.4478685521237514,0.22022633738901293
5.047848163,-2.9303771031968053,-0.4831942033759033,3.0191255605401746,-1.1631174728882292,0.4508262888534783,0.2188338441943804
5.08788987,-2.863674566552589,-0.6207791837340474,3.0521232469862736,-1.0931184523558257,0.47904406141051575,0.2161406212722491
5.127787212,-2.809957839709324,-0.6859353952436973,3.047994751269813,-0.945028529391123,0.444982916351615,0.206324747319725
5.167800238,-2.7303242657591986,-0.842473709242969,3.062942723458936,-0.8578201207660571,0.4484549601482674,0.21290222877888343
5.207862858,-2.6755842588174823,-0.8700782932230664,3.110277605968244,-0.7595301480714541,0.45014030989242826,0.21030262755400814
5.247897762,-2.6131142929993385,-0.9542276737366822,3.0568118749319124,-0.684546797299703,0.4368253032148829,0.2022225668772563
5.287785768,-2.5121199389309057,-1.069122082939903,3.093265722263331,-0.6050742948704811,0.436540115983302,0.20223655018518935
5.327783485,-2.3508321336021973,-1.1840333281603446,3.1031249551027558,-0.5194318675327472,0.4237212944487923,0.2034534552258198
5.36777464,-2.3135322428622915,-1.21775487146814,3.1088942268253215,-0.43508814048295014,0.4375710085249939,0.20561360983108587
5.407868352,-2.1325433435719576,-1.2452762636893686,3.089130035448693,-0.3569255738232454,0.4161285472342608,0.20091114982000424
5.447807525,-2.070413668010023,-1.3249618417160864,3.088438590992779,-0.2857332581718159,0.392066789541126,0.1977281363997303
5.487770844,-1.9542017305763788,-1.353411275206739,3.0989168630817474,-0.16202912016750645,0.4029313787881759,0.20728933073287328
5.527797666,-1.838481376087667,-1.342580468783857,3.082651673749119,-0.07725679397530065,0.40941011465887167,0.2101024584405236
5.567773606,-1.6933366282528801,-1.3687308942688692,3.113589264303266,0.009474727610327369,0.3860602253359599,0.205670727349397
5.607800522,-1.590828300836699,-1.390834259964658,3.0630224811261635,0.07893832909109619,0.3792501162057157,0.20778169891822065
5.647786506,-1.5112704505590913,-1.3646110382733487,3.0929605895605943,0.17300019128998712,0.3821568063554686,0.20970196537782268
5.687901984,-1.4221974305218836,-1.3168613431944138,3.0888998409514516,0.22610474584669202,0.3778156399192614,0.20672266254559007
5.7277814,-1.265955593604755,-1.3651658196570327,3.0304356157244383,0.31106872710672673,0.37062201733500916,0.20958233503968018
5.76779241,-1.1143966246106591,-1.2664540605722454,3.005973160285531,0.4547686393441401,0.36460243181421037,0.2110366586823822
5.807793753,-0.9910667194201584,-1.2179991220960475,3.0077633091669527,0.5262015213204961,0.38841037167228065,0.22732448335638572
5.84777127,-0.9875901415318423,-1.2207575533203074,2.987707829853839,0.5700722709326389,0.41345409868596383,0.22852896067073755
5.887771076,-0.8095504710004948,-1.1230133156767523,2.986238317332323,0.6798356209082881,0.3858477972117369,0.19298015735296428
5.92782098,-0.7199145014340232,-1.0001617084593792,2.9845302140675423,0.7936877046362252,0.3849640913686036,0.20088150311206698
5.967782087,-0.6566887474273319,-0.9613345937960995,2.96797263057261,0.8662333800251115,0.4067247141548772,0.2300529226379103
6.007781456,-0.5237300796395452,-0.8318865407469462,3.0070050964482595,0.9767603666844978,0.43046502247085233,0.20503018968989004
6.047775962,-0.49608636238980586,-0.7454104765427874,3.0457822471699716,1.0617720790511824,0.4620129752273727,0.16480654465439673
6.087793812,-0.4230061362914331,-0.6059141957592572,3.0740775928257533,1.1475051827749667,0.5033644612403202,0.13099055105280433
6.127773094,-0.38479995366585007,-0.5280550499392748,3.0865597692935385,1.2377064837468603,0.5320039218561811,0.08246672237914787
6.167773155,-0.30378909863544973,-0.337541787596479,3.229018275273861,1.2324453007060545,0.5210452315632218,0.04089787385704533
6.207770995,-0.2895775402259409,-0.24354204383658526,3.2653938745916262,1.247035224251932,0.5336723977189111,-0.009951589056399653
6.247773249,-0.2219029195196231,-0.15193257755069736,3.3281785263535264,1.224751395262455,0.5428392398694433,-0.05309086750146001
6.28777202,-0.18613774263833022,-0.014591169978355774,3.433437146698007,1.2333885337564672,0.49882258827759957,-0.07880358859627402
6.327859371,-0.1335916400070702,0.09490814680023045,3.457362982039951,1.1888439518565086,0.4794165748458517,-0.10184342176231378
6.3677795249999996,-0.08193954287742429,0.2127192573231433,3.441771502801902,1.1699303237296148,0.45106886929973045,-0.12398056070496374
6.407773391,-0.042637596921043484,0.37471549385193825,3.5469607171444903,1.1529481719268313,0.42325818572852764,-0.14522897726357223
6.447789802,0.0027048981995296886,0.5029961880959584,3.5419441217030587,1.1335592450403287,0.3901271797716785,-0.16006165642304668
6.4877775,0.11534273785771174,0.6531858792460767,3.5282970625334604,1.0248054511014224,0.3505580667481372,-0.17714165405976728
6.527773949,0.14874107119592947,0.7288735435268302,3.475236029944311,0.9545284472323587,0.32784264088400705,-0.19280999838863663
6.567877457,0.24573431547010277,0.8652551092993084,3.4911670330776974,0.9026562612836783,0.32449831955427405,-0.2020415345414858
6.607868427,0.36109098232606157,0.9807026572392943,3.5090909750490678,0.7801374962343843,0.29148704208768833,-0.19878300115437245
6.647794585,0.44535460982681757,1.0599075019069446,3.419492871291486,0.7309973864876932,0.2816465580578107,-0.21012765568563221
6.687868764,0.5810662663875994,1.1540406835973334,3.4018837338764008,0.6567081978179885,0.2780330817976507,-0.21509576219647766
6.727802282,0.6847101352948356,1.2160051327678247,3.371208300939233,0.5507888218700655,0.2880646836803972,-0.22048447056207426
6.767773882,0.7933071782427917,1.3136089775677398,3.311322157455842,0.42878738248438436,0.2863363902321452,-0.21910110214159054
6.807778438,0.8865406880408637,1.3446101572334317,3.29277436116266,0.3865642655712441,0.2803065578422589,-0.21831132496313022
6.847768715,1.0168767090269593,1.4131145704557588,3.2440759873525833,0.2577992453716696,0.29658070550811677,-0.23028530410898715
6.887806286,1.1424538237294337,1.4189066810925344,3.165705943052672,0.16169701106654794,0.32580922904051773,-0.23086169608782306
6.927790765,1.2835365390509377,1.4529775635124398,3.2117862047856542,0.08262229207462606,0.32667029523758173,-0.2350973309162601
6.967775625,1.3412856712056893,1.4412816387643637,3.176438205449859,-0.000496390740007218,0.3416727855534377,-0.23939752973349437
7.007796243,1.4990825559207832,1.4652411542179378,3.1604053986544804,-0.09725936910222843,0.37103277938831253,-0.24262507127984298
7.047773386,1.5913663961042979,1.4862555751433364,3.1408550918881533,-0.1517278658654817,0.38400374462690834,-0.2390034705569938
7.087784674,1.7411285356895099,1.4516832558139388,3.1503288489886048,-0.26925257302865363,0.3902551018777383,-0.2414481282853597
