time (sec),x position (m),y position (m),forward velocity (m/s),"heading angle (rad), from x-axis, positive is CCW",throttle (unitless; -1 to 1),steering angle (unitless; -1 to 1)
1.005392644,1.4654910121980802,1.4596220694760798,3.118685667334776,-0.0428519367162801,0.4321947944125197,-0.17688534385873195
1.045411232,1.618714007433525,1.45733439722517,3.047337764055352,-0.12311505479627112,0.39623444703938887,-0.169972457130176
1.085398533,1.7262795383866958,1.4407951645840849,3.057242980996121,-0.23171752876817708,0.375279466015678,-0.17218446931285414
1.1254747090000001,1.866921914731331,1.4395244998071757,3.0552386037638124,-0.27721872589693514,0.3699050148573615,-0.1764107586382356
1.16539871,2.0020418661298396,1.3791209979127133,3.0569021882426464,-0.3674004417668725,0.37741135668988834,-0.17823971992732052
1.205439162,2.0915448979022284,1.319573987317507,3.0759786864074297,-0.4773279682337697,0.353866212517483,-0.1828340453899139
1.245396551,2.2111261433617857,1.2806508282627054,3.0200311546254968,-0.5285247071288109,0.3513407944998588,-0.18797137387289362
1.285452001,2.269550160634983,1.2074351168190314,3.027691856865995,-0.6338098147603058,0.3582748512295032,-0.19416215155852612
1.325478524,2.3844008866473305,1.1239910313677604,3.0044675143175676,-0.7337947810377622,0.3590368844439554,-0.20232646251490974
1.3654069930000001,2.505389151009036,1.0332676294663277,2.957176973846644,-0.8348612142393448,0.3641187092257802,-0.20519624305184367
1.405426789,2.579640843172557,0.9323802909903834,2.987248375465444,-0.902761708183257,0.37348051908597896,-0.207802770915788
1.445403342,2.635360291005526,0.8796332677684828,2.924344966905817,-0.9748010235222587,0.3998499448870384,-0.20848910684485691
1.485395536,2.6945430154258356,0.7665305320153603,2.935313311317856,-1.0869801259015135,0.4164630545019489,-0.21067271782347377
1.525437577,2.73396881475992,0.6397900010606727,2.92251320243769,-1.1781616725395505,0.4156712178809211,-0.21238979515087192
1.565398138,2.7826038233136976,0.5454023702900602,2.940922952796059,-1.292427621993149,0.4433461633485486,-0.21349700298256039
1.605457941,2.7975886829786494,0.4508360023959478,2.953376198253967,-1.3629139103025631,0.46539876298053934,-0.20692699072814025
1.645403025,2.841077807581097,0.2937340881661812,2.936926446632714,-1.4537963845314232,0.45800671583882685,-0.20876866599032357
1.685448693,2.809382277064044,0.2243348845166578,2.9625999022607616,-1.5651575829136168,0.46418468054014356,-0.20999555317215088
1.725478144,2.8416726493534608,0.06264027487431853,2.9675109165769458,-1.7083450916075886,0.47565439325138065,-0.2114601205890064
1.765408786,2.8401909764730857,-0.044881973515948075,3.008064960882394,-1.7759224164728546,0.47777659158498437,-0.210654456432331
1.805393665,2.7866594357688794,-0.168114828038834,3.0242846039153974,-1.833117547217485,0.4676992290141705,-0.20976247223994546
1.84539954,2.7607041311645806,-0.25092983922231504,2.9883445063952547,-1.963467512750004,0.47999240257835435,-0.20858685284836745
1.885396304,2.722067633148766,-0.3757796852809957,3.0315709252333454,-2.0303993762337096,0.493350698578714,-0.20720466963319661
1.9255105000000001,2.6885550570757406,-0.5311391327903658,3.0694604488796244,-2.16958935050352,0.4806251948584731,-0.20397442446798592
1.965448982,2.5432684815302045,-0.5736303212935477,3.0518349694274867,-2.2904369928737793,0.4759747113828636,-0.2028748182081885
2.005401027,2.520406224566533,-0.6823610579803643,3.1068085483878556,-2.3514096168703493,0.48652090946286747,-0.20143214426143516
2.045405234,2.430239807089797,-0.7648538310428247,3.0796324471794985,-2.4322127370858153,0.4988555929531541,-0.2002820566271496
2.085420532,2.356049528277214,-0.8859245840779073,3.088565271896277,-2.517133145069323,0.4731933377298428,-0.19185410755063906
2.125444009,2.207853186008805,-0.949276223119205,3.0744505754632754,-2.5831329450238694,0.460399550449353,-0.19176446309376427
2.165400323,2.0940651759525117,-1.0032207561273783,3.1516906047573805,-2.685611246393047,0.47060617837504154,-0.19204554904444704
2.20543701,2.0497688643295016,-1.068453733104145,3.1356569133144614,-2.782541970345965,0.4493904877481073,-0.19420800827660437
2.245398876,1.8827985043641902,-1.0975498479565133,3.087320471805339,-2.8325683061734166,0.4303063915290623,-0.19514157012830607
2.285396004,1.7625225116881618,-1.1616170270069839,3.1297191156405053,-2.9338294999390975,0.41903206590997566,-0.1956986472170912
2.325401902,1.6876182016675696,-1.1215643271157616,3.10639415969998,-3.0490584345632934,0.42510681729274274,-0.1965614615801357
2.365397751,1.5535769319993247,-1.1688080242443182,3.0979208692765785,-3.103418779689358,0.390912128562741,-0.19711132865154662
2.405393013,1.4382090478758205,-1.1990589635339466,3.117638012325017,-3.2168865229810075,0.37665771335702586,-0.19482596866545498
2.4453951050000002,1.2927523667924072,-1.1848058120569454,3.086816804761121,-3.282764044944307,0.38068044801731676,-0.19276025685384077
2.485395422,1.1718690930044382,-1.166777142237879,3.0157381765726683,-3.4003420547901086,0.3756412877070318,-0.18870588359730897
2.525479591,1.0534273737012558,-1.1541066515894014,3.0360407224052515,-3.495882436218871,0.3553273464009504,-0.1905288051104603
2.565401874,0.9111098380735074,-1.0484024537947012,3.0069017477585525,-3.5799808559665807,0.3505093276164495,-0.19394083244980695
2.605403448,0.8340902675497629,-1.0123395081144837,2.965237171120125,-3.647928250311729,0.3691480974210596,-0.19621374149702495
2.645473561,0.7595854459047006,-0.9329860993852872,2.926577314548106,-3.7571306632008366,0.35344235467156,-0.19627069098099062
2.6854403600000003,0.669081116187126,-0.8883396874806408,2.925125344004997,-3.8839410335421523,0.34947936311778927,-0.19885188342905344
2.7254495160000003,0.5374672611043619,-0.8333538406456718,2.8925857730554085,-3.940399447946417,0.36728721279509075,-0.20098968348666893
2.765398124,0.46587650072879677,-0.7481282974665564,2.901135448713979,-4.0516882435076536,0.3853553065731125,-0.20393950168693797
2.805404654,0.4036485157523951,-0.6241001965878137,2.916737590691439,-4.166218414403626,0.42499848373484356,-0.17891037358788267
2.845396814,0.3080775898916945,-0.5148067136993604,2.9047358816223903,-4.205598940244301,0.4649847923103079,-0.1493664420425982
2.885437775,0.32876293617640406,-0.41513804315575353,2.9996545303236353,-4.264919148498672,0.5000222777560104,-0.11860205719460777
2.92544249,0.25899541169408263,-0.38666926791090406,3.0611085942544194,-4.3309772147694146,0.5314608192851048,-0.08865775072970733
2.965398268,0.16896423961221346,-0.22035354249861333,3.1584213036860063,-4.344937278526548,0.5187367275364291,-0.0487758114912367
3.005401398,0.1466152922200143,-0.11492569347088427,3.2281654008024123,-4.331965692305745,0.5229638933899605,-0.006450860616492164
3.045395675,0.07234607457682453,0.06209929278736221,3.3502873995377036,-4.333163124034741,0.5197787662500931,0.03012500440192742
3.085399201,0.037706550751055334,0.15363316436950658,3.3826237785048106,-4.339990953891859,0.47212573595225704,0.05610428705333356
3.125396515,-0.02858303535202204,0.27082702921080404,3.423171843739455,-4.309951046196162,0.4371495539959549,0.08100644640515882
3.1654010870000002,-0.0667912232233104,0.44682163620921267,3.421357876428293,-4.304058541055948,0.41422874651634883,0.10133918566754845
3.205395975,-0.1555911346851272,0.5320427146619258,3.4830957056606375,-4.245133035787918,0.40554450669281494,0.12077572043353013
3.245396306,-0.19991345571691824,0.6607787295204897,3.4543563365539898,-4.189867310514246,0.3496523893703374,0.1386344969915497
3.285394341,-0.2525795524828797,0.7548010039887559,3.4945980003601744,-4.145489213730578,0.3274547342555282,0.15547776794435125
3.325423537,-0.34978841511612485,0.863634819708759,3.4627800110294276,-4.094144215221835,0.3126221102434937,0.16962479143358905
3.365396567,-0.4570462745178821,1.0093704687333906,3.4362551752710098,-4.02880988126897,0.30662463234193227,0.17912899755895267
3.405405275,-0.5363616925016208,1.1061020139288658,3.3985709754772637,-3.9255794312195498,0.2856594428610254,0.18983181217505884
3.44539759,-0.6738613396370575,1.1802567644859532,3.3994546226379136,-3.8141449544634822,0.27998788790686807,0.19684803430446593
3.485400019,-0.7122255262084858,1.2517059098680199,3.3679903511338627,-3.737811139664359,0.2898152838793898,0.2020480010222167
3.5254833320000003,-0.8655420573381012,1.3441557423488044,3.345505608554511,-3.632116023954467,0.30148341566225495,0.1995333798428926
3.565414355,-0.9607184854184287,1.3774899724256775,3.2976806286690574,-3.524123847711632,0.306024574179993,0.20067038214860938
3.605397071,-1.0799973974045733,1.4631562631177697,3.2549216831908008,-3.4420674791283457,0.31934947662996643,0.2017751150164611
3.64539977,-1.2122316200211223,1.496665630361709,3.229792623734698,-3.3778244101025177,0.354563889613034,0.20182667710622518
3.685440651,-1.3442635407518755,1.5480580029508462,3.2245703472173233,-3.280254330400962,0.3642070454557017,0.19733369553080018
3.7254685910000003,-1.4889339250971747,1.526730577464257,3.191717599179415,-3.143355758586125,0.37974025446220955,0.19835749687012236
3.765411039,-1.6005213914686094,1.546991514532326,3.213961296355487,-3.0590498990245703,0.40590392057025193,0.19956281238999196
3.805458256,-1.729662968171281,1.570412116347774,3.2334011497473396,-2.972985016689001,0.4329344536304723,0.20094012160628363
3.845406154,-1.8380752924455768,1.5400467725919638,3.2171561644268083,-2.8959303472886457,0.4271936170136464,0.1979842578027682
3.885398073,-2.000733619473795,1.5500856801636982,3.283607318047509,-2.81913612387423,0.4241440113744277,0.20076553789010057
3.9254111490000003,-2.1415084985090234,1.4657287210391516,3.2600155065454928,-2.752589317863689,0.4331222637417994,0.20381667849853788
3.965417488,-2.228481428762464,1.4067922072727375,3.251414179331815,-2.6609090329677936,0.44117335815313846,0.2043023986013663
4.005399659,-2.3557654400306847,1.333638393728319,3.2588252258922314,-2.5864234556494217,0.4272962078674772,0.20275613506146042
4.04539559,-2.4448129273363066,1.2994042530359147,3.2144495564594227,-2.493483579693916,0.42459308320096323,0.2043738781801937
4.08540207,-2.56836125501678,1.1957576001006545,3.2553805509710405,-2.380169440769065,0.4441853484850412,0.20616470637359077
4.12540514,-2.615372876497602,1.0718707792515663,3.288046158660754,-2.287696319922699,0.42499640920638376,0.2072067052008706
4.165411073,-2.7115437139748986,1.0357279213638337,3.2362610660615916,-2.2205140409258965,0.41269191261770793,0.20855358958260026
4.20543384,-2.7426863586895354,0.9022230201516116,3.282325317497274,-2.1542593474475162,0.4148702270008956,0.2086797621467714
4.245397052,-2.860236134333823,0.7806709034663343,3.2793184048149393,-2.0506558506668706,0.4044438696182375,0.2077809987790921
4.285400033,-2.947254232995534,0.7059344275734488,3.2335542045429864,-1.939647382251994,0.39350135524662094,0.20568921121085001
4.325421957,-2.953785401421419,0.5677576407498952,3.2789915669125027,-1.8785326927207073,0.38327762030933005,0.20418836649811273
4.365406959,-2.9875896349689426,0.41500179174668234,3.2408831084734806,-1.7538763785486342,0.39371314222961673,0.20251396346782444
4.405456564,-3.040581216411758,0.29975688667257544,3.2506676575859035,-1.6929388780810504,0.3862637479632887,0.19301184150513997
4.445403783,-3.0420850524267444,0.1722501443981568,3.1758702574409776,-1.6260650349253902,0.3587303646774306,0.19447537445906202
4.485476892,-3.0535252547396814,0.0647576042047692,3.1699312303163434,-1.52390436736415,0.34399538500429566,0.1976748246107236
4.525472431,-3.0344157929796904,-0.06168334827116996,3.187984548609238,-1.4162186480310088,0.3463198953878794,0.20284230824905775
4.565400175,-3.0539569917730587,-0.20757841627436235,3.1690385855284444,-1.3372794030076631,0.3413878690092648,0.20788807368832324
4.605401928,-2.974406287929951,-0.34474866794988623,3.1257755185001868,-1.247527419984506,0.3339472234200958,0.20931877692425466
4.645400843,-2.9811366019900176,-0.44317537219052566,3.152080659512901,-1.111570540901163,0.3052505673814287,0.20818922557695754
4.685395167,-2.91050775884264,-0.5515429128079508,3.120740872735472,-1.049330635180538,0.3274603952200897,0.20956898198808657
4.725398951,-2.872514361228223,-0.6611607649398787,3.0892605322619286,-0.9732654138587571,0.3183405533345175,0.2122218378298613
4.765402469,-2.7637145938938645,-0.7435634483135141,3.0881327166935018,-0.8645947387997545,0.3071627054811957,0.21621016586380573
4.805419194,-2.6916773335177235,-0.8886597254728228,3.0145060295061405,-0.7852692843220692,0.31714578945724603,0.2216381304971074
4.845398346,-2.6299067034362738,-0.9462104213385303,3.028219368660198,-0.6615745918076199,0.33537699912964775,0.2275069869092975
4.885397824,-2.5094764075579836,-1.0118604536539089,2.9574905432567884,-0.5840173807192961,0.34406572003104635,0.22809900264264354
4.925477581,-2.4570604577826347,-1.0610972620829866,2.998101051074141,-0.49588155119034466,0.3625021488354424,0.22975892470431492
4.9654028960000005,-2.295390139167221,-1.157170702858591,3.018687290156831,-0.43446373253502835,0.3845624324444662,0.2322108380825416
5.005393129,-2.224557693840139,-1.1790829448507036,2.9982659774049627,-0.3084475714773604,0.40469628234215127,0.23389665155812536
5.045400275,-2.095610922564001,-1.2628389601761143,3.015991108163247,-0.260506639757451,0.413473849691307,0.2365475498321949
5.085395306,-1.9974523930438006,-1.276863599711604,3.0353490006747794,-0.1364713303303066,0.42956718909042013,0.23870941683321706
5.125497928,-1.882407482453834,-1.268969101849065,3.0210075970640995,-0.058892169915668535,0.4529908281430926,0.23514324710338302
5.165392428,-1.73034845524406,-1.277355619491856,3.1015303531932537,0.02472279796290884,0.44395186419187566,0.2360278582276678
5.205400111,-1.5927123264818632,-1.2663838492577013,3.0934696374245223,0.1551122618218984,0.4475632739864424,0.23535058092895636
5.245396133,-1.4713692955866575,-1.2631995716309228,3.142319338325948,0.22319468632342016,0.46357567330903343,0.2359509526479225
5.285395409,-1.351404685794135,-1.2191539977034413,3.1314498901301167,0.3208733322246761,0.46497397931562334,0.22976856439201293
5.325382549,-1.2797007562102192,-1.1643474686818307,3.1664078398582642,0.4010175502550194,0.4577463052751977,0.22892724266005518
5.365399733,-1.1347961442645513,-1.1009995113389293,3.1374325265089893,0.5129723844323528,0.45269357991646814,0.22809348340128968
5.405391637,-1.0430688692955528,-1.0735538471127979,3.2050674573693483,0.6010040381248442,0.4645102640666679,0.22643200320831858
5.445397886,-0.9123794073199576,-1.0250033370459486,3.1525897546119044,0.6620313967466938,0.4468692194518027,0.22248643816549632
5.485394132,-0.804247847919916,-0.9389643105697094,3.202812578444128,0.788189826063667,0.4406200742924024,0.21857592188996167
5.525374837,-0.6853014905348959,-0.8359975349370634,3.2003418943827753,0.8605361502656586,0.4477662501230384,0.21435622206305457
5.56540691,-0.6115839808818846,-0.693408656239569,3.211352907811813,0.9660750467448905,0.45679108356502907,0.2067682311679953
5.605396145,-0.5824264354362783,-0.5973162026137249,3.267369072976785,1.055209428373883,0.4876744052300274,0.162850968935717
5.645398302,-0.49265353964108266,-0.5429750630484682,3.3229792942686753,1.070373834252155,0.519863704637077,0.1179337222213192
5.685393483,-0.43295695041728816,-0.4253232851187725,3.357899393797853,1.137804791474338,0.549672697193321,0.07309016748344005
5.725379821,-0.34707790973258834,-0.26809292209014257,3.4513565518327938,1.1300866917139556,0.5385871890661263,0.03778209273729825
5.765418422,-0.34178944469432065,-0.13030858109594337,3.5211904767022655,1.127026846664218,0.5336498796509953,-0.004735091194471035
5.805402461,-0.2156922306929609,0.002804452270037741,3.553978727967404,1.102351231076596,0.5297006358046774,-0.038698890995482974
5.845445161,-0.2197753064629489,0.14305266590107035,3.64898742478624,1.0704877878356553,0.5315302118796729,-0.06446876473779567
5.885444679,-0.10448419593591358,0.24361127871642063,3.6492795704939103,1.0500320393683307,0.4756515821725234,-0.07860681626751133
5.925463446,-0.060464228966617704,0.3888270336604501,3.7178974622265004,0.976840887336745,0.45372132069071835,-0.09773641938497497
5.965400876,0.02218804994987561,0.5186585494916865,3.680347207564177,0.9518516523564349,0.43999359183609515,-0.1121788502981186
6.005456668,0.11125850674840493,0.6019925457949568,3.6994262154617035,0.8757382137767636,0.4174071912813208,-0.1192472941882935
6.045468254,0.17633500931859908,0.7304694780723601,3.689734063611778,0.8105914592488102,0.38949708997095633,-0.1271221579950092
6.085416482,0.3044988570613189,0.8504345310781797,3.6538861754668504,0.7676172285303505,0.3787699353061923,-0.13341325093901493
6.125410197,0.3976086839095895,0.9371137979875119,3.61067721790918,0.6333119521766236,0.3807935616796926,-0.13681154827733732
6.165400716,0.5673772210973062,1.0044194948256109,3.5864582386972232,0.6016080169245572,0.3684543497133705,-0.1337328582282556
6.205445496,0.6085596293138621,1.094455449431667,3.598298297904842,0.5224015448316699,0.3579044224130687,-0.1369237253925698
6.245452479,0.7525822598117111,1.1771657662930293,3.550004080762078,0.40863838324098906,0.3582245040241934,-0.138063205489711
6.285405299,0.8964078775500133,1.235289793908044,3.5243738086011382,0.3500280344754408,0.3670649287160143,-0.14053025265629557
6.325393337,0.994639175747402,1.3209381662010278,3.4452556966247956,0.2745428742875886,0.3317799369433623,-0.14241068013522354
6.365400185,1.1646877967545617,1.3728627161407365,3.3970399206656485,0.20260219207673813,0.3187493639974316,-0.14346470716605014
6.405399269,1.2903347670481826,1.3704072289306664,3.357473847120385,0.13920310551141213,0.32060240205194857,-0.14448244352222822
6.445400412,1.3957713142787802,1.3853900481104555,3.328336444854983,0.029801564718829655,0.3303574494423426,-0.14328549677213898
6.485445343,1.5615983190877734,1.3747819275299369,3.309141376394734,-0.038755314006068284,0.3130758342425232,-0.1465825334478519
6.52544055,1.6833093660034044,1.3647275132983763,3.2982943860566825,-0.13537159761895273,0.3067677648693219,-0.15150668569341108
6.565406427,1.7737734267000893,1.414130542211609,3.2230108041605168,-0.1934740171646818,0.3121619421580428,-0.15799539020208775
6.605393696,1.9400819323335063,1.3522343543878856,3.1492841531908033,-0.25847271998952925,0.3089037577236375,-0.1653256441837514
6.645400772,2.0583438595396935,1.3424948642449823,3.166323629327661,-0.35822106206719995,0.29699463950122895,-0.17054163416829538
6.685456104,2.1799071565581394,1.2720423808354968,3.1389648460982396,-0.4478205109880018,0.29791895208236646,-0.17685809930686408
6.725414875,2.2907842027254475,1.2193368236542201,3.0693360146978375,-0.5418242703847532,0.3167905234089379,-0.18284529528208027
6.765404855,2.3513702002034607,1.1336028894708858,3.064296494379032,-0.5898959509657505,0.32435309096577364,-0.17742103138596066
6.805454672,2.4775884427998047,1.1162377134944899,3.0303576945015154,-0.6782874341859974,0.3227510842353576,-0.18589154362191082
6.845399669,2.5385641951280804,1.0221578623366987,2.9793283569278297,-0.7695134453548218,0.33254052290055913,-0.19525749775222656
6.885398459,2.6524202268137995,0.9153275771830761,2.950944470174846,-0.8454777869008112,0.35856499216582255,-0.2032334629493875
6.92540448,2.7138025732144433,0.8470182358113341,2.925912321527395,-0.92572309363879,0.366890908398903,-0.2113149150883293
6.965407875,2.8065356098096084,0.7439135985946875,2.8971978905051814,-1.0565416710985027,0.39257467001779045,-0.21440228331019284
7.005460771,2.8451608136460558,0.613792279786223,2.971558052148852,-1.1602803280302252,0.404286156174497,-0.2185453061006837
7.045444743,2.894935330859761,0.4799037003474745,2.9562309118208017,-1.2995974256772302,0.4430469689577877,-0.220504380069821
7.085395576,2.892362885954698,0.40080759841682423,2.9456864486954815,-1.349066944990097,0.43968146428165944,-0.22034041143414895
