time (sec),x position (m),y position (m),forward velocity (m/s),"heading angle (rad), from x-axis, positive is CCW",throttle (unitless; -1 to 1),steering angle (unitless; -1 to 1)
1.009614504,-1.6161964683530141,-1.2149743743886736,2.7518379298365345,-0.10277391384251114,0.36738333614863705,0.27365471796317287
1.049608817,-1.476793627548579,-1.2559866491821652,2.766444385083343,-0.02471836212556134,0.3773966420871399,0.268714819852687
1.089661347,-1.3674777796506417,-1.2190955457242234,2.793788972189192,0.07005545741570797,0.38793849216429843,0.2642422078624138
1.12961248,-1.237436750563944,-1.2378236232509872,2.820840626079931,0.16011269248420487,0.4046175690698098,0.25892855456193203
1.169608658,-1.135453537097941,-1.180267723079291,2.8194407059909112,0.3067474111817098,0.4239809598007526,0.24912103089507753
1.209604213,-1.0783788955401712,-1.124034262958015,2.833724137431754,0.3583708333632493,0.4212076208293455,0.2466455642284448
1.249652708,-0.9198987905221088,-1.1180306782547371,2.8940453006833717,0.49276773374442073,0.4299389329844352,0.24467073328755792
1.289614402,-0.8265472102616642,-1.0628817055362263,2.880738209827645,0.5471417468477032,0.43786457704731097,0.24318278948110392
1.32961457,-0.7376180886882137,-0.9906832675983808,2.911157032548112,0.6316374370724603,0.4278621514879011,0.23589012738337337
1.369610149,-0.6469419145771058,-0.9299732223738083,2.9073970878943682,0.7473646327556609,0.4165827091380662,0.2361471734939748
1.409613751,-0.5889616334107057,-0.8480047758337969,2.961235543917649,0.8316756044779708,0.4160235286729239,0.23686833753653644
1.449605668,-0.4926880473354973,-0.7610884578954085,2.9565642717478067,0.8859001409145122,0.42180041206612184,0.23816462681696848
1.489608356,-0.39848798965868043,-0.6360822009516967,3.004781202861016,1.0134986717286536,0.43173801331815165,0.20369419120353147
1.529623536,-0.3550240236506607,-0.5528669817264037,3.0305490282776635,1.0687655457486056,0.4312317088764842,0.16574725275426125
1.569689372,-0.2908160260160944,-0.4599785328461339,3.0620968136062605,1.1118670714414685,0.44456473172626626,0.1269005797853329
1.609622333,-0.25375018280044914,-0.3373438410138426,3.1382448936617573,1.1396018537443264,0.45323621006556963,0.0885033470208726
1.649672668,-0.16535872790692716,-0.22477163800079805,3.1299921219915343,1.1783044470210624,0.43262098476522703,0.04392647880800717
1.689618365,-0.16888988276090533,-0.08773240606196883,3.221229179686059,1.1840241333889756,0.4267153547214825,-0.0031935713682652352
1.729661796,-0.09312127775652407,0.032117125970686944,3.2609099372027543,1.1840386453642602,0.4297639965283559,-0.043590852567979455
1.7696912930000002,-0.06445590120801664,0.1480224485187159,3.301452675506003,1.1440394294556764,0.4477059363052494,-0.0765744661422528
1.809612951,-0.004821696062930557,0.28661661625746715,3.2907726674119893,1.1348124852730226,0.4006342212243438,-0.09915438712259396
1.849657176,0.06942156338930375,0.40215849514528995,3.3624336740852496,1.0352549719700068,0.3790937337941806,-0.12143543829551631
1.889609509,0.16593030427387684,0.5411427732388633,3.3287254642743522,0.9844437124336727,0.3747356200048491,-0.13874114075443802
1.929619411,0.1993840814512294,0.616023603161952,3.320689589451724,0.9263192875569504,0.392367601147178,-0.15021889598893312
1.9696887140000001,0.2780090969325142,0.7175477466746727,3.317675234930901,0.8528994533019023,0.3431237581588022,-0.1527673991654435
2.009692695,0.3907541383725574,0.8080533452022578,3.2842849894841635,0.7381481625819641,0.34517606314538646,-0.1591477022714133
2.049627841,0.5182580605105113,0.8999830395673875,3.2501150305333653,0.6781224690517881,0.3549326584909726,-0.16284940711043888
2.089610855,0.6311596944704277,0.9829395265946017,3.1879940215501894,0.5759590832043623,0.34717970049349317,-0.15888621554638993
2.129630387,0.6676200957008351,1.0566763970616428,3.2217268382979087,0.4916605311139913,0.343355162725469,-0.16104580449428968
2.16969748,0.799595530092393,1.1434272886472774,3.1855358423906037,0.3910132151043844,0.35449656191976353,-0.1621051470332881
2.209616785,0.9247213782154634,1.1608373944820756,3.182319098275679,0.3007187559121717,0.37906403306414893,-0.16389864752267827
2.249606159,1.0204106572651148,1.1722668341117828,3.1094528538711166,0.24634900113426986,0.35045713251780874,-0.1536602907048238
2.289650167,1.1769892304458196,1.2013626626516654,3.085460874154147,0.1396006039918874,0.351725722736206,-0.15671344900056147
2.329619624,1.3146151794405758,1.2228479904289165,3.0888200430405037,0.08791796334300755,0.3553825914695317,-0.16001646382849727
2.369665301,1.4108403240444058,1.2360306485351948,3.0567310041236677,-0.03102035626757587,0.35876462403071196,-0.16191166246304445
2.409615365,1.5450589328519995,1.2300482639955361,3.044383982631625,-0.09887963888512641,0.34780261875930385,-0.1649474934504588
2.449648228,1.7051406154128432,1.2455078075690036,3.0598443028454763,-0.15872424972025273,0.3365929127855329,-0.1688677166748068
2.4896156080000003,1.7733302961904736,1.1880373578735794,2.9782871327527674,-0.2661448149538079,0.3406232427332347,-0.1726683272473543
2.529619811,1.8646929107898471,1.1561098344340484,2.9677440166162574,-0.35111821869863014,0.3388085442780385,-0.17463275145815205
2.569604478,1.9974750672587198,1.0973212753418158,2.9449282559842387,-0.4665683184608556,0.3223635286429086,-0.17669348867574403
2.609627162,2.086654229878957,1.062936262404065,2.9192305020838987,-0.5091220404656867,0.332289613370285,-0.17929487652761616
2.649635107,2.2179625039990154,0.9907546398271452,2.9323322882943366,-0.6043252090315883,0.3469565688849423,-0.1821894945497789
2.689680735,2.2568714827105563,0.9268450950913026,2.9002959818502587,-0.7084076370430438,0.33009395385470397,-0.18311828816963927
2.729614989,2.380912366783289,0.8767141528499915,2.8624303959301254,-0.8151430337829398,0.3306930701767589,-0.18751117612901133
2.769697356,2.4580834142828993,0.7651741778306191,2.867717177949356,-0.8692343292936852,0.33699886485566605,-0.1911805398521858
2.809632439,2.524414983505505,0.6863886668272329,2.85227513606007,-0.9618795664342802,0.3325181786389046,-0.19722088276610195
2.849667481,2.5764732060818396,0.5669995588780175,2.7812973920701034,-1.0762275071073284,0.33310201502814357,-0.19990423600058163
2.889614879,2.635132870283303,0.4784930074853277,2.797195805869816,-1.188208548485488,0.3355229456197009,-0.2026722312007274
2.929635023,2.657473936246344,0.34400445823133724,2.7663287858936,-1.2151852507343512,0.3581319643697969,-0.20415490809904843
2.9696977,2.726525075494612,0.2599410628325484,2.776859594965415,-1.34299739017482,0.3577744884964765,-0.20563473161264686
3.009662113,2.7516226032443787,0.16272740396900467,2.748954471565204,-1.413477943671503,0.3540192301448296,-0.20635284508438706
3.049644553,2.710696982938027,0.04659457006537541,2.793948268961286,-1.5156144894724364,0.36439976679534625,-0.20804745491548524
3.089611063,2.7335593150119464,-0.03787981009897627,2.7539396421877926,-1.6161526650606577,0.3704172759355149,-0.20817571957547665
3.129612871,2.728119971984052,-0.15148466054662674,2.7388629947735974,-1.7048332800478465,0.3716575915165158,-0.20768841294851267
3.16966362,2.6832452833053804,-0.27666666807968027,2.738467314294245,-1.7991264068495292,0.3722587898022887,-0.20845480407591405
3.209668745,2.657848306324976,-0.3655661401016839,2.763778461220271,-1.9069476061154937,0.3981183078147053,-0.20852632249820408
3.249641542,2.6452127271276598,-0.509461577814621,2.739703397757654,-1.9756030893896181,0.3818397641952103,-0.2065598003516001
3.289650713,2.572593585708958,-0.5834985488370065,2.732474011601615,-2.1217326279214257,0.38534665592498213,-0.20763407195637626
3.329617002,2.5025675423626446,-0.6971784137688087,2.751192030801994,-2.1814308245222374,0.3960717508827956,-0.20860418989265947
3.369708115,2.4936102546362373,-0.7772078665133365,2.7988342008228546,-2.2596942654071546,0.41047075910287395,-0.20404815979942792
3.409620592,2.4034937034565633,-0.8748937450623021,2.7928402866784654,-2.392704738541445,0.3951110816272789,-0.20437493803200316
3.449609245,2.304220373528353,-0.890030292883707,2.7865999715211967,-2.4479313781570036,0.4061285814170247,-0.203541478701312
3.489609107,2.2255380130276365,-1.0235832647688812,2.7714561989775444,-2.5721238141118445,0.41528102342540074,-0.20368680531746394
3.529609396,2.1003384385994637,-1.0271853479692303,2.808014348924356,-2.61914685625467,0.40967116869914744,-0.1987628190943847
3.569612654,1.999294719588758,-1.0982990098437622,2.828238119724297,-2.732432046382841,0.40587922691805844,-0.19983271808539557
3.609621206,1.9253680893499738,-1.094499330874223,2.818728600724801,-2.7981197313958535,0.41478033863029057,-0.2005858091795551
3.649659877,1.8129400954496142,-1.1898746803658495,2.852532477566471,-2.9482856359561636,0.42172785620377196,-0.20191363355590772
3.6896099810000003,1.6704049439346393,-1.1643518055367534,2.8495177893085666,-3.039734483422498,0.39330885476243443,-0.19501018622076152
3.729610384,1.5674318582022748,-1.1973446453491658,2.8076325317360853,-3.0860345612739866,0.38898089668906394,-0.19633572206056127
3.7696420760000002,1.451532075124732,-1.1670881089797853,2.870919417099174,-3.19692766235526,0.3943923702943612,-0.19772437442194685
3.80961336,1.3352221011861174,-1.1638031372752926,2.857044481564006,-3.307584670173138,0.40171841700844346,-0.189931582593872
3.849664473,1.2185197358941076,-1.1891330392017867,2.8461232920469004,-3.3988261213964264,0.38492478978403877,-0.1914443832041176
3.889612005,1.1040099375421868,-1.1214194178014831,2.847843874937143,-3.466894663374609,0.3793726961846778,-0.192458444849357
3.929607451,1.005102686601288,-1.0736815971025437,2.8524813389214345,-3.56016956121192,0.38803810176755626,-0.1954325541030921
3.9696111810000003,0.9148333112569527,-1.0376057953213902,2.8266445853484647,-3.650859745445091,0.3752657857263089,-0.19529803495887227
4.009609909,0.8043258708913038,-0.9650681470139009,2.798703598396324,-3.7399141972536434,0.37189425512579555,-0.19628924673144482
4.049607648,0.7355837702665481,-0.88749055204776,2.791646389619225,-3.855838360223418,0.37185703658647745,-0.19788989427839868
4.089614331,0.6566729014375995,-0.8573361577756949,2.796524030152445,-3.929588801894443,0.38708235006521224,-0.19886965062580805
4.129608518,0.5819958377972568,-0.7772881950254731,2.8179511620637463,-3.9961192025276016,0.37535003711908504,-0.19203215620634512
4.16960897,0.5095505734542627,-0.6701999607150504,2.8102084252729957,-4.106503162453082,0.37684989230428134,-0.19577165014763664
4.2096314790000005,0.418393906316601,-0.5549699057046699,2.769737323290902,-4.2001802010986,0.38196888974692655,-0.20006687262723094
4.24960314,0.375529344161414,-0.4909175334577454,2.784151400015546,-4.328385373040515,0.40823020699256823,-0.20342180163668347
4.289615241,0.36532003716212347,-0.38585867012398006,2.8355739275970393,-4.343204578731579,0.42374253392535915,-0.13830583446345582
4.329611204,0.31392715786364633,-0.27620249781411976,2.875127479735612,-4.427868804151654,0.44190675093711224,-0.08681189465522987
4.369652435,0.25583142612413234,-0.1324268766905394,2.9752369623961537,-4.469087746053808,0.47230217076740283,-0.03324949141442255
4.409616519,0.2293924404512537,-0.07840485445236439,3.0231379575919344,-4.462006971677758,0.44918242388065266,0.014494504897173813
4.449603822,0.2164256866988584,0.08866445445826202,3.11227418591174,-4.462906287339149,0.43043453874227194,0.05739424321059465
4.489618678,0.1717692561499064,0.1661454046915839,3.140222262088886,-4.4234972039710545,0.41142004055578235,0.09274992883034029
4.529682987,0.10701463123445207,0.3723777485629747,3.148731212368401,-4.394121227567358,0.40618829611260515,0.12015485688770919
4.569685845,0.1304203418088642,0.4202147621826885,3.2172565935867348,-4.413132386272546,0.36651158502627124,0.13683000965413802
4.609614116,0.045164186828293575,0.6116652484636517,3.23673018533524,-4.298437444288734,0.3410129571674696,0.15989901935510378
4.649605736,-0.024652546285524924,0.6731888283404952,3.234983565146989,-4.274734897175009,0.33528091844948177,0.17892080508730354
4.689657375,-0.07814240838556985,0.7717670872952558,3.259063921539357,-4.164142221626876,0.341860610957135,0.19400959632680287
4.729621456,-0.12362869834295169,0.8767708121206753,3.2125075219840946,-4.0953474385676545,0.31012838253095476,0.19996137283988552
4.769610533,-0.2731926272546411,0.9700858414370852,3.1525506502909955,-4.0214030953001325,0.30445261795978534,0.2104406713534046
4.809612951,-0.3206500242742002,1.0824303178888717,3.162237480701982,-3.9031136213936883,0.3040870604430018,0.21821922176825473
4.849610668,-0.4146607436569788,1.1814550254055474,3.149437472549221,-3.8040532981112127,0.3160726879825423,0.22122489038838625
4.889615243,-0.4887598921368702,1.235192764145643,3.1113935786050457,-3.697459929177264,0.3184643193671151,0.22378283707897936
4.929614601,-0.5995175917469091,1.3372891559202431,3.1301818471433416,-3.6105886633591586,0.33309448997718066,0.2241942428616286
4.969672029,-0.7098149878863519,1.365467160932281,3.0662116834499487,-3.532803300358543,0.35860914074446487,0.2224491709154196
5.009621308,-0.8413207973903788,1.4085769794793885,3.084060193365391,-3.467184691468522,0.36140492320206047,0.21353383141684867
5.049607947,-0.9615660974536563,1.449625401557396,3.0455868751948914,-3.3542748284628052,0.3735577795808039,0.21254022389847918
5.089664033,-1.0543519807493602,1.4561769267332845,3.043711630214108,-3.2470279907486224,0.3982114867393452,0.20984206490633328
5.129672654,-1.21366562217882,1.4967454158807623,3.0629521949309764,-3.138316974279515,0.4348849058038307,0.20850662867103326
5.169693043,-1.3190336466089256,1.4640845114383447,3.0857716108250073,-3.060516889453713,0.4160957758765388,0.1994692877546737
5.20962365,-1.4356572535158436,1.4476877114469775,3.147914722169639,-2.977490690391553,0.41815417564352486,0.2002397635377347
5.249606082,-1.5448966215588196,1.4830376498075235,3.1178842473124684,-2.926232927046449,0.42702901194988063,0.20194043757265404
5.289611738,-1.670750850209298,1.4083488050391315,3.1008404807048824,-2.8454034273542805,0.4195951857727413,0.20106210969359592
5.329615385,-1.8192675627452497,1.3810376272227993,3.151266902887106,-2.7136131108683257,0.403945925218378,0.2023162939107868
5.369688882,-1.8968009857246064,1.3109852646257198,3.1791876235065937,-2.6826272869051793,0.404296023555224,0.20342838532789378
5.409618623,-2.0727966893970384,1.2572352346485065,3.1508093494113796,-2.5799063394655963,0.4094772699511862,0.20473864069122777
5.449710343,-2.1243618835851836,1.1857528202660683,3.175254569573639,-2.5210952619890303,0.3819562496406264,0.2005467206286994
5.489615355,-2.2239866379789657,1.1010674826549738,3.1449715340072557,-2.397293776262311,0.36334031751841683,0.20502378231126628
5.529624839,-2.3493011757277116,0.9924214147832383,3.171929789562921,-2.343590501114062,0.3668071001571135,0.21064236831023483
5.569640057,-2.4295355509720826,0.9140126680761361,3.1963272283680197,-2.2660622009663003,0.35299027498441266,0.21346247493916723
5.609621096,-2.5221482603258236,0.841767632692223,3.17391661218236,-2.1163541238414796,0.3313687197012901,0.21506969494476932
5.649664742,-2.5639922026598714,0.7200433951854334,3.148370715709717,-2.0820562605962483,0.32628923026507134,0.21495409884878316
5.689610129,-2.618776950268738,0.6294949991039672,3.115879217762574,-1.9550484800297132,0.329077186775404,0.21453059329416646
5.729623831,-2.6189446246828245,0.4997667389698752,3.092971490682134,-1.8724075299336904,0.32249240598332796,0.20627649057534453
5.769655575,-2.7072218990248498,0.40895022249519475,3.09823528977726,-1.786829240944535,0.3092975149484775,0.20629836235369237
5.809625759,-2.699495067153278,0.2687292984247069,3.091642771615848,-1.7225109820711861,0.3084864096170326,0.2076860641834627
5.849668609,-2.675146045618471,0.11093954901288436,3.0118314813194043,-1.6163374316173913,0.31563137380224704,0.21050978063840328
5.889616572,-2.728391468218907,0.01549507552990495,3.0032030410662274,-1.5616790685233286,0.3026921896163089,0.2066525953193659
5.929617592,-2.7194806669937663,-0.0614235114649672,3.006822262798788,-1.4485121822708873,0.2890676899722887,0.20975869268334044
5.969664038,-2.7500446224412767,-0.2114843665409451,2.9554959273184327,-1.3544329039234946,0.29358530713179315,0.21361552342845483
6.00962542,-2.6759674842497225,-0.3450142431814558,2.9524173852937645,-1.2551039592007764,0.30760013290175514,0.21857207108213875
6.049680257,-2.6324762011386915,-0.4787227169237933,2.959371870571033,-1.1630778557830874,0.2801975104317248,0.22325053704974634
6.08961501,-2.5985170993974958,-0.5379033988990579,2.9253341898121104,-1.0812871848013312,0.2871055249742673,0.2274520857580698
6.129613568,-2.549996550477139,-0.6769337268328914,2.8912559708549255,-1.020099927124178,0.29174319118983183,0.23087660170704336
6.169605685,-2.454584816596001,-0.7823878645622456,2.9020963309300085,-0.9033769843762036,0.2881887200002367,0.23673804845128463
6.2096178890000004,-2.399039396366424,-0.8524312410192104,2.840871112010951,-0.8139285091074051,0.2846907982864193,0.23907819638865144
6.249605539,-2.3356387687764326,-0.8886832308641793,2.8490876593566505,-0.7070557380303815,0.29689027225321263,0.24049857785328926
6.289622729,-2.212824569126469,-0.97560037696926,2.806563264354552,-0.6296056599962685,0.3181361433942387,0.24225307007298905
6.329614501,-2.1292434439426495,-1.0871744552566662,2.7919466815920013,-0.5108226316677116,0.31870719938070324,0.2398884516982056
6.369690827,-2.0494860674564648,-1.0911795447821349,2.835912917400251,-0.44040714340120296,0.32887403702492507,0.24455021671216592
6.409628295,-1.9264655581639158,-1.1199584246001582,2.7907689298018634,-0.31946617293534435,0.3477452892982994,0.24874746125029767
6.44966302,-1.807379476729243,-1.2423013408972778,2.8453230098702615,-0.2587146344882384,0.371912674990937,0.252370177086173
6.489615041,-1.7341143393827694,-1.1986734713672775,2.828200067023661,-0.19054885892719436,0.3714099354095373,0.23932722561526049
6.529618708,-1.6133405002616021,-1.200873865203757,2.880579280559806,-0.054628036121717384,0.3752898358715255,0.24583256094537356
6.569698363,-1.4923475157731054,-1.2345928804269888,2.8669659954509368,0.042464467635512274,0.38579116891154774,0.25141033665225987
6.609658717,-1.3599845169366718,-1.2183181160048102,2.893029817011028,0.1419219890931689,0.39956850252433257,0.26140321661528604
6.649606319,-1.2624586424722233,-1.1445699856201157,2.918231113802855,0.251420493925291,0.393627473305466,0.2570361403255533
6.6896660610000005,-1.1514228972096043,-1.141030134890713,2.8744417311264794,0.34126240361552973,0.40316578527259983,0.25208108437585497
6.729666151,-1.051463139153551,-1.1207540769717228,2.8832465765567132,0.4131743722121657,0.4207056607773638,0.24626749188789196
6.769704685,-0.9131865399408433,-1.0396562307459059,2.924176953766624,0.49507853486897746,0.4056492427501166,0.23811031643080716
6.809626828,-0.8638307436253583,-1.0353777656971457,2.9275497099320695,0.6080065106611747,0.40393984869625893,0.23646213530628632
6.849684897,-0.7616413312650535,-0.9245029087990195,2.964878242773543,0.6919323562264962,0.4104050707478013,0.23548087150730843
6.8896095200000005,-0.6427831311127666,-0.8400835461452543,3.009660045984249,0.7922526053586204,0.4282960589909507,0.2351388102890886
6.929614067,-0.5984574350969212,-0.7571986629501454,2.9632582571345476,0.8641319847447441,0.41293983716868127,0.2189589302316319
6.969685376,-0.5023696728428582,-0.6638734159919157,3.0079572421176737,0.9821807704421942,0.41363648186328283,0.21073729449248055
7.009624732,-0.42679337771608616,-0.5400629233842374,2.989900094174308,1.0660740146086023,0.4152879729125358,0.20194707567707804
7.049605386,-0.3723826153611709,-0.4596369708217424,3.04110401915516,1.1437011369309895,0.41640686823922346,0.1670044189053908
7.089618113,-0.35650386194706285,-0.3662160359749265,3.0735982201997127,1.2182528266488897,0.421033962840664,0.10876357174297267
