time (sec),x position (m),y position (m),forward velocity (m/s),"heading angle (rad), from x-axis, positive is CCW",throttle (unitless; -1 to 1),steering angle (unitless; -1 to 1)
1.009688771,-0.14686117944826454,0.3698839994772088,3.4070067278179925,1.0303450647196306,0.6132061298770984,-0.1538804550545086
1.049704415,-0.12245759947015653,0.4958475277631153,3.4959677887416216,0.929342710048844,0.531164489826551,-0.1647616076100954
1.08969008,0.03158978299037319,0.6281985623935673,3.4886788143132295,0.9042529997907581,0.47999562811292606,-0.17692265959504616
1.12969955,0.08697146828625907,0.7027538813839289,3.5335348691015596,0.8593534840517018,0.4334747452117904,-0.18636818719364434
1.16970275,0.16686434785075224,0.8168707450216879,3.502070746922409,0.7578082463845613,0.41471285493984134,-0.1945176832178347
1.20969069,0.27501883284050854,0.9012943803677866,3.5532997488058085,0.6705815793280371,0.3679004453574307,-0.1983989426100339
1.24968541,0.4211676760848038,1.0006344752442178,3.5037895900308578,0.5674896522615177,0.3422009912806881,-0.20880529679552445
1.289687271,0.5299676280654091,1.0553190375208559,3.44979062418522,0.5186362260637435,0.3203672042110002,-0.20827058151850375
1.329689994,0.6207567806007022,1.1107294919266655,3.4828115710321095,0.42395010457222887,0.31494257809510295,-0.21522624955089362
1.369687278,0.76635876169007,1.1711918258652327,3.35566588469837,0.3009471312237938,0.3016001525032509,-0.2177764495103767
1.409689607,0.867670923652697,1.234809465109635,3.317035962108764,0.23630363628641696,0.2959583146221426,-0.22042603430953164
1.4496879470000001,1.0001711871758492,1.293106765009598,3.2897362662204985,0.1487149230798348,0.31073586307144047,-0.2235654978122327
1.48968539,1.1064822353213764,1.2605841127020103,3.270493848930093,0.0426125215880464,0.3324170290342682,-0.23102788984237596
1.5296900070000001,1.2594418801258738,1.2920499854599479,3.2432490876429854,0.0051189530264520305,0.34001133115659365,-0.2341086163221543
1.56968921,1.4116765588154045,1.322905386394053,3.1759301132449824,-0.1052916779781916,0.36719173389484844,-0.23897593960056296
1.609694055,1.5461986947628499,1.262948365936627,3.242913619627361,-0.21398310290700936,0.3981021883853986,-0.2444826696367871
1.649699991,1.6664827877715362,1.214326655645704,3.210765793011362,-0.30913923717749925,0.4167955880372426,-0.24653331673807882
1.689706146,1.7640337721860826,1.178642115289641,3.1731725121139682,-0.4085839572035727,0.4338406268386783,-0.25071801964814067
1.729694571,1.9123123091901688,1.1380564669145194,3.178579647133341,-0.47134349360121697,0.45740949982634643,-0.25412960154860054
1.769701068,1.976790090599205,1.0617215155184319,3.1625035213774306,-0.570220171054528,0.48439578700043506,-0.2598470684636928
1.809685945,2.080676341044516,0.9829055748075487,3.185122198607881,-0.6918634321230386,0.49487060880750317,-0.25662861431257017
1.849689815,2.1981871099002177,0.9287437631361147,3.181932769792098,-0.7784739268023378,0.497360482866825,-0.25450383940788135
1.889742993,2.3388115376308902,0.7803258057401238,3.1712858898948983,-0.9016163872022686,0.5249326349599338,-0.251099674884055
1.929693285,2.353830649883546,0.7100034176104545,3.192693194505005,-0.9603259438295838,0.518750961179734,-0.24690200431764175
1.969688716,2.4052621327968144,0.595291441439946,3.2197316830799103,-1.0563261906957784,0.5065826162017723,-0.24539218098541438
2.009687161,2.473868540941121,0.5209042383665894,3.267168630101829,-1.1624291774156943,0.5070160533506741,-0.2432016268921829
2.049693492,2.5756076561869383,0.39484133593976606,3.2204650755383515,-1.256385577368094,0.527168905914811,-0.24911551164980936
2.08968853,2.5793778895094532,0.26428460897512696,3.270730342763131,-1.353611263085302,0.4886262168106452,-0.23768548629497785
2.129685886,2.6255088844905035,0.08482817614938176,3.276381241871882,-1.4346161564339077,0.46794236889248664,-0.2352703871429807
2.169687061,2.620067974104439,0.01024793267632857,3.257634057337908,-1.5753680906770084,0.470072962163677,-0.23521940707022007
2.209691717,2.607971788218118,-0.11776243477188111,3.2681906997840926,-1.6117908656546154,0.465091786222784,-0.2334072605883355
2.249702453,2.601881707687773,-0.28644634171212596,3.2706432923709308,-1.6875704329237762,0.43056981034052955,-0.23348126767579527
2.289684067,2.5981924709471937,-0.36991387977951073,3.253768265864565,-1.7790071662356235,0.41681970026338133,-0.23292639771984724
2.329685951,2.5367784113444762,-0.4906760264301452,3.295310184760456,-1.8579805832175353,0.42203970139268976,-0.23515701756965432
2.369704597,2.503637671831777,-0.6279647402631339,3.2384145147922143,-1.9632560350840624,0.43062058537923426,-0.23839007819628175
2.409685186,2.4724594423267927,-0.7361793842856196,3.2143360281737405,-2.041006274559963,0.38160611903745145,-0.23140993809586183
2.449686584,2.3911857582734495,-0.8671308322612991,3.192010991947852,-2.152285549385397,0.3704394608093581,-0.23572001369148204
2.48978887,2.3354546562971703,-0.9751770559798474,3.2280542304129995,-2.216933756186864,0.3596404343712222,-0.23953789800324327
2.5297858939999998,2.254577071341586,-1.0672312963858346,3.217563199277079,-2.347520611539721,0.35701337818864054,-0.23799375109024704
2.569690256,2.135434354956365,-1.1853895660990998,3.184179603416317,-2.372877268506253,0.33240579434733747,-0.24207676975751893
2.60971136,2.10316307009155,-1.2377836300123912,3.1542386341940007,-2.5013059330416105,0.3288426727653835,-0.2461176426254563
2.649703374,1.9679836551948244,-1.3146562697719357,3.1231809657249627,-2.5662665470182806,0.33344063254846934,-0.24977193189857974
2.68973296,1.8274992235751466,-1.436725856175216,3.105598987085959,-2.702610129355089,0.31571389626803936,-0.25911362068526766
2.729689238,1.7085228688475742,-1.4571107072301042,3.069636354623405,-2.755215763274344,0.3153467616445909,-0.2631482681447477
2.769688479,1.6175527511828685,-1.4728510659963954,3.0216783805516987,-2.8507349725793345,0.32903144785670885,-0.26465787932014356
2.8097993260000003,1.4893073879963517,-1.5200658055896756,3.052658838617383,-2.990219254552345,0.34569140823405814,-0.2709591061823547
2.849688027,1.378708355910564,-1.5286203994249012,3.032731901581379,-3.0594676657432505,0.3553869847184216,-0.27383347523552193
2.889698513,1.236985426350423,-1.5109272181339346,2.9956439051496444,-3.1690589388758554,0.38582573066557097,-0.2757992890121233
2.929691418,1.1323989154509706,-1.5174351737270542,2.9627898401015402,-3.2875725024068316,0.4190401811892035,-0.27677642710343314
2.969687633,1.0396439050158792,-1.4854367358334561,3.006250544201119,-3.3382646771003937,0.43411929622336437,-0.27289882354056655
3.009687771,0.9152733611374287,-1.4762132751225334,2.9967649720106913,-3.4335804969119033,0.46685847023377924,-0.2733244847855933
3.049685361,0.8134226866813377,-1.4499096994958107,3.003623759068252,-3.53217710051249,0.49666774427509414,-0.27509278296414513
3.089742785,0.7159507630877875,-1.3905046661025522,3.0286037369295484,-3.6242334564414387,0.5411671678360641,-0.2746164928995244
3.129689194,0.5868353069615745,-1.3379716636909789,3.047612490986104,-3.769019809681764,0.5399931465137905,-0.26882359370031633
3.169689106,0.4945881312778248,-1.2584892848888214,3.101307001061834,-3.872125831047552,0.5513503302811679,-0.2652040590211523
3.209689509,0.3749487531093492,-1.1364291450887845,3.107808507047153,-4.02771614755231,0.5853123656912307,-0.2591145048885872
3.249697358,0.29664706984636663,-1.0902379138190017,3.129602874573515,-4.03846038262532,0.5965708674626526,-0.24076067466447573
3.289686342,0.23488831693510737,-0.9613178790249399,3.1542746701329545,-4.173690055348269,0.6171799600189567,-0.19618805271960332
3.329698708,0.1685031275324479,-0.8677982808993281,3.21852198759047,-4.262095986393738,0.6416474230595035,-0.1497738379034699
3.369688085,0.09341751972764588,-0.7718907643194028,3.307046718476528,-4.355547231156719,0.65,-0.10639281131472328
3.409691277,0.09052899403268169,-0.6431726130775532,3.375222009718567,-4.409332285730585,0.6381158024712567,-0.06751802318957303
3.449685523,-0.009101432302725202,-0.5183650161495845,3.453550945199431,-4.419246569388827,0.6125488192482729,-0.019121323520033567
3.489683374,-0.024129510506215302,-0.4016180303722965,3.5597343202266365,-4.322602890113854,0.5973066035925677,0.022038358041040238
3.529685932,-0.11920472945514574,-0.17247795523814619,3.6786793075891175,-4.346538925783821,0.5900637662184428,0.055240552414893625
3.569701941,-0.16337105072507804,-0.11516712065652719,3.702961402291987,-4.3068624398023525,0.5033129477823723,0.06808571011567327
3.609699185,-0.1991165384374927,0.03256203338772591,3.776488327971655,-4.262247388517781,0.4472072790257152,0.0803310010879384
3.649701673,-0.26434434264954215,0.2253246530047781,3.7974901410263824,-4.252981105576308,0.4135414420117956,0.09307368256277976
3.689688555,-0.33398736307280424,0.357241310329813,3.808293765957867,-4.218611314412712,0.37146236429072704,0.10406281619232471
3.7296837590000003,-0.4103295753659628,0.4532391464230378,3.7663335787232444,-4.1398598489350045,0.330999144511639,0.11876223800435654
3.769684528,-0.488026071445583,0.6186592726056672,3.795246720165327,-4.123984160796065,0.29913231198500645,0.13186149291344146
3.809684751,-0.5483788218218734,0.6868296433660803,3.78191597541236,-4.0376013000703095,0.28589485455908636,0.14468918128212202
3.849685493,-0.6813030800269425,0.7744625059747594,3.71430893922663,-3.976448442389433,0.24886924802028265,0.15727219447144578
3.889691778,-0.7596820078589566,0.9342990803679817,3.6606033073036985,-3.8710555212289313,0.22545179137255908,0.16535595370761585
3.929686175,-0.8620020877085014,0.9855354610630589,3.6077852817444733,-3.8055033561952847,0.21286410596175276,0.17212666532915896
3.9696884050000003,-1.0077462007737648,1.0971341042620173,3.5265139920035518,-3.6795274383861134,0.22086599397118223,0.17573197209189187
4.009686989,-1.1378020513302682,1.223273583873021,3.4738493682594953,-3.585753186251578,0.19901271582676197,0.17680053636576581
4.049689267,-1.2061805586617211,1.2507830395441746,3.4593248004578574,-3.4825707754678032,0.19648112299077847,0.18546305897051266
4.089689395,-1.361914209500732,1.3210528742955296,3.3385692800983966,-3.4051625845125635,0.20143092830726034,0.18181102920521375
4.129686627,-1.4635337891246114,1.3488818852575581,3.296770206620419,-3.3429899648928187,0.22792847644807473,0.18369158926595475
4.169695159,-1.6140538546221903,1.3928024704764645,3.2216343459114363,-3.193921583946448,0.22355921585835545,0.18836975866722033
4.209688016,-1.7127045410707384,1.424992539184475,3.1991295849025003,-3.1301371552891766,0.23298514466539763,0.19123231312422484
4.249685321,-1.853351249020334,1.3927704977721465,3.103441211368848,-3.0471223571306183,0.2566488368977559,0.19440599677987086
4.289686444,-1.9674640978979072,1.37526906345095,3.0625357515775966,-2.9640887179394593,0.28425408517998996,0.19964927898793827
4.329689246,-2.1134286683484493,1.3908742011297224,3.0372733078989937,-2.8966826423653687,0.29287770077877895,0.20359363980133421
4.369687614,-2.2409020625258353,1.356797167475418,2.984086009949651,-2.8054588956204456,0.31190470338894105,0.20933576961596018
4.409700243,-2.30690615706821,1.2908872741257107,3.0128004144928453,-2.7135642118000263,0.33959618069790637,0.2167069757967536
4.449697913,-2.4224458363361014,1.269228240059925,3.027796456442132,-2.6137796659613466,0.36330565762291167,0.22487680788071743
4.489685897,-2.5552254263642307,1.1843280136708263,3.0060255956136133,-2.5145291860223824,0.38172718707474423,0.2316083488175023
4.529739494,-2.641420408571679,1.158546708426718,3.039349760017447,-2.43496946586591,0.3871808347201929,0.2366310632422349
4.5697018830000005,-2.7364197064920988,1.0616858617627665,2.949991054486317,-2.34667889953226,0.4269931765519638,0.23918159037904535
4.6097049850000005,-2.8013192088749874,0.9586124363563828,3.029461465561492,-2.2493293475756526,0.4358256729089676,0.23457026450406798
4.649746247,-2.8515665572189977,0.8723994160076125,2.9934268001488733,-2.174958979465933,0.44879595362772307,0.23545509199656342
4.689684452,-2.948269716654331,0.7683144308027618,3.0686001034196204,-2.0579090120720953,0.48050156685467593,0.2451104452066765
4.7296978460000005,-2.985451442230364,0.6644141771356461,3.0614713561687337,-1.9561364270092323,0.5216843694976676,0.2434480062538301
4.769688192,-3.0501587076289547,0.5460103079029791,3.0772782038528996,-1.8468547647562445,0.5065583727808276,0.2248930761078014
4.809686845,-3.094509346253857,0.4145417202891498,3.1168276217328517,-1.7745993575859786,0.5101117049029955,0.22353068921031205
4.849688771,-3.1397470921371426,0.2918870794255153,3.1297127577270127,-1.6610286878293652,0.5275072313815515,0.22077995714051202
4.889684781,-3.131693893557176,0.17999313441974343,3.186421485520729,-1.5901581802892248,0.5597324517081912,0.21717465020632004
4.929784992,-3.1150867484904015,0.05985429127811163,3.1653598066946618,-1.4746499528109147,0.5375690831463529,0.21532564908627658
4.969697915,-3.1260175563803014,-0.08952455066001144,3.202028895589598,-1.4135482050670107,0.5345312060726664,0.2121333082365596
5.009719758,-3.1186979631707343,-0.15771026951294445,3.2148916386244317,-1.2898794610593058,0.5547523206570951,0.2097687873704798
5.049714739,-3.059994901317684,-0.3494933287548964,3.252506109879007,-1.2008918350638385,0.5455600272893696,0.2050589353260604
5.08968561,-3.054085909560079,-0.4472941161470774,3.268259987203425,-1.1332848861366565,0.5344109783894043,0.20055975735215462
5.129697111,-2.9898476339653204,-0.600727914076799,3.2497117741577117,-1.0303742559382207,0.546249075215997,0.2043504302144719
5.169696617,-2.928525770014601,-0.7178121257172833,3.2855665695845593,-0.9527846193470806,0.5443959742627242,0.19502544145338183
5.20968707,-2.821003133492327,-0.8041017228895181,3.314336944593734,-0.8660455215281074,0.5098026471568106,0.18840020091313875
5.249700576,-2.7990240852093695,-0.9141569951358203,3.326972211289821,-0.8240872316100349,0.5047085877186607,0.18901302600251071
5.289695199,-2.743656664505228,-0.9713887562552237,3.338197083808835,-0.7168377988221858,0.509562093456222,0.18845191452936116
5.329704794,-2.5786974003969645,-1.0897688671914871,3.3497828371039207,-0.5997886933019464,0.46661696235550415,0.18773910784125172
5.369687871,-2.448522765196744,-1.1861114682064517,3.3739935399058982,-0.5445109972971296,0.44778821056584867,0.18729329740199124
5.409686926,-2.3432037404316373,-1.2249766964088638,3.3510087036197125,-0.427459788942091,0.4445519448156977,0.19496391777115438
5.449686478,-2.23512538970807,-1.3144052058827895,3.3016679714752635,-0.34804422304559063,0.43640130086662304,0.1917911976551095
5.489682576,-2.118269662344143,-1.3615390457412673,3.3350618358239195,-0.30262565056665325,0.3925136992976761,0.19187275059527895
5.529686511,-2.0103355398571874,-1.3820920444162996,3.303117578863886,-0.18412682145543852,0.3817066869443332,0.19373230357568744
5.569686778,-1.8734918084011838,-1.429302093624086,3.2999872842424893,-0.12180149727565155,0.3803522271871945,0.1964787258852546
5.609686569,-1.7574367060108755,-1.4664612187686803,3.252929832601093,-0.034117747972731094,0.3575415351178029,0.19273504090009208
5.649686423,-1.6074362330862206,-1.4699700970210694,3.2694673185219605,0.033977749879776066,0.3454739753790057,0.19356420556642526
5.689685623,-1.4862116895629474,-1.468300764366452,3.1937886990475257,0.13987461522860686,0.3396942608740598,0.19598179912525374
5.729691526,-1.3791335783310983,-1.411044726147445,3.1968295588322917,0.23747898558576436,0.34405822546921894,0.19963026330558592
5.769698877,-1.2266122982589138,-1.391544676745024,3.1306387137376817,0.3860849056820328,0.34091664245766434,0.19980119952535452
5.809684252,-1.1108431818228226,-1.3528761036113461,3.104244093047058,0.42723730170343327,0.3406570974617199,0.20204019235968948
5.849695537,-0.9841974977256779,-1.3153276784093542,3.1019923841067816,0.5026404910529018,0.3520223954333375,0.20602950114083562
5.889685848,-0.8946623932349932,-1.2689014856605922,3.0854816460732564,0.6032951870854762,0.3809784959820353,0.20871712937794173
5.929688905,-0.7609280333036332,-1.1929679037882572,3.097004307306299,0.7088453405901428,0.3922817231460876,0.20350511404029806
5.969688169,-0.6591694452820639,-1.100715237843049,3.093515113869635,0.7840229142434145,0.41855496974633216,0.19831053240768806
6.009801697,-0.623470667369369,-1.0241247085331144,3.0859822446385716,0.8558409253404268,0.44565560366118195,0.19349075105708444
6.04981298,-0.5422827384974641,-0.9888797384804924,3.0850635330708944,0.9287905407569643,0.4862039595642767,0.19120884841733296
6.089685171,-0.43987107659107816,-0.8283516308870564,3.1857842743969114,1.0869969359621134,0.5372505681456057,0.14632095550099736
6.129685264,-0.41077110232558134,-0.692628092669657,3.215723304384325,1.0970599195567725,0.5814097969249092,0.10195790488459217
6.16968923,-0.3323615155117553,-0.5504201142530716,3.3334048573044055,1.1395176964202824,0.65,0.07153339300072291
6.209689131,-0.23710918644481618,-0.45145644197405277,3.392635718481004,1.1869004673213972,0.6011088511550121,0.03296086049785135
6.249688634,-0.18957868068082206,-0.31779305889470544,3.5089262985805485,1.1597939336879959,0.5911058115593995,-0.008129489717187936
6.289687913,-0.11575913461289741,-0.23705883388870838,3.6063623581459514,1.1750048451752355,0.5818171036922106,-0.04440892186453278
6.32969809,-0.06976869171638618,-0.08904121410676041,3.6689075681565098,1.1593122120046797,0.5405166520142688,-0.07615113630707526
6.369687076,0.016883595686237107,0.02947748221464899,3.6926727229652188,1.1267574232181938,0.4909421175600984,-0.09239761894917618
6.409687981,0.051441266974391296,0.17310166265688862,3.7172682447393557,1.0955079630535887,0.45127779696075976,-0.10652821342343878
6.449688498,0.09760334536688432,0.33670060640824395,3.7351280366656514,1.0678805561104978,0.4249166264288831,-0.12099365020217474
6.489688599,0.18614940780607206,0.4611179165667023,3.7360808822038996,1.0335614978769831,0.36356035044240137,-0.13521949743872588
6.529687341,0.2699027383130523,0.5721920694300378,3.7426312531677364,0.9809804327535093,0.328640427371375,-0.15042824252877668
6.569690336,0.3744922491516599,0.6859077986538299,3.7038676131455173,0.9191416613592888,0.3108708100160608,-0.1642089060425326
6.609687856,0.48952080635348766,0.8508260931146507,3.690361645631668,0.8412132371161904,0.2959812729960925,-0.17450870682763975
6.649687849,0.5330182251872864,0.925591197807546,3.665565532086982,0.7425488460538336,0.25133121023398036,-0.18382740313004542
6.689685747,0.6784980206364722,1.0133241754458977,3.572532388011285,0.6704371106583993,0.23773384023038321,-0.18779994664830896
6.729746337,0.7584509372217837,1.094725120632262,3.524167345487268,0.5809347153324829,0.23118754301065683,-0.19122588495980855
6.7696877650000005,0.897730231637818,1.160088337161204,3.430657496940626,0.49726913102699094,0.23259408989970165,-0.20218122567935415
6.80969236,1.0452429614745662,1.2355418614339715,3.4209301781435704,0.4405631614469846,0.22339775211948537,-0.20449956055128432
6.849701239,1.0524786944159428,1.2779962391938442,3.3374309342291943,0.3128837578557681,0.23054916718290636,-0.20713441830191312
6.889689888,1.260193018512939,1.3062008762098913,3.3006192168360817,0.24229883563885313,0.24927929587949502,-0.20901683229899978
6.929686018,1.3435007642633257,1.356072497584072,3.2739383352037073,0.1760751985758126,0.2746667814966854,-0.2180948808636164
6.969686474,1.4865088641148567,1.3726684817475174,3.238665220974935,0.05998405593020198,0.29070098036032094,-0.2255213453705177
7.009690975,1.6690821330058914,1.3711901136188178,3.2259160055075697,-0.03288263382034496,0.3215696709497203,-0.2343027730179854
7.049692546,1.7852152639016725,1.3865761355818693,3.1618581734564164,-0.14041486664862507,0.36335631417039294,-0.2451699363186031
7.089687646,1.9124178912060295,1.393764821298234,3.135531542443707,-0.24111411573486705,0.38045998824630406,-0.24818831233022215
