time (sec),x position (m),y position (m),forward velocity (m/s),"heading angle (rad), from x-axis, positive is CCW",throttle (unitless; -1 to 1),steering angle (unitless; -1 to 1)
1.006811958,-1.205600518847025,1.1717059025841468,3.082820203014588,3.040370709530006,0.4679890146845109,0.2334219376073189
1.046864161,-1.2823696479689914,1.1984559575441003,3.1110906957387265,3.1464003490104915,0.45465584049138436,0.23060309338036783
1.086813985,-1.4049806987747118,1.1883598511429547,3.137504144264533,3.1778671423429157,0.45219484262011556,0.22781763115373146
1.126808321,-1.5481605719763536,1.2048811270414215,3.1305567255021027,3.3272849322314406,0.4579179068336698,0.2249396822992751
1.166810875,-1.7147974497219736,1.1452569642053343,3.170513405687258,3.382379499779233,0.46277697760167713,0.22276987886048763
1.206810781,-1.8106223419138792,1.1094579648637484,3.1778413704108806,3.5457772158908827,0.448250461660466,0.21949080686236794
1.246863986,-1.920069685068493,1.0844997911986705,3.1882329165585266,3.6013690445859132,0.4506252653114798,0.2176017289358172
1.286822573,-1.9938211149446985,1.026930633328954,3.151206792497224,3.7220218369305433,0.4625129957655352,0.21794482527834932
1.32681107,-2.097115490520609,0.9673175540731271,3.1914750304785278,3.8183193432300344,0.4544952803570351,0.21449620537316155
1.3668705540000001,-2.1956255360371126,0.8727652824189729,3.178329211909091,3.9054718473219996,0.4476410032679816,0.212752808420649
1.406810414,-2.347323349938479,0.8247702935985992,3.1551468370747187,3.972878130256248,0.4611059065146305,0.21147131871882469
1.446823934,-2.4320118751413244,0.6573942325670082,3.221040580540188,4.0763397395980725,0.4527949909423779,0.21242064762751767
1.4868168480000001,-2.4706120145863486,0.5613858006461123,3.2212270593436383,4.147256232848011,0.43848717927607916,0.21244976400479776
1.52680838,-2.5258783274842993,0.46350535588510716,3.2396896240533684,4.277703594370521,0.4323812086340023,0.2113549751222427
1.5668223239999999,-2.5850757330369816,0.3238013815474624,3.2247949842003902,4.300639608426266,0.4366201150945122,0.21056028017373118
1.6068089859999999,-2.6610722986443154,0.1949733710986763,3.263507764890169,4.412344660529493,0.40692759073011064,0.20599783958903464
1.646893766,-2.690239524264913,0.11594955605652474,3.244182026126587,4.5197714986214566,0.37746937737210395,0.20548226405597136
1.6868244,-2.6886376779636287,-0.0009339760912635865,3.190200113554438,4.6075821649846755,0.37378606353599036,0.207951589501449
1.7268124720000002,-2.729234260128266,-0.17592366119883457,3.224367421833724,4.675502448793055,0.3622701085555111,0.20839006817575031
1.766811597,-2.747218077133593,-0.2566812337387765,3.1934686470208664,4.800140982550677,0.33604592246336673,0.20851987910164993
1.806848106,-2.7247773526617878,-0.36919417692968975,3.160147857132963,4.880596584602134,0.3248555166902295,0.2095949899422524
1.846858976,-2.65970280375173,-0.5268020314418916,3.168934205309173,5.013562998284995,0.31767113640919203,0.21171074244075497
1.886819363,-2.7074940061610406,-0.6497288104308601,3.0743393389853177,5.045561966889012,0.31592010548580396,0.21102839685649222
1.926808153,-2.6372305718858637,-0.7592050462709529,3.04218968203469,5.145919959550791,0.3042224709128338,0.21332363508073443
1.966816708,-2.547421945522358,-0.9071611123288592,3.055427101690679,5.236039582290814,0.28693751758022196,0.2170958235541997
2.006863419,-2.540040664256684,-0.9769054526632229,3.009575259945575,5.335249519376659,0.30963337650451855,0.21951429970749126
2.046810446,-2.4803839335901223,-1.0697281173188884,2.9402603864865973,5.416508419523974,0.31398378184498993,0.22420915672628414
2.086828229,-2.3777040529607634,-1.1697371905290614,2.963070649509878,5.480228932641211,0.3173017123851043,0.22698328309239402
2.126885292,-2.2687782481248786,-1.2737546868899603,2.9745091271300064,5.583004889475125,0.342189655905636,0.22974828431129501
2.166822644,-2.152952958423194,-1.3545403645640857,2.924354232845616,5.730865843319224,0.37298891662168937,0.2360208828042658
2.206813247,-2.0900605927543,-1.3647656818539684,2.9374086145902267,5.796006983449004,0.3827777774883543,0.24005441466818125
2.246852553,-1.963157253156622,-1.4519625425502671,2.98256629762447,5.891966700188065,0.40086156683149704,0.2438373162087375
2.286823887,-1.8452578308612948,-1.4576297228245798,2.954050396710585,5.991939367450826,0.43591792383181355,0.2461783505133017
2.326810658,-1.7393730217924,-1.5108285665015648,2.9657964980591114,6.095774052673925,0.4361524176532151,0.24646197995000946
2.366813026,-1.669592830912612,-1.5042711822085486,2.997805047829163,6.170427004456855,0.43663692102514173,0.24514511876382306
2.406807379,-1.522079464390511,-1.4735446921878204,2.9912188210421533,6.233208476490965,0.45878011232409643,0.24397507872447802
2.446888755,-1.3929573310975616,-1.4889509997740773,3.0828884331387028,6.3584353719918365,0.4808633678536859,0.24167001672486227
2.486849237,-1.2766202196215723,-1.5022976541698285,3.1187931160724323,6.454680908506839,0.46966269927229687,0.23833854462701098
2.526807615,-1.1672916430316493,-1.475963164331086,3.135257051543779,6.550881611842301,0.48014875527267664,0.23824088599220675
2.566814393,-1.0366443527676157,-1.4598005826192515,3.1139601007948476,6.659406539669168,0.4898609363170367,0.23856722070627123
2.606870545,-0.8983611607978587,-1.4429453300793291,3.139213679373209,6.760640872896272,0.49179363810372134,0.23260533112472337
2.64688539,-0.7973571057421465,-1.2839849246497665,3.159182458325967,6.838540925808292,0.48273873747564056,0.2303337328838822
2.686835911,-0.6985340105166907,-1.2543025461633257,3.203971455444194,6.918414250888102,0.4852362471521925,0.22780511968949493
2.726806663,-0.5982060819206052,-1.1591617921507733,3.2151351652773372,7.030877618091755,0.4988015282129656,0.22403475592191144
2.766815946,-0.4848592939257033,-1.1082544433781347,3.2324441613876056,7.16279163398834,0.5086044580535496,0.21012325333748483
2.806812181,-0.4054470923322313,-1.002184316632312,3.2966747446414306,7.212547803905632,0.5246745246291175,0.18541299667569294
2.846891813,-0.31434083628328774,-0.8920968608113679,3.3629969769849946,7.313200171744266,0.5378771306103753,0.16178671006963743
2.886820051,-0.2567229781062607,-0.7936837453705835,3.3716617655625694,7.363468390757562,0.554083288787171,0.13865620060360484
2.926812827,-0.18796480294798262,-0.6689831383716675,3.452727793405428,7.4027058828340015,0.5498085934124155,0.10106517911899356
2.966817877,-0.1158049702901113,-0.5285813102722017,3.5194196367039265,7.396750493263328,0.5603662494900844,0.05638223022257114
3.006810746,-0.06822726175410777,-0.4150069117931126,3.563829828423985,7.475359545174875,0.5734202617646119,0.015886148669014413
3.046872565,0.025691247601277216,-0.26927107323337834,3.664765741315257,7.4271612996208685,0.5500755536517722,-0.014425142117305032
3.086829668,0.04475567605218443,-0.1303275106975779,3.680238373893412,7.391621936665682,0.5178985913283222,-0.042631870363874426
3.126882368,0.12897278194469736,-0.015138695059682312,3.714991769591934,7.3615808584184395,0.49510015660264944,-0.0654920171090794
3.166818478,0.17452279385821923,0.10475514288195809,3.7503636002619998,7.3663250971833785,0.48043427237188263,-0.08512418146908335
3.20681361,0.24800711018431276,0.2640982654340579,3.816204240407665,7.320254420053579,0.4338427803310562,-0.096061990528866
3.246803268,0.3807748014152531,0.4107144858456635,3.7809865337438078,7.2329004047606915,0.410848933084849,-0.10907120332078747
3.286829398,0.41240654194859777,0.5241833975124979,3.784291610636666,7.209497699580959,0.38831426513437667,-0.11821783666158256
3.326878647,0.5379006918020625,0.5988717341882887,3.788593158324987,7.117612036458113,0.3782259195997746,-0.1272111023350349
3.366863685,0.5969852750961037,0.7272038467278314,3.759256044629397,7.02272876257616,0.3391100560768135,-0.1294241764160127
3.40684416,0.722403629408547,0.8461357417208857,3.703548592702379,7.01378845654098,0.3187708934358675,-0.13707336094667405
3.446882956,0.8773054213127409,0.8962940730156279,3.616617134973972,6.907021314127976,0.3269492368699488,-0.14232212535734243
3.486814368,1.0045517358750637,0.9936615098382392,3.6459744403993177,6.836636214461162,0.3060588601580176,-0.14610228431649785
3.526813387,1.0997325747966806,1.0722251524510802,3.5151505886648766,6.755178293688454,0.2869518167397356,-0.14832463458565584
3.56682004,1.2400355386121586,1.1787703562970915,3.5073315357092816,6.679104949178088,0.28533157536177495,-0.15025056798507544
3.606810164,1.3633034816767846,1.1700953142176238,3.4648892138410634,6.550844037206458,0.2896424249191067,-0.1515616407245525
3.646807718,1.4791709913110382,1.2507611504601224,3.373874147405957,6.473179332892411,0.26842907564524543,-0.15509419754162165
3.686832013,1.6215331196340297,1.2445060196887328,3.3249499757827183,6.41280251448752,0.2625154972662102,-0.15614276211913128
3.726810322,1.7166010075572844,1.2977083288851408,3.2800581976817,6.348019366433317,0.26677776131832687,-0.15893757455120877
3.7668137120000003,1.881293034719546,1.2813743885941593,3.2044841398486295,6.2694317208255255,0.28007126582934627,-0.1625457946329167
3.80681989,1.9855835820078303,1.2961561753619144,3.1516801462685637,6.199690015451646,0.2672627847665147,-0.16854011221382942
3.846883048,2.10485084810549,1.2640865246964437,3.074951573822632,6.09234028917927,0.26112647472107203,-0.17594060364519284
3.88686905,2.2275778117204554,1.2321658112092553,3.106664282180748,6.023600485187634,0.26910653179220534,-0.1839698708175689
3.926809773,2.3389603931766842,1.2284957774802427,3.0216599324430975,5.9142958013431794,0.2841419217622247,-0.19053871382291543
3.966811972,2.435804600460245,1.1645726864141077,2.9787037917163093,5.81961174156644,0.2814629789771943,-0.19819641946897779
4.006814064,2.5833315429540313,1.1030546814185929,2.959052447010919,5.7530316873369935,0.2902512245281038,-0.20638632065628826
4.046891728,2.686956099942085,1.049754651755378,2.9197958147325678,5.641809290776936,0.31907220521663576,-0.21329383992604126
4.08682104,2.772433864960809,0.9780813733259984,2.855263509855,5.5864938879743775,0.34558145765234966,-0.218073814221703
4.126809772,2.8189245809109744,0.902837661056351,2.88122122387796,5.431503944182563,0.3611770930901086,-0.22266371794475276
4.166810041,2.9230440743296224,0.8236432921591507,2.857667039275174,5.398845240160026,0.3864328404983724,-0.22800354452851393
4.206848046,2.983582744826518,0.7081165218770945,2.901334035722742,5.27907442872778,0.43363628041919317,-0.2323404725113976
4.246882024,3.043150692543082,0.5959074342351192,2.8931039832598135,5.20834948700852,0.44888172419280786,-0.23793710044302926
4.2868313780000005,3.1243278547430733,0.4962474841029953,2.8910633727038264,5.116458356626897,0.47142743064921916,-0.23869652831786226
4.326810831,3.1311475811438645,0.3889034704000055,2.9255651304025236,4.973795763041314,0.4901542533759648,-0.23864800232542205
4.366812077,3.1891170008113936,0.2664770068419678,2.9221293717582264,4.911316282207329,0.518775565208242,-0.23215815424968628
4.406812104,3.1742955773767827,0.19601303748517276,3.0148038579811645,4.790988402520097,0.5125766555616605,-0.23117175043494326
4.446835173,3.1538582359376695,0.05829362658939809,3.02847108210994,4.6739223997121435,0.5110383815170761,-0.23046431388990146
4.48681958,3.212923161747998,-0.08203734029387316,3.0448092611872095,4.637722916988551,0.5449548744723336,-0.2282748388973401
4.526815307,3.146697792019106,-0.21203909787170894,3.0929325236927707,4.524576970014173,0.5315269177997926,-0.22722526338298552
4.566813131,3.1397440320540873,-0.3008421802555371,3.0872756188621406,4.452335552959902,0.5251134457188829,-0.22586908900961356
4.606814898,3.1179697939756963,-0.43452799649955054,3.1415846851652867,4.331098940205076,0.5281521733024422,-0.22418749705432794
4.646830208,3.0564634111829716,-0.5513246963207573,3.187172169097914,4.257414432507891,0.5506393612083985,-0.22244583273646198
4.686814279,3.010832572220693,-0.6500168859978653,3.1885655895475544,4.1859580340716604,0.5339601537135217,-0.21810996650290465
4.726813637,2.8885569705633576,-0.7939951786874127,3.2089906261884313,4.068741176222954,0.5186583154096311,-0.21724727701083027
4.766839057,2.8712410737694682,-0.9002814961457218,3.2075804749810652,3.9545333649235825,0.5275455189057363,-0.21655708784058436
4.806813168,2.7633025484985048,-0.9488423849849013,3.24205453083848,3.8707241915148902,0.5267720010610165,-0.2162887314053973
4.846874551,2.660563388250602,-1.0263289658276382,3.240140507740167,3.8396465471660344,0.5105376497845808,-0.21209803428225785
4.886816264,2.5964175445732702,-1.1680869453630767,3.2426547764732088,3.6829568922418496,0.49946331569330243,-0.20797382295756267
4.926868502,2.4547812301623,-1.175695380002316,3.225378676497768,3.6311633018619425,0.5092141218035076,-0.20422688218655677
4.966862275,2.320487371959548,-1.2324562984256568,3.250851248290912,3.5581491737723248,0.4867108436781137,-0.1987331334904945
5.006813362,2.189516152474868,-1.3275429085241022,3.2844395048883213,3.463802708833791,0.4689329657394028,-0.1972523688721244
5.046822691,2.0483269445102827,-1.3264147455785735,3.256564526024375,3.3469012302219143,0.4683462581058293,-0.19772360196213878
5.086817412,1.9653434206758729,-1.362003957511861,3.2682470109298425,3.2802863973823806,0.47347989088662534,-0.19685632709407988
5.126807935,1.8329948633970519,-1.372997264280419,3.257074345953262,3.156060606973558,0.4284061499972583,-0.1891419011109298
5.166876148,1.7100261350664416,-1.3847599825096168,3.2045872972474734,3.104127786507332,0.4049185216193178,-0.19227123393827897
5.206812163,1.6014850899218793,-1.4012033233019965,3.20729016369201,3.0302452705816574,0.4023128246731717,-0.19343349727135287
5.246864615,1.4643606040567696,-1.4062031782605136,3.1787903461392806,2.925129358759777,0.4074982451639369,-0.19766815437859825
5.286833805,1.3385731142422002,-1.3533448879366998,3.194303281975257,2.838215907268459,0.3735459768884055,-0.19568083715273812
5.326814606,1.2144345010393809,-1.301790154802131,3.1499214151607067,2.750643024764862,0.3637610353249825,-0.19708429911997355
5.366861059,1.0777282077113515,-1.2573426259420015,3.0563536851430047,2.675400526038427,0.3661870704027936,-0.20008004226074036
5.406854336,1.0093170923817871,-1.211828764766927,3.049365810760046,2.575007969743521,0.3576115796962295,-0.2042419267305333
5.44679737,0.8777474048310402,-1.1401725279215082,3.038190295762041,2.485051319546767,0.3543853337077135,-0.2063756732396396
5.48681252,0.8101460492569774,-1.0553511759836074,2.983119220925199,2.3469269374279658,0.36525924824268596,-0.2085478777689419
5.5268478000000005,0.724579114911624,-0.9689635127825423,3.014471920433337,2.314849477301014,0.38201352723429527,-0.21079343495379171
5.566818835,0.6286134314858469,-0.8605442014394934,3.0363348793049005,2.1990480124647718,0.4380362193064493,-0.18795931371915703
5.606812454,0.5819708673780539,-0.7997161819286727,3.058086727938326,2.1679385874788397,0.4849522364205079,-0.15338446613716875
5.6468599919999996,0.4762907770639957,-0.6766372358173881,3.1233024904557363,2.062151008490959,0.5274679077423416,-0.1191945846506424
5.686813887,0.41436377261259694,-0.5705469701039242,3.201764709513298,2.027919091783872,0.5674491722138421,-0.08566394744207267
5.7268463910000005,0.3769546204121805,-0.4776255962982291,3.306075059555929,2.0071930884025284,0.5458648930254515,-0.054764429682319406
5.766818367,0.3372733183703465,-0.3314527910897725,3.3746171924550765,2.0287886627462663,0.5476555200350255,-0.015823603509727554
5.806809671,0.2683983864303322,-0.18232042321460037,3.4535810456338103,1.9972623467240163,0.5540364727159666,0.019253373589593007
5.84681347,0.16596003964557055,-0.09027451012444034,3.54268913872144,1.9883879688470714,0.5240030123884007,0.04627653438530533
5.886820063,0.12117912267315642,0.08063877403659378,3.519997811121744,2.017751761303032,0.48104053014823506,0.07082474206716537
5.926825967,0.07544465157812714,0.15637883851240636,3.603074103015583,2.0517376117889943,0.451627409963515,0.09113183649552638
5.966830642,-0.02560198437602268,0.2915466678570749,3.6361720865458214,2.081416207174313,0.43216374402850294,0.10987382532442615
6.006836074,-0.06679488193887509,0.4334682104734661,3.6286605123867512,2.109035790615802,0.386719314477261,0.12311302909203432
6.046836848,-0.13149043364750704,0.587510151887589,3.6167279977984963,2.145602388438668,0.350388065705444,0.13846746904842677
6.086814779,-0.21823175153996835,0.6693139460702822,3.62654144488364,2.2189977741446327,0.33101635518091277,0.15176430265875043
6.1268117029999996,-0.3460422796715152,0.7850581465650254,3.6091385648609635,2.27579988486642,0.3263235979066672,0.16216276924422107
6.166812287,-0.41051193123519064,0.8856967272633454,3.5902951309511137,2.4236340437773887,0.30693173398499246,0.16416175739228045
6.206814496,-0.5014745722475072,0.9604365986215515,3.5373555876071427,2.4443600283546822,0.28517231763231904,0.1733994023857663
6.246810997,-0.6457185086645086,1.0856643756170774,3.568972829212955,2.5532857079114164,0.28572139471515806,0.18143494363948454
6.286819172,-0.7340108832955042,1.1834289630206218,3.5091227063460364,2.642334456291443,0.3001599881543359,0.18881910048917397
6.3268147070000005,-0.8884326158175353,1.1858358458541958,3.4768454024024775,2.729016335140859,0.301839694915658,0.18996248560133647
6.366821124,-1.0052408650933156,1.2476083590932574,3.3798477092401895,2.802498595698867,0.2960769988036989,0.19201725063016534
6.406811343,-1.1393854240120813,1.3242361961376437,3.3631746103741564,2.8885853792716825,0.3184126390020412,0.19237554890044098
6.44682647,-1.2895310265673008,1.3813134305116683,3.3209054628554378,3.024864613501915,0.3407337863666605,0.1933595713948288
6.486808784,-1.385709200109048,1.4060728514107013,3.285293674565704,3.1092712377843013,0.35382973031925496,0.19290944073980656
6.526811446,-1.5179768397522355,1.4056839805103287,3.3153838754846854,3.1971594624064767,0.36803660447509456,0.1934524297423671
6.566809239,-1.6611783726114837,1.3530317533395058,3.2930301984094887,3.2688024807438043,0.39421335161357823,0.19472380064621275
6.606865599,-1.7605766700866794,1.3456280551380542,3.2783114099577344,3.3588464618409324,0.4033726216202911,0.19268053262185314
6.6468502570000005,-1.8850713354888924,1.3449884838537243,3.3020188492208904,3.4308792203246625,0.3981889798544437,0.1970253220052562
6.6868137480000005,-2.014898878503918,1.2437952183263545,3.261653499000915,3.531330752948221,0.41722378545982136,0.2028272939261827
6.726839154,-2.1601178611337692,1.2122484582067354,3.3083473189777557,3.5663612400756493,0.43416315038842124,0.20817017518470077
6.766813869,-2.2610263757220515,1.156463561831775,3.307312605921482,3.7122514833751024,0.41464251267194413,0.20465655350911513
6.806815823,-2.361125728620638,1.1045269287356192,3.297956038491211,3.7721221217683083,0.4119862274052409,0.20971573900908236
6.846821971,-2.5233221475824696,1.0181955654751293,3.289956186868692,3.9164778629658787,0.41400355696450253,0.21212627982858007
6.886812931,-2.5906775576028167,0.9242701497174629,3.2741387852574535,3.9573105341213837,0.4304372880521289,0.21300679281750745
6.926819832,-2.6704547751115677,0.8708620279110931,3.237537995554224,4.079842540964201,0.4121785749362216,0.20739966777240454
6.966819293,-2.78033117318442,0.7461073529222552,3.3095835539167076,4.171908312456654,0.41202270998226137,0.2062603640062571
7.00681609,-2.842645173443258,0.6086767636487554,3.2793711829513073,4.224462613273183,0.42175044118788885,0.20594267333492783
7.046821702,-2.8751372014158596,0.506445843709002,3.301054246875216,4.308851378810871,0.44059041686677086,0.20146519252605302
7.086814474,-2.9409968960887714,0.38138302459041173,3.262457172545562,4.4173058905122895,0.3997132475734157,0.19954095858263296
7.126822961,-2.9591183391497444,0.26556328200675433,3.201105045752525,4.524624908336231,0.3987004480931814,0.19868910201938064
7.166815088,-3.0040853642543333,0.15904378738984268,3.2544212630488563,4.615859197636966,0.3999334183087302,0.19945017291420472
