time (sec),x position (m),y position (m),forward velocity (m/s),"heading angle (rad), from x-axis, positive is CCW",throttle (unitless; -1 to 1),steering angle (unitless; -1 to 1)
1.001739862,-2.59482299959242,-0.08618020219348078,3.0537008543316313,-1.6106917565105345,0.33707616839520654,0.2264457562330124
1.04173075,-2.6266117616810174,-0.19642455817679877,3.024511436751077,-1.5567721298764439,0.32866802655646127,0.22627733922121646
1.081724256,-2.585464975431175,-0.32239787111431045,2.9770714158642106,-1.4232874552084094,0.33069902209179175,0.22586469122389943
1.121748413,-2.5700272657315706,-0.42238248602194156,2.990026481281306,-1.3185319794087322,0.35414014890701495,0.22281108925106394
1.1617378170000001,-2.53684289414645,-0.5218039112990437,2.967116702540885,-1.205223270351653,0.37982786081074876,0.22018727349548828
1.2017293549999999,-2.5328997276836573,-0.6399285601867987,3.0121678375820284,-1.1383305822129417,0.37428740490763573,0.208290145873846
1.241723476,-2.4929960900893566,-0.7638551993864554,2.986419144026732,-1.0430194507288428,0.36928933772557504,0.21079708526174587
1.281723837,-2.3747826710804194,-0.9034703215769646,2.9851862287986624,-0.9844496454997048,0.3860968747013797,0.21550674443153348
1.321748823,-2.32583924539443,-0.9681866106134039,2.983850033059853,-0.9608326750769635,0.38047839986608784,0.21963773819623197
1.36174517,-2.256379572907604,-1.0175894318880734,3.0081385976416706,-0.8155951231357812,0.38179516514299544,0.22180105838366815
1.401740028,-2.1754210903136535,-1.1288823539541843,2.9726963564757227,-0.7190807013311522,0.3749761811963369,0.21854850211257942
1.441751936,-2.0782722702256957,-1.1987937174530938,2.9529812509615803,-0.6552305655837575,0.3887307992914502,0.2271328536032154
1.4817294540000001,-1.9983513975265934,-1.2640699324210187,2.958850358531102,-0.5526566880436402,0.37419316821048937,0.2246964258847677
1.521725102,-1.8748076734315111,-1.348523126230805,3.0153407992722943,-0.5013581639401337,0.3650103822082872,0.22885697448701572
1.561734648,-1.7722856646430798,-1.4175786987741101,2.993150849290447,-0.39340723241790154,0.3725218527788321,0.23258502714521775
1.601755409,-1.6813175125362236,-1.435256326221376,2.9765476895714107,-0.2815289351086231,0.37111153849929657,0.2351152392239769
1.6417824680000002,-1.597606935104231,-1.4498505581754122,2.957879414450991,-0.1976955317949909,0.35115560991825395,0.23524835532038904
1.6817243940000002,-1.4438283400771852,-1.4785835886675003,2.952009999682688,-0.07717594270166739,0.3570085693757158,0.23439937325309868
1.721753402,-1.3517484922651124,-1.5262581703420353,2.942316564119591,-0.02826691912106709,0.3685189054299959,0.2350266961959084
1.7618042919999999,-1.2021483278596972,-1.5180638168563885,3.0032451747336193,0.07543630619062358,0.3739764893089443,0.22937138450138173
1.801821977,-1.0873315783491326,-1.5122438778244005,2.9177690134806653,0.18062303727103907,0.3674662404139181,0.23179981779297001
1.841743442,-0.9839801363247168,-1.4541065186742552,2.9435078986146603,0.28749589354985977,0.3743590550294386,0.23446726943884047
1.8817827020000002,-0.9043595439340754,-1.4239466231834887,2.895985643760896,0.394313284947421,0.38738910801827403,0.23696884516390218
1.921814257,-0.7917661746191924,-1.4168347808281943,2.8833609678289007,0.4588397369828959,0.3837199033901814,0.23363620225715429
1.961842472,-0.6520801234611964,-1.3304982468613085,2.8782980380418146,0.5786884908778487,0.38489340499879343,0.23235171735074983
2.001840203,-0.5386432268013674,-1.2824921984948878,2.905489359055454,0.683959879444316,0.4043736770883169,0.2305134854313475
2.04173838,-0.4756807681125767,-1.2452553010805674,2.8918709145763035,0.7474243866431366,0.427207934879518,0.22803469359502918
2.081728402,-0.42177857043551675,-1.1776071551115197,2.8915714296671156,0.8012750182006386,0.4293413107415585,0.2168506610064746
2.121741546,-0.309503384358624,-1.0147985660639531,2.9381604275997457,0.898960447549035,0.44348459470320695,0.21146659055069217
2.161750533,-0.22049121894063206,-0.9301888641672877,2.9833907651971425,1.006712108253419,0.4599554782706238,0.20573947099714013
2.201723654,-0.14741484698369567,-0.8409989573181341,2.967859714527953,1.1196987011169468,0.4876133991640898,0.19165776436079002
2.241721725,-0.10788029576412314,-0.7080742251564001,3.087534779069461,1.1748028826084589,0.49787642975984947,0.13241653246293175
2.28172686,-0.052035900942007426,-0.6307052783744144,3.120793373131701,1.2073194405143157,0.5126614704909512,0.08088350813955236
2.321747998,-0.01475232459386113,-0.47663919098631746,3.2437465175717133,1.2530473931782824,0.5310772995449161,0.024959123166957427
2.361727849,0.03948758668300265,-0.35503099444260217,3.3036812050488416,1.2595938220678995,0.5122200741299802,-0.003635098916235797
2.401740278,0.06340124404019783,-0.2349416084232869,3.3683315022264275,1.2207729732666432,0.4852660688133137,-0.039521375902732345
2.44173874,0.10648603893406035,-0.1371054223116355,3.4472748300514837,1.23602216859934,0.45504744656659885,-0.06911179359964213
2.481745965,0.1459576635882735,-0.028086825980248833,3.494863441771854,1.2110768600686084,0.45276354748015885,-0.09396639881701281
2.521748456,0.2323531439640082,0.1552041713758704,3.5526989209750846,1.1960167922478002,0.45150226135651855,-0.11761918516909622
2.561774093,0.31515548652464687,0.2960297887891133,3.510355626658505,1.1476783064019174,0.3628894556562265,-0.128195714432392
2.601732079,0.3580640137535362,0.37706699396126986,3.5628167379215436,1.079441764587998,0.3292984489690768,-0.15399853578543066
2.641820197,0.40875887697338525,0.4974138813619019,3.5168029851708544,1.0043574739040015,0.31314547718793023,-0.17749592994476399
2.681790994,0.4890253954175782,0.5949530886403033,3.4934336194039535,0.9329891732444606,0.27382266010225326,-0.19363118568761578
2.721747115,0.5726254691097412,0.7341785039967428,3.4164626487740035,0.8556785048620231,0.25257439984592434,-0.2023353360725021
2.761726279,0.6677998288419814,0.8223160431983514,3.3984021378285583,0.7906572326368084,0.2481884045489624,-0.20714000698200172
2.801844973,0.732315372627264,0.9364372173555695,3.3966985735001365,0.6687758210993345,0.24718492960513688,-0.21093805435117688
2.8417297440000002,0.8645889873829072,1.0461231783100469,3.289242000403008,0.6324627093462866,0.23504856641552835,-0.2136261461138101
2.881739388,0.9879207931679056,1.0872656090349972,3.2430868643443236,0.49630426458166055,0.2365594025771343,-0.2166682051803354
2.921728279,1.0696063166608876,1.1092683532468746,3.229089910059816,0.4073478488925388,0.2548374437896818,-0.2196935026681361
2.961727353,1.240503939230749,1.194143034567409,3.142332003211035,0.29460647459541156,0.26720605341764186,-0.21968217104333468
3.001814529,1.284687303270107,1.2447099811843938,3.1161736396330126,0.2612282515326182,0.27711690993538535,-0.2238076640538857
3.041749152,1.4376983445002167,1.2631804705172442,3.1221069322802855,0.18160388677751477,0.28981918089459896,-0.22836705472486532
3.081721576,1.587509541375909,1.2714882931148865,3.0750858003629467,0.08179585862441248,0.3191592486857836,-0.22770983414773846
3.121822633,1.6754129148822798,1.2983087617617346,3.040966359318803,-0.012200205961587475,0.3272845863957183,-0.240449000895236
3.161839107,1.799790675599362,1.313824951178872,3.011825660793642,-0.11625229460898452,0.33408480452014266,-0.24013012909482812
3.2017789580000002,1.9197542227511173,1.2486229809401113,3.0050440133764886,-0.1891289449695281,0.3549130735420819,-0.2464945227489923
3.241789007,2.045256262731583,1.272716745805703,3.0507413249102013,-0.275105768121002,0.39369941227774163,-0.2507293536720127
3.2818358659999998,2.1402053948626465,1.1989141484006367,3.0458988133324714,-0.3816657524128698,0.3757440223609891,-0.24769554006813654
3.321722066,2.2818483950975663,1.1311696655294177,3.0097511483498476,-0.48925457994954746,0.3823325306576315,-0.2515717546515928
3.36184626,2.3494883662909736,1.0985762108344665,3.0297818923186237,-0.5381478671301543,0.3950312410633699,-0.25451302431256645
3.401734673,2.458199725844076,1.008752839517125,3.083488554322279,-0.6129915161465664,0.3921512903946181,-0.2540484442686925
3.441827574,2.554707090340424,0.9663716199234932,3.0189676140186905,-0.746086325856863,0.3958019953997052,-0.2536710963831311
3.481738746,2.6536018056169115,0.8559575845415089,3.0505195829047578,-0.81150812560085,0.3971746573568333,-0.2510902283773967
3.521738858,2.7300987834472115,0.8131331737676704,3.009388166134732,-0.9484351306653503,0.4123432282206727,-0.2502263439606141
3.561722104,2.7786480347820803,0.69896239144955,3.0178918071424143,-1.0496524499021649,0.40888216473658096,-0.25106277732815346
3.601723787,2.811228054804747,0.5568633710113815,2.993295254509002,-1.075242626729391,0.4046540665292023,-0.2508605346830917
3.641807007,2.9141408189794373,0.4594751554308829,3.0519792109885193,-1.21187560815979,0.42079305923998794,-0.2506456976592514
3.681857063,2.9418621788808235,0.3569132745277999,3.0096566016285684,-1.3396779572573414,0.4239194819191688,-0.23650845023287298
3.72174423,2.9888797015759674,0.22652305732894226,3.0248786180234095,-1.3929171982635122,0.4150362898283504,-0.24344389769502967
3.761839053,2.9894497615602424,0.09717300818969046,2.998835249656668,-1.5094157109021746,0.41592519889145085,-0.24234773949282173
3.801818059,2.9732016798724468,-0.005501683537771541,2.983990655286724,-1.574597135985837,0.41771522335643985,-0.24276789025887222
3.841738529,3.025148342445493,-0.17075559682816227,3.016088753811557,-1.6761366969364255,0.41108949729607097,-0.24327433293584988
3.881725291,2.9413401706203794,-0.2683751983544255,3.0671864989571036,-1.7750889907983516,0.4028954980953765,-0.24338693855878832
3.921753659,2.9129274004919212,-0.3830829475379588,3.0274527781928073,-1.8445622709700618,0.4006434383978311,-0.24266679032551045
3.961731651,2.864958132119031,-0.5341196497865162,3.0187467175521583,-1.9886999566467882,0.412375244433397,-0.23616878607769207
4.001801527,2.8617675155489297,-0.5897219205740695,3.0238519909649613,-2.027412661896427,0.3862733964592405,-0.24417342266339193
4.041728144,2.7961891284617666,-0.7392884685156627,3.045094148012007,-2.135424117835241,0.38285848794749117,-0.24513316771849747
4.081858707,2.733148897364097,-0.8191261719331749,3.035656424710887,-2.2050715519455157,0.3818916752794871,-0.23743463568011408
4.121728829,2.638684711082717,-0.9462934802662225,2.9949027828547177,-2.317005398502694,0.37974629793684705,-0.2450636555814442
4.161728392,2.5672122511713362,-0.9574657358996974,2.993966943522744,-2.4048259611380995,0.3723304797026989,-0.24210335740181718
4.2017489,2.456143871070618,-1.0345119240388543,3.006519489638398,-2.511608657953153,0.3742855806393033,-0.24042245875246337
4.241727341,2.3968234129274375,-1.130219909735656,3.0164857025718,-2.625132056894264,0.39516309460000215,-0.23748637058360356
4.281725519,2.2437803702587624,-1.2217730309898656,2.965089715268948,-2.7231811465001616,0.38399811083339547,-0.2471991246817001
4.321725848,2.1535631654206986,-1.2061355782065752,2.992326499563193,-2.783293709387711,0.3768053615980015,-0.24217109565263006
4.361724406,2.019557366373482,-1.297176040258148,3.0057642224277856,-2.8672816983221012,0.3836054576959476,-0.24440410794726117
4.401730118,1.9138643478057094,-1.2920648178798255,2.991709160277107,-2.967022959399783,0.40063013946439413,-0.24230169310644195
4.441727716,1.8711960659335969,-1.2796346868319726,3.013467648830584,-3.048940705975373,0.3863089417381472,-0.2447997779585056
4.4817269490000005,1.7273713984571322,-1.3296907918491476,2.983045522545169,-3.126669045695417,0.3980057251914088,-0.24700584933062977
4.521731466,1.57495978912001,-1.3027340180484943,3.0218552933635423,-3.2729797103646705,0.42261613525246355,-0.2500042054351853
4.561807003,1.4539444630411806,-1.301677463460883,3.0142534069848836,-3.3364853787631943,0.41789280336198714,-0.25201278070797517
4.601730057,1.2965965372940769,-1.2072499877976313,2.9857789117418987,-3.438162040925147,0.42777428491224717,-0.25428709731480376
4.641872927,1.2372576299664746,-1.2476946074706525,3.04175003920185,-3.596025974391016,0.43212104135917223,-0.24773671347377538
4.681737168,1.0968760210908615,-1.1697710743640806,3.060277097762246,-3.6012902122371044,0.45859537564596026,-0.24830566570366522
4.721724912,0.999023203504513,-1.1403921637300964,3.0389097167487695,-3.7093489203014625,0.450237784392105,-0.24533080139133748
4.761725296,0.8329314649035164,-1.0322803068604003,3.0737632121269978,-3.8539851191400896,0.44867187402385744,-0.24395782492388454
4.80173171,0.7849848996503348,-0.9999473637448445,3.0722297737977953,-3.9101086615715173,0.46427696686285147,-0.2404714500690922
4.841743448,0.7410452747757045,-0.8741036397067866,3.0735118008718394,-3.9770462886282707,0.4773458453586365,-0.22660724158370427
4.881738299,0.6666356607643806,-0.7940624281320571,3.1095842375828147,-4.106211178303448,0.48355360236341915,-0.19508531500333762
4.921723753,0.5585366741331564,-0.6501662839562363,3.151777643485093,-4.146749867775724,0.5017347912766617,-0.17840487454915488
4.961725688,0.4887028356577455,-0.5759082551906237,3.164297867323273,-4.207205415792268,0.5155372974104989,-0.1563301326038383
5.001729556,0.4709795133296153,-0.5056458864977565,3.2704801780003585,-4.232591066889985,0.49875637565913816,-0.120157255699829
5.041727224,0.4024588898072757,-0.34353095807316714,3.3302987006066225,-4.282903029794404,0.4958257614394255,-0.07268426491469557
5.081723473,0.3226594853960101,-0.24179341060413748,3.450918937208543,-4.253644773336099,0.5041015094820719,-0.03510080223206722
5.121728741,0.2688971660387121,-0.06962702084712304,3.484891597835913,-4.266224705758201,0.501891359463843,0.0028850978983572086
5.161727728,0.19608389882707267,0.044905606677190096,3.5543486712702297,-4.257856398636285,0.5033558721460171,0.033945214266517656
5.201731776,0.15822704016606035,0.1426257947234213,3.58137706763239,-4.252818889456216,0.4071207459698568,0.047715163346805596
5.241725101,0.10659604194318331,0.3066174001669605,3.600507285869168,-4.249746715813924,0.38581179054990833,0.07294400229674278
5.2818534,0.0221661244650781,0.4425506971788296,3.647791728212326,-4.14080018749659,0.37467515929405226,0.09738022937038308
5.321723757,-0.09245518589911021,0.5516208364912568,3.6356243581867553,-4.144838272942961,0.3224811387890808,0.1170373031746637
5.3617466270000005,-0.15068830622458967,0.6691342444404643,3.6535015380823914,-4.057951788272178,0.3073517218184924,0.13206605667149446
5.401773486,-0.2114274980854877,0.7896741645988669,3.625677677343315,-4.0025475686500425,0.30198541799579504,0.14323513790273312
5.441745417,-0.33115655299865937,0.918397418417613,3.5880705170915888,-3.8815360316614984,0.2768188520569082,0.153599742389628
5.481722818,-0.4484400516553545,0.9945288414286175,3.5654933746384216,-3.8485727450505176,0.25678927768224197,0.16254760268685406
5.521750518,-0.5429942681196489,1.0735632866010487,3.533407692318842,-3.7544925506804128,0.2546033689510472,0.17026030521167543
5.561747982,-0.6764957536689216,1.1614038733980199,3.507013467518582,-3.6612125226902767,0.2650164530897988,0.17588855631826977
5.601722684,-0.7946632788964194,1.233893861069371,3.459281367558145,-3.596362723181795,0.24189107401112928,0.17617196229447793
5.641844282,-0.9308205211982117,1.2946287561098355,3.353663724464435,-3.475398369023811,0.24259648042399942,0.1797742254356255
5.6818291,-1.0304869510683754,1.3854503291816953,3.3129166181776397,-3.424792227370184,0.2577493352256741,0.18121466350907214
5.721722828,-1.112025433411932,1.354427412753113,3.290811491919712,-3.325123416465332,0.26425174320171185,0.18492496207738504
5.761753314,-1.2560422483286484,1.4410409467567435,3.256398535907294,-3.261465796910323,0.27012968768270945,0.18576682327045962
5.80172328,-1.3928917922345887,1.4685402186581509,3.2281522698940672,-3.2299240690120623,0.285293679437791,0.18794566279740407
5.841732997,-1.5866657576493244,1.4435217577588764,3.1712856525283106,-3.0605153352491827,0.3096908648042364,0.1911551984074663
5.881738214,-1.673838098473549,1.423225186728959,3.1595531161564723,-2.990484963855344,0.3003693577105284,0.19684620007217826
5.921729129,-1.7389702133645413,1.4370304728242596,3.1235415007344587,-2.923030289191441,0.2971874208702076,0.20152864503884144
5.961722899,-1.8805617141681972,1.4462484607599946,3.145064030611779,-2.844245936254497,0.30906486683954587,0.19975281714483933
6.001725354,-2.0439665422108737,1.393151376442188,3.077170611965828,-2.724532985765937,0.32290739013040737,0.21049230477371159
6.041724861,-2.1364624278388376,1.2879082391730183,3.041797872507695,-2.643133054239232,0.32358589696695567,0.20997058953104913
6.081831783,-2.1889196156816455,1.2378052837905005,3.0381139860386477,-2.544872032844588,0.325297934275773,0.21035829821708973
6.121724657,-2.3312824900054254,1.1903319008204485,3.0238712292372174,-2.4904206647793394,0.35305044342616165,0.20646493565475854
6.161724612,-2.421836042702646,1.0826116610852947,2.9963118739967953,-2.3519229123789307,0.35918926600210604,0.21196375739130463
6.20172446,-2.5212530960508346,0.9955806811946848,2.9924732551873903,-2.2960640417912233,0.36287618651954334,0.21575159853905795
6.241724392,-2.598148543501707,0.9097101323346946,3.0292626795574544,-2.179289366879825,0.37420176006610034,0.21884489735182494
6.281827497,-2.642938306151765,0.8364077336400744,2.9956077651447313,-2.113102223387342,0.38464115187033104,0.21520496497664054
6.321727446,-2.71193186805212,0.7316242660610333,2.9677473063360473,-1.978620865843724,0.3816516761854245,0.22243484334830585
6.361739455,-2.803479077755702,0.5805561118222805,3.0050853214048994,-1.912417942952194,0.38932535959037495,0.22311828697106148
6.401742344,-2.7618956456572215,0.4881901757591697,2.9976279043712606,-1.7667619239015908,0.40266193364690156,0.22252934664554097
6.441819242,-2.8100587574719835,0.40679017275122853,2.9755906336301328,-1.7303200888830141,0.4227912302341759,0.21995649425167701
6.481745082,-2.8534627737801044,0.2159746472719805,2.9861558107991346,-1.6453887283476243,0.4102525440811656,0.21885468115528406
6.521732599,-2.8888399176193222,0.14390871411327663,3.0009484671687208,-1.522148914983317,0.4148602111514343,0.2114707092148125
6.561804758,-2.8462462902642045,-0.024807472570263125,2.9670390803465128,-1.4599981599669063,0.43613009504241457,0.21834598252272513
6.601734415,-2.850029624816754,-0.10008420693431075,3.0182941447157594,-1.3739283928406314,0.4261646924779575,0.21213744717937183
6.641744344,-2.831242409553541,-0.20909019178697943,3.0340655736955777,-1.2616626306401744,0.4273943800837067,0.21331228098747584
6.68172615,-2.818769519376877,-0.295558557951347,3.0158143682640146,-1.1829618500228174,0.43488933218738207,0.20772503629150182
6.721725472,-2.7760036645194166,-0.44377690856329294,3.013806663419086,-1.1234130298019973,0.44023512652499747,0.21464471871892993
6.761722147,-2.6765984428888467,-0.538675658463828,3.0361985824298374,-1.025211513528576,0.4235675316346558,0.20823399779228585
6.80173248,-2.625574497820285,-0.6116457934810958,3.0643184670982255,-0.9205171637054794,0.4165879576612302,0.20933846308307683
6.841736398,-2.5491073716678723,-0.7188606312527839,3.033061692881436,-0.8068952260387098,0.42374984578005365,0.21134304505395285
6.881824912,-2.4555991568154822,-0.7777605348243114,3.1124995364443833,-0.7599934981048603,0.4123337496923461,0.20448113245211777
6.9217292310000005,-2.369833525965899,-0.9393907843854242,3.0522319705813987,-0.6830763286894775,0.39764921373800105,0.20989558345008738
6.961818911,-2.273502520231542,-0.9508774485860891,3.023278721532026,-0.555624477620296,0.3983929184240272,0.21014523841199764
7.001792942,-2.194065292658183,-1.0513411054785549,3.0362432202421936,-0.489960406716152,0.4021271257995111,0.21677102310115404
7.041833456,-2.0608769983018846,-1.132372150492485,3.027194766769421,-0.3816338446406986,0.39821249505732,0.20046592522553439
7.081722238,-2.004676997850901,-1.130049988308931,3.0381691994408655,-0.30471445894378746,0.3787285892174001,0.20518764991333516
