time (sec),x position (m),y position (m),forward velocity (m/s),"heading angle (rad), from x-axis, positive is CCW",throttle (unitless; -1 to 1),steering angle (unitless; -1 to 1)
1.038331719,-0.8337101083986626,1.1752713811243538,3.357351298167912,2.7203713394511713,0.33140318309033545,0.2004947773467382
1.138380093,-1.199490608766433,1.2931693546318186,3.3410027199737033,2.9211397575287763,0.29170129316321214,0.21574442661057797
1.238336381,-1.551579197370373,1.4781174116159324,3.190507567646913,3.116531453028761,0.2829461521506748,0.21121113223175259
1.3383085160000001,-1.8733652593635974,1.2851846937195839,3.090418776007111,3.387088012398765,0.313167155025856,0.2068783635104837
1.438336607,-2.1631889149733152,1.3217984961721365,3.0622610302924227,3.519282127282394,0.3306462616017404,0.2208563912010639
1.538326507,-2.406153972605996,1.1489856739105073,3.065690410818781,3.7343893428255797,0.3367178840935759,0.23263869830285466
1.6383810890000001,-2.679985557201399,0.9593269185749398,3.0149816406067287,3.955905564197315,0.37608140051153005,0.235999423212582
1.738309643,-2.7639644404524586,0.8104857709522996,2.953426982062196,4.274561164541164,0.40906582074815684,0.24007998315201043
1.838405957,-2.8736599526233406,0.4248705332401063,2.9235194134036226,4.476084673830824,0.44418101907520396,0.23665527438484424
1.938307473,-2.969156603380343,0.07663809537644402,3.038582935488914,4.734449254563255,0.47301721318367956,0.2275206879259704
2.038399965,-2.9086643076715055,-0.16694738135599735,3.081646238110876,4.957772716273938,0.48642665519122263,0.22766846984333408
2.138310911,-2.8449474624655786,-0.41835787662807733,3.1241646512060566,5.141537634575002,0.4685779251776634,0.2281469457909637
2.238310857,-2.7013648457342523,-0.7676989318869566,3.2054442760931003,5.421537539056479,0.4652059117679976,0.2119095089954543
2.338404491,-2.4876510851624616,-1.010635607283064,3.13875916194218,5.657831421388356,0.46025937275310896,0.21762271727758178
2.438370928,-2.169357592374839,-1.1896667693488596,3.209966746933215,5.828207889675463,0.4116847408845725,0.2087056822582375
2.538371499,-1.863740059988259,-1.2938940879992107,3.161771344298174,6.014314982197271,0.38654838445475265,0.21028922923750565
2.63831685,-1.6060854293015112,-1.3385836330449752,3.0898939272821933,6.3298917109850406,0.37598117277001863,0.21765649634335268
2.7382996410000002,-1.3575919976749964,-1.279356913814225,3.03864556353981,6.536303487645744,0.3520272280846334,0.21809709364631447
2.838311058,-1.1059710379796392,-1.3036706497037889,3.0049729516578845,6.73953649239786,0.3494065624927167,0.219967218826809
2.938310078,-0.7687232776192124,-1.1324303351214018,2.9821208085382183,6.991428710086694,0.38498054192419523,0.22045836991037893
3.038314475,-0.5744051530331595,-0.7796972914779925,2.9910731725566535,7.194908144227768,0.4468450722323876,0.1930253303383565
3.138395182,-0.3206133773864131,-0.6291600866075927,3.1233167545761185,7.46422018628418,0.5145142009190087,0.12458891773594453
3.238312057,-0.15833880996300376,-0.3512041187714916,3.393880005034952,7.447018986870907,0.5943135239299147,0.01023422553798847
3.338416229,-0.04150443668113285,-0.05440506349608876,3.4881081077491034,7.417684461991658,0.5188389999178225,-0.05689001519392434
3.438305602,0.10281628620731686,0.28443883059697467,3.6713682665611587,7.460589218970826,0.4178534579829087,-0.10556211427860071
3.538308229,0.22777604663665854,0.654633950864929,3.6153764096479546,7.349846172570832,0.36098193878896007,-0.1565624597743709
3.638311227,0.45613440038560116,0.977606835594843,3.593845326491997,7.071073014357066,0.27864104709060156,-0.19151289563393034
3.738365771,0.7694149939507184,1.1733973055252431,3.4496171647082523,6.811792853105981,0.23234871257961257,-0.20430828125964606
3.83837858,1.0926581262025599,1.2643739299249412,3.4034445590185967,6.631165858764783,0.24681659632910707,-0.21635446133700334
3.938319281,1.3659074926936716,1.4001098944811088,3.1959542849809255,6.39183854252244,0.28556277789863077,-0.2252292409946025
4.038317586,1.7280456324281996,1.5164066180838474,3.1844177116702195,6.149249733058076,0.33566829311561497,-0.23398871910913202
4.13830973,1.9802125965732904,1.3197251121991913,3.0975116178816866,5.9744166858208265,0.3961424008025535,-0.24077835316949708
4.238314224,2.250919113039076,1.288002461048847,3.06147101358077,5.827418911853709,0.4374055036192484,-0.24736571976616217
4.338308267,2.5102443930398612,1.1357751076291212,3.161510585860437,5.547175189332214,0.4436193907685947,-0.24901576491172292
4.438314106,2.757433429118573,0.8536171762970867,3.195201439425186,5.298635157978806,0.4675784055741387,-0.2428429181496232
4.538320294,2.97303799800419,0.537389782448597,3.1935215966267143,5.002402952751366,0.46797506733433464,-0.2457061747238617
4.638309839,2.9818730270215337,0.19334931394476645,3.228754873187873,4.799833099974595,0.4357512535671583,-0.23551461744796984
4.738308227,2.999542415232773,-0.11610809782918524,3.1995489478093275,4.574533665529485,0.448209647151901,-0.2375361999566509
4.838308978,2.913111033726227,-0.3571096412386407,3.257250920464564,4.462702661505409,0.41434957026782593,-0.22960231072134238
4.938330671,2.7518002937448975,-0.6575057641627134,3.1600477889181873,4.14001427746716,0.382365213028018,-0.239763422272928
5.038308976,2.656281212237322,-0.9191547269651896,3.1408406820191113,3.962707664792084,0.3885792921306345,-0.2323108775973428
5.138309427,2.348982663769495,-1.1740897178906324,3.1424965483434737,3.6697769440559362,0.3813900847657488,-0.23182065800945043
5.2383218750000005,2.1425067637131243,-1.3144344357860664,3.0831379462572905,3.4077711814957317,0.3703608148763717,-0.22890493432411113
5.338310848,1.7090700542493167,-1.35358674808149,3.1145049513908,3.2465101261597664,0.3970945988190317,-0.23993724017107393
5.438308495,1.4399109024711283,-1.2927442899366803,3.06973187224868,3.003825625411488,0.41935368759409103,-0.2533181934522362
5.538308402,1.1622273677956414,-1.2362505199409757,3.147202209466539,2.7537973789479153,0.4389888116528909,-0.25700657020665857
5.638320372,0.9104119660837755,-1.1432932064426475,3.0397114099377784,2.4855979915030764,0.48398228461433057,-0.25919543067678347
5.738313069,0.6155792575622471,-0.9141288429521481,3.1264779538252756,2.2054552009991935,0.5111584518981844,-0.23751088807769055
5.838307007,0.4866299278663905,-0.5942543692743653,3.160752974383016,2.0005671444113173,0.5642197118474759,-0.14634377792173212
5.938327125,0.34008098464351133,-0.4038009744404889,3.3739223939127876,1.9363045763184696,0.575779017809839,-0.03870504223696286
6.038333415,0.2234958093219114,-0.013385149917820603,3.614873319569762,1.930840693157864,0.5575769621193287,0.05387471754978787
6.138308385,0.19055665924395063,0.28137973973920544,3.7896561497698404,2.0603110152924526,0.4135934587473389,0.09087364394975622
6.238306153,-0.09264974335927666,0.5502332470725405,3.684918094826461,2.15105599797086,0.3356250362484163,0.12489646614541497
6.338310589,-0.3530990297534471,0.8911771320177494,3.747600543656861,2.3251725851205656,0.3129021759994229,0.15885868837484327
6.43833671,-0.6658162650386245,1.1784568154139827,3.57888298726944,2.593312895549221,0.2566417418058884,0.173734867116719
6.538308709,-0.9277491391414066,1.3502724633046252,3.4461262595930235,2.7846027817619063,0.24618659313339156,0.179433777062206
6.638327083,-1.2297948728822006,1.5055017469019656,3.28669354314498,2.9547367427594646,0.2808129899363412,0.17701910930228157
6.738355674,-1.5571654918493223,1.532782047304968,3.18191021055713,3.195173967725198,0.3030639524279368,0.18013870079580077
6.838307573,-1.9104597693908274,1.4709277200983104,3.1362476165323976,3.365705526708309,0.3258379301931768,0.18970507402167194
6.938310401,-2.071849712610664,1.3598613314854604,3.062115525183759,3.6724489598720673,0.3668424195327672,0.2033696633206926
7.038437062,-2.4239516855122636,1.290729188642833,3.033472336968856,3.8163775931204342,0.36488786023847797,0.21971591287391826
7.138326743,-2.643664606447196,1.0276989183066623,3.044404361574604,4.086695979539039,0.3812307498847728,0.22814463777521699
7.238311029,-2.856296052417512,0.7139952431334609,2.991648559114947,4.27061783354011,0.42118513158715437,0.2266983290648588
7.338311834,-2.8059486102524898,0.4240502342886896,3.0756647555013887,4.515188802909556,0.44341496708994577,0.22665576298417664
7.438396837,-2.9287614746302104,0.15164485653590262,3.1363981840806985,4.713691454100401,0.45339825647699256,0.2211912614275782
7.538321606,-2.9984580408749832,-0.17102117976076575,3.114317876815168,4.99257678344199,0.47189614385106693,0.21975409331591508
7.638310644,-2.82554457277857,-0.4332767374446766,3.1482074076280706,5.222564752137189,0.47699429101333424,0.2214159398336812
7.73832726,-2.6058945287551505,-0.7116076033058341,3.1990586696850993,5.423829132788864,0.44435897733412266,0.20314870862433881
7.838309226,-2.4076121573537153,-0.9542190564802647,3.230942314963971,5.669923306774601,0.43054744637645326,0.2065701730700667
7.938308976,-2.191850530730466,-1.1388333322733746,3.14802206364845,5.847067818321739,0.41162036864490126,0.20858046542792172
8.038311502,-1.850822032281388,-1.2150677452321723,3.1686378248311793,6.073020442098248,0.36675830751723415,0.2093551339231934
8.138311647,-1.5322550193818918,-1.3512199867374421,3.0865162534792816,6.27490824339157,0.35467618451975086,0.2134199057435697
8.238412901,-1.2315170868385983,-1.273703788785742,3.070881029704625,6.495114154726121,0.3501579833290528,0.21924433221032505
8.338312309,-1.0272469750735733,-1.2264928579358993,3.033153180850087,6.756212663647866,0.34493799771877537,0.21933987864271426
8.438324369,-0.6622842411237063,-1.0247167394792318,3.0277529809603405,6.996893970566153,0.37786230416471794,0.21996143232285484
8.538312126,-0.46488980579649447,-0.930143754962339,2.9758742001106677,7.235930444577397,0.4204062487117033,0.22730943480678073
8.638307428000001,-0.33229631637451806,-0.5329684464820428,3.0951993779660594,7.374112236407307,0.5226098317011685,0.12173307672880314
8.738317146,-0.20656331012282522,-0.2840075923834244,3.2290269461481107,7.427529263082416,0.5634086285231216,0.01275342428153815
8.838308549,-0.07161159070381715,-0.03810383528001444,3.4653950970234133,7.428641350611093,0.5487143747893002,-0.06951758350161767
8.938306077,0.08987543650586727,0.3607398324069579,3.6027553605932012,7.385046786627594,0.42548845887909886,-0.11671382793505444
9.038308267,0.2881230767461701,0.6680207000994373,3.6388555235477433,7.235675848051115,0.3415556807000665,-0.16472026593887334
9.138308539,0.4473311675553401,0.9332556874910537,3.5540672541064295,7.125319267224284,0.28841557380837024,-0.1969746072821273
9.238324332,0.7215455009368361,1.131155586390583,3.494158492354322,6.864152220711611,0.24370648512216364,-0.2060014404329118
9.338307964,1.052718172584764,1.2985499825521236,3.3546743319666494,6.670415953834845,0.25861003011775574,-0.2175562011041999
9.438310257,1.3561926453160564,1.482409114452362,3.2004161193288208,6.452181528323799,0.30656259540759556,-0.2226197128586871
9.538309347,1.6550139744122374,1.4347397936242168,3.1817768660441934,6.256356505888543,0.3475291665457433,-0.2348565362500236
9.638306066,2.04347912107269,1.4267919318417932,3.089473687127534,5.939580340791509,0.39822865732923324,-0.24632259671995088
9.738331545,2.2603590128035185,1.2567193123486107,3.1317299954234303,5.7209750423802195,0.46502581367073353,-0.2552021845965501
9.838307806,2.5027428947299164,1.1176945260293718,3.050034811104735,5.497306915487942,0.44757080731409554,-0.24442632150079704
9.938307634000001,2.7029478273812186,0.851710393021453,3.2727363707567436,5.309019533529117,0.463997459505522,-0.24631387230938243
10.038386123,2.8721028265516417,0.5876249691259348,3.2236819833931616,5.0738137712062885,0.4608993583930846,-0.2471914241645566
10.138423866,2.950607609269002,0.26937972419195955,3.1858340945032984,4.905174699278929,0.44248647299159427,-0.2426056103968035
10.238321483,3.0537054897095883,-0.00912351078911354,3.2487047240119478,4.562927454498704,0.4329408397437943,-0.23036031030649148
10.338309721,2.910987340408517,-0.3864259051693109,3.3219811935870456,4.375573050262431,0.4329945481836121,-0.23695011957673995
10.438316281,2.8100281740930106,-0.6156453894715028,3.1831990212056693,4.207448156425079,0.37825097118998274,-0.24097482765000855
10.538309146,2.5958103216350437,-0.9127302997464365,3.1634923827642716,3.9399029210380463,0.3612694338858324,-0.24727591510596467
10.638318547,2.3958745760073263,-1.116709421513732,3.1311870102392403,3.721774069913712,0.38079321535358174,-0.24143605351063027
10.738416191,2.0991966347780613,-1.3360427198890605,3.1043829934863503,3.3946751873057166,0.35727930640697214,-0.24129113576047315
10.83839981,1.7345398577808115,-1.3509641848344285,3.111474885168721,3.300649266241468,0.37122364308080663,-0.24585279481484623
10.938314229,1.4563556079166584,-1.3266296772678494,3.0345145635438846,3.0308287604441535,0.4313106353951474,-0.25585635900275205
11.038310688,1.14006656351981,-1.251367629366284,3.1269380124954576,2.7484949637892835,0.4573374790083805,-0.2647758123485006
11.138309097,0.9137552385344604,-1.0954026946977635,3.12012395457364,2.5523755247314215,0.47653533592627445,-0.25063388598026504
11.238312186,0.6635520969218344,-0.927479327546696,3.0898665211678336,2.2323903938092258,0.5218804986130314,-0.22306447405185084
11.33831631,0.44371037804230046,-0.6999120582094419,3.2166522715870474,2.0714041504657663,0.578612270699438,-0.15244224859590877
11.438308612,0.2904254062143602,-0.3942942005888389,3.450615450481721,1.949501949122306,0.5637303611376997,-0.047006673886230574
11.538310789,0.20911981826932804,-0.07889026566876017,3.6335688659591043,1.967730060307755,0.5037584570336624,0.046081449479946926
11.638343386,0.04239956357690401,0.3120962764675842,3.744821187934495,2.052123660219331,0.41513675527988114,0.08901416956616327
11.738311325,-0.10570659366132694,0.6356225864033028,3.6757216397465937,2.1802988681390563,0.32928181041656784,0.12099700753200862
11.838307554,-0.35263396147596576,0.8387083637740478,3.6781980502386014,2.3360931167823447,0.27839276473585645,0.15313245478612592
11.938316753,-0.5934691962572837,1.1675429877663004,3.626802759080759,2.5633747940341784,0.26894155005923065,0.1680863294146031
12.038308154,-0.890479500301187,1.3388968417478027,3.412244469923072,2.7627187163788767,0.2430883193952266,0.17156289066395494
12.138309336,-1.2921532908177367,1.4276376103163133,3.2906439304374135,2.9858332347325196,0.26769064008246085,0.1752832575719296
12.238311228,-1.6412188919940933,1.4454922614894838,3.2464790199828943,3.1408981251969,0.30073560149019396,0.18052431078069073
12.338371412,-1.8486846170816273,1.4626641510613279,3.090927307483288,3.409421397088981,0.31072979771749554,0.1990182339571849
12.438326612000001,-2.1378035762263274,1.349586811135844,3.0819133875161264,3.618099635862058,0.32508710436104377,0.22175545997158788
12.538316751,-2.4441792083079013,1.2494778177208137,3.026304357846303,3.8117098396847933,0.3586823235777221,0.2191803077361956
12.638320028,-2.7545358130936743,0.9151785844687194,3.0124868971291887,4.055962718229797,0.386291923588534,0.2248595736020186
12.738309717,-2.8080874181321938,0.674988648579355,3.0858499721861525,4.2743398227085,0.4105820261231916,0.22877502505858832
12.838309987,-2.9041671400517703,0.4663928019820695,3.1043931515874053,4.580123348831177,0.45096166445401165,0.2285245028450242
12.938309213,-2.9380706212432433,0.12206795630681651,3.1195659480173608,4.745266904356304,0.45944267361490176,0.22770754931764742
13.038314188,-2.940034145640755,-0.0977517457833422,3.113109314539083,5.022195856195262,0.44930257268834045,0.22226651652601503
13.138313708,-2.8309057475623858,-0.4212431308635765,3.1936224359461676,5.2579722450974495,0.4680235792774828,0.2244828539885
13.23833889,-2.722803980492993,-0.7307320507456676,3.14502879581117,5.360102862311249,0.4525102426277607,0.21669590856443582
13.33831197,-2.456310644044436,-1.0261758626272137,3.254085252968828,5.621253203768912,0.4272348589976743,0.21354923051836008
13.438367288,-2.232293249071665,-1.2024887244008395,3.2174319345983964,5.739458000532609,0.4100674625983701,0.21247173551996787
13.53831131,-1.9003243797790548,-1.3759028632029047,3.062652187660357,6.057687386048061,0.38484211668658025,0.21783279300772304
13.638308472,-1.61430218996126,-1.407527113102959,3.1981670147523213,6.280724485157422,0.35338495814155985,0.21828612752290558
13.738311118,-1.3300229565683537,-1.3799026453995349,3.1311090251804177,6.4889051235399755,0.3551280201675154,0.21969554509991301
13.838306645,-1.012353355805612,-1.216679231970059,2.98036793481482,6.6977816966685495,0.350210899515047,0.21949063972904342
13.938322305,-0.7890772807583718,-1.0783923972908864,2.970061757116033,7.004806364736112,0.36821889517682793,0.2250119896220654
14.038311464,-0.5681129180789526,-0.9739977832814972,2.9810518195633975,7.12900544474156,0.43851637340989547,0.2194515416878656
14.138310186,-0.34439851866503657,-0.5781994096137308,3.14092812812011,7.404307141671905,0.549039857052072,0.11238170477013405
14.238310435,-0.197810200243338,-0.392146352245372,3.2558986536453056,7.43583738355163,0.5661160427283844,0.014345225991868755
14.338316964,-0.07292050698676489,-0.09411600351091862,3.6029386596702895,7.3953630133944435,0.5185144921477542,-0.05667239302266307
14.438333447,0.07110728826140202,0.27867331333663925,3.6833476672290844,7.403927571953018,0.4345926035600432,-0.11223738818881135
14.538306553,0.28613322843148564,0.6203998091793843,3.6588386097306924,7.253354188416069,0.3340394634595893,-0.15875470885536808
14.638307802,0.5097274420590396,0.8896790778047123,3.697202186194329,7.037050953939991,0.27652412555453737,-0.1831254046247881
14.738327269,0.7048170513212816,1.142259662538344,3.513941244368965,6.840149416108975,0.2510876459721479,-0.19661978689850942
14.838337294,1.0816952428006616,1.293136967953786,3.3217543594228522,6.651498656936828,0.2414621278359349,-0.21092066885439004
14.938308834,1.4150941512861308,1.4340714127604275,3.237029994994475,6.458438626466569,0.28925666159413355,-0.2184767612844688
15.038322692,1.7008943528828966,1.3967930409604072,3.1294727028104714,6.1606965006773775,0.3339189687882757,-0.23999220298217191
15.138306897,1.9820487796185584,1.394271431459856,3.1808628773718657,6.0018384164742615,0.3752034792830142,-0.24843931586758644
15.238307937,2.24648799675469,1.1934750842509594,3.084622638174965,5.725905300251819,0.4241349206443505,-0.25781883791559335
15.338306556,2.521596911083363,1.044881717236709,3.1236674308978865,5.507258704268407,0.4525567333130963,-0.2544289989917157
15.438307756,2.742868296038464,0.820548366397547,3.157279735243811,5.326388750209827,0.4553294000715922,-0.24821346308645564
15.538325865000001,2.953493657911686,0.5439866240214642,3.1567360897442636,5.033080474353231,0.4583224675860201,-0.2487103874080443
15.638324819,3.0316798948104386,0.20780676168986928,3.2141173949666366,4.884378206518725,0.45334706318839096,-0.2573150847984156
15.738309019,2.994806205833587,-0.036123880972659235,3.198760393941093,4.602058792929908,0.4234726506638452,-0.24463185015106645
15.838398757,2.998389899745718,-0.4375577910383441,3.22284463609674,4.357927140248971,0.4098148161175831,-0.24573265131334138
15.938311479,2.859379013046488,-0.6247771537129979,3.082232047404241,4.19735973105553,0.40071925291113775,-0.24842314694683817
16.038310284,2.689594852646668,-0.9540824668662216,3.090956086023326,3.9144346998195907,0.3779406651764735,-0.2436663757975149
16.138307762,2.4383078065548958,-1.1650016643462353,3.034998814394163,3.664401705931266,0.3764849895900925,-0.24547210262036823
16.23840423,2.0748613532248017,-1.3399075721678941,3.097143858063107,3.4386751189544835,0.3976009867630971,-0.24680600955125268
16.3383071,1.8427048449317804,-1.3058332366382346,3.0711436280226505,3.2181838814913113,0.3896537438111257,-0.2546554131289734
16.438306066,1.4866838301950884,-1.4148932603546511,3.1128262292935784,2.998665575658078,0.4179900278932245,-0.2566413145692285
