time (sec),x position (m),y position (m),forward velocity (m/s),"heading angle (rad), from x-axis, positive is CCW",throttle (unitless; -1 to 1),steering angle (unitless; -1 to 1)
1.029015088,1.8525312143637263,-1.2561695251474072,3.003475062701404,-3.430145454880247,0.4587965820950318,-0.3302126924105982
1.129020175,1.5885617247567816,-1.2248640806295015,3.018366372323427,-3.6863883556973716,0.3930030218422305,-0.3209656134105316
1.229009882,1.372658739025408,-1.0050575241524053,3.0329030146821223,-3.9794198609137394,0.42492701197826566,-0.2533300387252384
1.329011547,1.1775875010232002,-0.8194632189986578,3.100138199955596,-4.098805497818844,0.4504062662270791,-0.14790959810234133
1.42902252,1.0139620551819808,-0.5564004278368064,3.3266370823398828,-4.233580905913393,0.4845643939413493,-0.011823910846928293
1.529006741,0.8693702184240156,-0.15850918977431017,3.48805350374869,-4.178648847299649,0.4180630439496461,0.08830347390424384
1.629018328,0.7016847836956899,0.06189602384245987,3.618329793671752,-4.064859699151672,0.40733890953040897,0.1463665299187881
1.729016121,0.4088971255197248,0.39378663938257885,3.5641113224886105,-3.930882125009415,0.31729552144551676,0.17111812441019222
1.829033457,0.2179458879049081,0.5997956311756371,3.5088129099903567,-3.7131663638415473,0.2811856524397272,0.18302769604732846
1.929013308,-0.19653059535746464,0.787504009976797,3.414436195838235,-3.365017129541125,0.33627189312396255,0.17562242101413597
2.02900762,-0.5081917581827934,0.8262188475023514,3.2269034449750076,-3.1393867355587197,0.3240359309533949,0.1628768623450738
2.1290114190000002,-0.8623545410639336,0.8020821495203935,3.203096580175883,-2.9968799366140866,0.30304093317932324,0.1483186708369438
2.22901121,-1.0958282289445584,0.7148817647416263,3.1897994797874905,-2.79526488059615,0.236185738785318,0.15731013494444654
2.329018482,-1.3686989404263563,0.544374173646869,3.0701834831717596,-2.5872080976482437,0.20129095579164644,0.17006795115777895
2.429012748,-1.7126138115299732,0.5444000973112864,2.9604108992965643,-2.368412109278663,0.25099634046247143,0.15382673022060014
2.529045376,-1.8827876721477335,0.17756084581996456,2.8302476856945016,-2.1236393445092854,0.25294237074444653,0.1758086389013959
2.629014463,-2.0259283755033555,-0.08073408711390061,2.9005299099606336,-1.907111715430054,0.2595040436182176,0.170434958384789
2.729009058,-2.0791041470920613,-0.3044358420928496,2.814958947006311,-1.640958568876765,0.23640071423265388,0.18257160776922435
2.829023918,-2.078743218117005,-0.5366352032977909,2.751571317636268,-1.54694989137785,0.23074215917712274,0.20240214647860397
2.929003728,-1.980570687231296,-0.8230891900812388,2.69085319093616,-1.3525340242555002,0.23231770483688324,0.2139832844538602
3.029005219,-1.85110122110127,-1.0707583668774106,2.619540618303994,-0.9841901309209933,0.2626444248352043,0.2297407618999468
3.129017295,-1.695140499783819,-1.3109568231823117,2.612785875796394,-0.7245148185914171,0.2720069083626257,0.22819840319820547
3.229016365,-1.5390261716953146,-1.4577462372518175,2.606370907017101,-0.5526397371051314,0.30408909669616047,0.22580260592503051
3.329012328,-1.3202913419256006,-1.5741624343202016,2.6099096354009115,-0.2823108615445775,0.3458305719251422,0.23170914748875898
3.429010287,-1.022630868860713,-1.5301044592632658,2.6244831226481855,-0.04380638925100585,0.351984514265057,0.219429849220781
3.52901968,-0.7324390423526164,-1.5177486503879636,2.767268907246721,0.18365737984228678,0.3769895518399139,0.2186199879445224
3.629032626,-0.5983240387944847,-1.5118615694706505,2.744687105469215,0.4794212962000561,0.3819256950891278,0.22005389858701352
3.729013891,-0.2690490188686011,-1.2808188817317676,2.833180357369026,0.6528942822064899,0.3743231421433042,0.20771869919798946
3.829015854,-0.05673211292324228,-1.0994039524415966,2.828364943394296,0.938425100531584,0.383965784803835,0.18678823938819752
3.929021444,0.09910233858926641,-0.8394829394230989,2.7913289666662604,1.196612089110274,0.39220207232992854,0.19327643034923336
4.029004764,0.21014884497442263,-0.553340218576823,3.020150064763459,1.3330067622247463,0.38698336725236243,0.09997251462600026
4.129025025,0.1886726905974161,-0.2625743440818087,3.0543410418270196,1.5023661111809072,0.3660309775462831,-0.02176087115385449
4.229010915,0.24381638185366944,-0.016093146771675983,3.098050823299133,1.3388420493628197,0.3422947874628728,-0.12613758512109483
4.329018166,0.31616317829244267,0.34797536788358635,3.1325642431941123,1.2324931901958052,0.28754958205627884,-0.18607443412547026
4.429023108,0.4516957550420497,0.5799567629362568,3.083858543064933,0.9989411193610225,0.2761728296104876,-0.20983056283976023
4.529018752,0.6961310625393531,0.8094965052877918,2.999465747575026,0.689445776184216,0.2976976853872901,-0.22404202404130721
4.62905221,0.9301752939856774,0.9605195107978993,2.9201072790051827,0.5217316866656544,0.29849351524272627,-0.21643647225276388
4.729016631,1.2053477002025133,1.1876081192727086,2.9142246993883547,0.30935912279712807,0.30713146036636263,-0.21682431353445125
4.829012526,1.414390511213601,1.1960542909651157,2.9983586076329525,0.123458092817997,0.33299851568922567,-0.20565039187506895
4.929017159,1.809599909194551,1.149237948621263,2.9604227083432244,-0.13823387160413164,0.3217144940810454,-0.20947925845682455
5.029031757,2.0725818818070376,1.0385023652727154,2.933578465136784,-0.32973252166929423,0.3257838510653923,-0.2061281805146397
5.129018746,2.283667794652855,0.9779667465939901,2.8350496781950754,-0.6239863514086624,0.336016765616896,-0.21509133427299734
5.229018078,2.517523564189331,0.7835867614883582,2.8397640723450435,-0.8983042735426567,0.313137772153743,-0.2189752094370638
5.329023782,2.628142704910936,0.5252727955979516,2.8333990869235195,-1.151071759332905,0.30511371854156843,-0.22616100278374993
5.429021146,2.768751632949251,0.24103251349881571,2.8940928720511896,-1.2877393330946165,0.317541033393886,-0.22387398300513597
5.529013181,2.7895529941934014,0.042158676306271785,2.8957728462505905,-1.5476438090154057,0.3284477414748069,-0.22305222539772357
5.629206174,2.8725818878114096,-0.2853107487485788,2.8692998898685995,-1.7821334708277223,0.3294058564833468,-0.21824849809441504
5.729024105,2.6432640977037747,-0.6086349632716387,2.856250741757989,-2.0463650175149306,0.34264550332209864,-0.21825040485930688
5.829015164,2.5503140051527056,-0.8107566064366044,2.879910185131322,-2.216174329007522,0.3464881169692264,-0.22123461297166208
5.929013855,2.3170898361170487,-1.0288346998047608,2.929728220050535,-2.4650791865831874,0.34940863614050893,-0.21733183224329505
6.029014153,2.0967630119897933,-1.1308558032051166,2.9029590129756397,-2.698227124238425,0.3545162233278544,-0.2212213238780496
6.129013839,1.8212027441492684,-1.313679660077043,2.924243028375715,-2.9270058013861817,0.35364876655056876,-0.22005442213627882
6.229006251,1.5295639541989023,-1.294126011915702,2.854263271774234,-3.139399008879843,0.34414253736879197,-0.21701334268474023
6.329012478,1.3404548116468098,-1.2605278315940414,2.9288363388032215,-3.4163708258241954,0.3374926956085894,-0.20922827220427626
6.429011836,1.0029539802059857,-1.1562651486567437,2.90221722000529,-3.6493707733023415,0.34390250553597845,-0.21078107602094165
6.529008869,0.6774009846832956,-1.0210256256940635,2.9142476628804914,-3.811834448822109,0.32650661534753106,-0.20328186376909202
6.629038761,0.5234559888072161,-0.7200552823614441,2.8026593098605153,-4.082983463034141,0.3278770721838342,-0.1968664717122793
6.729014662,0.2888908335870303,-0.5432959783647928,2.892349060358114,-4.2724378035731245,0.326343388067365,-0.195722947838937
6.829010858,0.3073779785503809,-0.2282762476785863,3.03018996416614,-4.519270310778543,0.35764147258596213,-0.07178187018904851
6.929010812,0.20651966626464663,0.05556753190465361,3.1582257086026946,-4.479409626359893,0.36048814521596023,0.08718564536252434
7.029006811,0.1745610294561618,0.3614747703815887,3.2238487347834264,-4.3067585424861745,0.31531815420245635,0.15675434218135928
7.129017406,-0.026012516934100626,0.6403542671516507,3.187199395618352,-4.125173152652579,0.27531881103002726,0.1868782910401045
7.229014007,-0.2857595244303328,0.9130121346670985,3.1470891694502865,-3.8762736207443202,0.3163325353125067,0.2023430494594956
7.329009244,-0.42527320796176343,1.120570940000635,3.0010296659081668,-3.660751733750723,0.3155538513193842,0.1934158688605766
7.429004719,-0.7304901693085967,1.1893546484653674,3.040864023368378,-3.4529603197668948,0.32109516080434913,0.1785339681667902
7.529105802,-1.0202818274677088,1.2019773621263257,2.9915078011862106,-3.170293333289429,0.3513560272037333,0.16415242433798405
7.629022285,-1.3396460682679028,1.1626596806935534,3.018295778507801,-2.9159712531824455,0.36032218137062577,0.17251527741946723
7.729024198,-1.6609307569003073,1.200988524787184,3.028691536350856,-2.7048167073307186,0.3375776569429071,0.17276237381428056
7.829018521,-1.8560865199468253,1.0218928973423127,3.0035707316235776,-2.554288771069081,0.3150813774736285,0.17658944513754568
7.929015457,-2.1803746080884983,0.8322980388963158,2.9589387745510867,-2.3359289112402135,0.31096070779103363,0.1759707735576771
8.029028865,-2.30748270584189,0.5697579887768554,2.930868848447513,-2.0420220683096484,0.2935572517373903,0.17675367427064767
8.12902634,-2.4785574048523342,0.4008965070743916,2.8939555124953737,-1.889363434426719,0.2899471114572934,0.17338362420580872
8.229012599,-2.459678949765141,0.027435558336056032,2.8507793255657137,-1.5917229322668736,0.30226407366521485,0.1839192683244976
8.329030672,-2.4417588006208044,-0.2624908060245077,2.8862985957505334,-1.433887680061831,0.2821633859704794,0.1864078403356533
8.429006518,-2.4676933678744373,-0.585244874845876,2.860443277110587,-1.213347990936763,0.2878374651601472,0.18983685428516048
8.529024258,-2.3242063222548377,-0.7924513771255486,2.8328002580258866,-0.9805786418319489,0.30916550439499974,0.20309257992346486
8.629009332,-2.0513304914756216,-0.9350087267910148,2.7847119490318515,-0.6569529292816686,0.308096643359626,0.20214644857440248
8.7290113,-1.7983225746302676,-1.1037959881185333,2.8084447302364506,-0.5088928332130337,0.3164298712604757,0.20268316123145824
8.829009539,-1.6567780560812688,-1.3496406842534192,2.747167373222745,-0.22001921179122277,0.35736225090567575,0.2095755480859354
8.92901174,-1.3341336399068573,-1.2908813313335499,2.779989726332884,-0.005944146312503937,0.34238584097579333,0.2069550841217094
9.029007553,-1.0564648752438774,-1.2816749514780408,2.7888488753610154,0.2191648183292056,0.35391266352560585,0.1991573726686327
9.1290137,-0.8085964402959679,-1.2303010679670427,2.8737863266874375,0.380081258275822,0.3805114692154991,0.2002519866839234
9.229008241,-0.5804292726940278,-0.9415501911876165,2.8085318352604256,0.6709113206362954,0.3538392344450856,0.19448005622995282
9.329005793,-0.3632522161598562,-0.8251649051220276,2.8727423743131144,0.9047774474953566,0.34113351361614414,0.185546346499016
9.429014807,-0.13679770230616511,-0.5485764042050219,2.907855984669292,1.1376314250799473,0.369032805571535,0.19379955937190962
9.529011018,-0.0678870821884766,-0.31932115032896013,2.931443367948997,1.2260157912330767,0.36899281026739444,0.0974035919685993
9.629007486,-0.08552213296226101,0.004670852809662,2.990237876651496,1.4063936221796103,0.3401210306444612,-0.013410073063385503
9.729011225,0.04779382253677171,0.28349692079337585,3.1331261767818512,1.3223492860401866,0.35544763985961997,-0.11730151038005655
9.829016235000001,0.16913921634342005,0.6302263300181681,3.1020554963857037,1.147434187496408,0.3020041153160569,-0.18561927506568526
9.92901163,0.1961184292898504,0.8459753941770812,2.992868672400138,0.8979338591926213,0.2857345661761855,-0.21361243261884894
10.029015151,0.4088962645958041,1.0208299034682398,2.990018880033064,0.7342541843777698,0.33383882216348737,-0.2262054659437322
10.129010586,0.7352698244132516,1.2549647507099018,2.9609280661667383,0.4613398012010529,0.337883598805377,-0.2191180016646734
10.229019762,0.942108324391473,1.38473711360882,2.8650174840274567,0.22426868827761928,0.4261956471456486,-0.20880745833395986
10.329014118,1.1911729432240061,1.3670566659727028,2.955567157924419,-0.08332498252000739,0.41224636331238007,-0.19787795362350943
10.429005592,1.5637465196487879,1.331507205913442,3.0439012817397213,-0.19502767645089686,0.36560326224880396,-0.1902536063034976
10.529012419,1.9022100814964484,1.2644074926834985,2.9722296131860233,-0.468660628134307,0.3456468529021163,-0.1926738622349805
10.629022352,2.1765268731895313,1.1153387596707922,3.0037720459136863,-0.6675252586313564,0.3224766595419291,-0.19079643613732472
10.729023145,2.2886262509298962,0.8429559554123707,2.974923184470324,-0.9089139278635173,0.31880450287056006,-0.19909834962452536
10.829009368,2.430923277982501,0.6435986252802767,3.0079017515128084,-1.0831570078438952,0.29381280340373855,-0.19454695657682314
10.929012106,2.5714605906225496,0.467951366364615,2.9158038106830753,-1.3289429920256655,0.32855582584970944,-0.2106958135826551
11.02901222,2.670094690084402,0.15194176203707288,2.936150021108844,-1.5975020656207057,0.29683124430715085,-0.21143707305446877
11.129012876,2.6686186184768483,-0.23628666142320107,2.8815147226719984,-1.7769069511198572,0.2909166409473768,-0.21349577521846536
11.229005941,2.5928031187164167,-0.48344296027418465,2.9150209209995324,-2.056172636065404,0.33480899928919744,-0.21526452720965927
11.329009645,2.373774843754624,-0.7084495621215151,2.8930647405312917,-2.27168145198613,0.32523246234902076,-0.21172736511077733
11.429049415,2.225839507135526,-0.8680857325669519,2.8905316898834976,-2.450585402692966,0.32572537850051875,-0.21284550176714026
11.529012541,1.9521788652543812,-1.0952224088890838,2.816759591152568,-2.6745918082498528,0.3644280397384925,-0.21540063270160226
11.629011697,1.6957292683371954,-1.1532945435907693,2.942336696314197,-2.9252577366401,0.3361865802696993,-0.20878361612111293
11.729003514,1.434346463494363,-1.1681695171397113,2.898644363992966,-3.2008128987085547,0.3263736077920641,-0.21315266150700268
11.829021021,1.1101308546576172,-1.1553366668457965,2.83018044187841,-3.3741592752959537,0.33311266753721164,-0.20694736550609463
11.929013869,0.8600338657122577,-1.1613704030940049,2.861884826969631,-3.702609292061765,0.34523812688993016,-0.21038408452645596
12.029013813,0.5766910138981433,-0.8940899320433598,2.8501112249696683,-3.8967108232652206,0.31866021873710476,-0.2128366854791275
12.12900968,0.4414677684768956,-0.6310465975636933,2.880749859202298,-4.078399292739211,0.32429258679533807,-0.20370932889121604
12.228995987,0.26302961123679586,-0.4209548108790154,2.795920537203778,-4.354597294472269,0.33948511147454663,-0.20887842982972896
12.329019279,0.13503756178205367,-0.14400462016854304,3.0479742576619895,-4.402594369492123,0.35452036507448187,-0.05034786540246205
12.429028797,-0.015673482295892494,0.07442857543307332,3.1014139500348534,-4.442044104872266,0.3447237965409404,0.06441003784533238
12.529008152,-0.09637989203345843,0.3932465408643086,3.1058062092342675,-4.401676475058999,0.3233154702277726,0.13664429417299723
12.629011636,-0.15139267133536438,0.6510308842254962,3.1589571483504257,-4.176917432364266,0.26914246009137266,0.17999604707507563
12.72901284,-0.45772534352740923,0.9238544922748992,3.170390606799836,-3.8853774762771036,0.261248005191787,0.2030535494200751
12.829020678,-0.6701259807945424,1.1975209060480028,3.0238462938064212,-3.668403732013998,0.27496963088576637,0.20822707979966099
12.92901668,-0.9484582836274364,1.3074796071663766,2.975222219083562,-3.375450580685896,0.30648905647596436,0.20059880859607457
13.029009695,-1.185508991648261,1.4246847413752082,2.954636070238649,-3.2114675616955624,0.3284190726648929,0.18854370089927555
13.129013556,-1.4559347727101624,1.3349021354985966,3.0432576457713534,-3.010176778844836,0.34384604696153925,0.17658959109392403
13.229021137,-1.7994821980103997,1.2779443924314018,2.9254609783626147,-2.723457905936426,0.34667112283858215,0.17660453707809134
13.32899959,-2.016409084603783,1.1419772652215943,3.002789516399075,-2.5316855944557792,0.32757232271324616,0.18548621609183608
13.429012231,-2.2771042120644145,0.9710363684844102,2.921917126357507,-2.2947115755584675,0.3098696831368678,0.17483321451660505
13.528973836,-2.4075809987557415,0.6313719260518127,2.9303862809186128,-2.0921759847729016,0.34080892487321673,0.18681305477616697
13.629009245,-2.5608558398752224,0.44254585320266887,2.9783962218036395,-1.8995495845274444,0.30850069630636523,0.19051559409144883
13.729006402,-2.694633706448363,0.08965448068893216,2.9416455109930104,-1.708463763500411,0.28468267440053757,0.1940696023754809
13.829074621,-2.704019302802208,-0.18499039027942318,2.906763524185717,-1.4216548172123642,0.3222946780274589,0.20196468282948737
13.929012566,-2.6653758059277464,-0.4613597831355957,2.820989731985457,-1.2026758263591864,0.2888884388218833,0.1954758442564838
14.029020006,-2.535582015522441,-0.7385147451635761,2.8180100311690905,-0.9481835119782268,0.29754003943349794,0.20901598979877123
14.129013822,-2.262613298060185,-0.8745694087283884,2.925642007325378,-0.7553602675475829,0.30784825863854076,0.20539823350757658
14.229029539,-1.9971967631314742,-1.1316072455063324,2.7980786385998755,-0.5344827431913965,0.33592511946784953,0.2093475739520127
14.329013299,-1.8266403906767281,-1.1997500265234662,2.871031187090068,-0.30201474538201156,0.32554484915060217,0.19820049060222697
14.429022467,-1.428362590417278,-1.2798803608678062,2.8362248591633823,-0.07207310780182091,0.3337421343205525,0.20759801770465697
14.529012877,-1.1748001560474535,-1.282648579469771,2.8280133776102345,0.18278889979172258,0.3593108448848187,0.2091675628126864
14.629019915,-1.0030874702891284,-1.151910719031254,2.8608060289185735,0.4443607599434857,0.3412227375208798,0.20398578308563806
14.729017403,-0.7266843328263733,-1.0277598810620587,2.9349484021275725,0.7461718673087895,0.34068150845151735,0.19241165937339588
14.829014959,-0.4950305092679568,-0.8045354597806202,2.938932176878416,0.8543884154574306,0.3520839526139548,0.200169111629315
14.929011817,-0.2791426646948407,-0.6676613558046997,2.8605658353681513,1.117767542497888,0.33774466461880176,0.19273585444110894
15.029030862,-0.16208530320652917,-0.3360837466203712,2.8728955009870845,1.3480913469631288,0.34676864117831363,0.1343616702618836
15.129004984,-0.08577271302817585,-0.04853938792697917,3.009803220650424,1.3432914608749038,0.3726514537217329,-0.0167375581182484
15.22900884,-0.03332684496457716,0.21357708108034235,2.9972194388203146,1.2244372023457764,0.33617011086141196,-0.11750858313779602
15.329007475,0.029712915913545745,0.6144949975589472,3.036249775067823,1.1552295198888545,0.3182118462560324,-0.1529078214797144
15.429019148,0.1639503860392367,0.8178513070210236,3.101322790404463,0.9217577487463446,0.3111042143518542,-0.2041598764582974
15.529009979,0.4109900225409927,1.0167241403217355,3.026917764245434,0.7749344845706639,0.3051329619949371,-0.22067103385006212
15.629010159,0.6359287065544963,1.2368116613743005,2.989714012651854,0.5329773638377076,0.36889769669249795,-0.221949381150766
15.729024685,0.919664071480787,1.412833052888421,2.9746055292739455,0.26142070473080997,0.3569195960406862,-0.21369703073092183
15.829018364,1.2162552942763425,1.3750494609216901,2.992104048697792,-0.0355961988904929,0.35246376352637915,-0.20253356594331925
15.929007524,1.5190152068685046,1.388470013270237,2.9222474986368288,-0.23304989775168988,0.3554048204234058,-0.20028812339798904
16.029011872,1.7990133377874176,1.354669263463227,3.076648203150188,-0.49546614889558704,0.3595489822002238,-0.20237789096930436
16.129016701,2.057650398716668,1.151844258771054,2.979376045626712,-0.5763899320009507,0.3314966462383951,-0.19413864843225898
16.229023628,2.3547527937518624,0.9771210854557422,2.9626281824973666,-0.8867680590643985,0.3206647102732984,-0.20512783069451745
