time (sec),x position (m),y position (m),forward velocity (m/s),"heading angle (rad), from x-axis, positive is CCW",throttle (unitless; -1 to 1),steering angle (unitless; -1 to 1)
1.026845213,-1.0140503890003196,0.43852551153082264,3.3886281482348153,2.4740473614125187,0.2810573536053755,0.16527149710888056
1.126742226,-1.263729083473408,0.5191144952741049,3.3042144326269263,2.7307107228484964,0.2551262912498999,0.17388150683377274
1.226744888,-1.5717492620470108,0.7523651044516352,3.1905492966391207,2.970893661753751,0.23411817964180606,0.17319082922281087
1.326754244,-1.9287768225401865,0.6876216085102176,3.1278928838417412,3.2209110594033907,0.2463479820297964,0.17036752507758765
1.4267430110000001,-2.2930456305457616,0.646497750767077,2.981805978258073,3.3806580393272334,0.2742173598624897,0.1809294466412913
1.5267454169999999,-2.453184525863263,0.6152763703943699,2.7687389025673963,3.5964391946974485,0.05096918358097964,0.25384411237704974
1.626778237,-2.676034144272561,0.3518735999426338,2.6413129252332186,3.975688979704507,0.20857756932722088,0.23248022485935366
1.72673781,-2.8341907197095253,0.12308431485484175,2.623967036593941,4.2533572117211165,0.4013262534090804,0.17618030057915712
1.826793827,-2.989256308248405,-0.08379374058201337,2.5882455623505947,4.43590911329735,0.3678832224179577,0.1865966248769646
1.926743347,-3.036117045442987,-0.3120508041836474,2.7858526329669075,4.5386710851440535,0.34438849987872505,0.20985170013775736
2.026853892,-3.016672907999,-0.6069895240998545,2.773649589558587,4.8032713399192195,0.3595125776051493,0.22618828592956822
2.126755244,-2.985936804447652,-0.8633269966114994,2.8917624589933277,5.073480471115257,0.35651579161664126,0.23625348999967424
2.226740396,-2.7953611582963003,-1.1300792318760153,2.7589170391843734,5.278638411967362,0.3730147744533797,0.24458889926081173
2.326746038,-2.6402561729135434,-1.3478512928149105,2.9000738698518287,5.484257934585703,0.42133316307220176,0.2315591886348931
2.426746564,-2.4623789227346657,-1.4635752929427146,2.854421203772327,5.818875515440486,0.45223735242301555,0.23163899857766074
2.526846665,-2.1255945045241003,-1.5472860842113874,2.9780278267352935,6.053088171064538,0.4692832629699893,0.22243178568628402
2.626820906,-1.856195683929992,-1.7284121376048613,3.153828358375366,6.231387529887975,0.48320709860843647,0.21355752731860414
2.72673896,-1.4765470809953078,-1.6183707061812498,3.2745754464026526,6.556469162929792,0.4802431013391407,0.205822141523072
2.82674089,-1.1958538401627248,-1.5763934698322493,3.200688537987567,6.672200899811972,0.4394949085446113,0.1986724902852355
2.9268137970000003,-0.9352771726885551,-1.348507747522025,3.2348228211222225,6.9384443519144705,0.40899904033368567,0.19461420074782754
3.026829799,-0.6843012303501543,-1.1414313407922765,3.296144946565849,7.198954207884936,0.4075358236766427,0.18964344254295404
3.126878705,-0.5035607301639061,-0.8319700491631499,3.2327068864814543,7.3761711694517995,0.38253128963088057,0.16734888986190766
3.226807396,-0.38021013401067966,-0.5916038411560612,3.2421940174740485,7.614239097097474,0.4159602572098836,0.07849487280538649
3.3268230450000003,-0.18335438769374654,-0.28555307551794507,3.3869266614795475,7.6438407605314485,0.4485425963824759,-0.04349181225465555
3.426836809,-0.11318666271363925,0.08225851604054557,3.544051748517017,7.533974781024565,0.43238154350061214,-0.12156360649287311
3.526826331,0.017891602919441994,0.4267532598470842,3.3958918923560817,7.332817794208931,0.36128632300677,-0.1618060017523699
3.626842762,0.13426022656571918,0.7044103255741857,3.4307562916967234,7.185821700878701,0.3458392780915812,-0.17622216619710587
3.726739227,0.4085940274233575,1.036347313303863,3.489391706143011,6.988797550671191,0.35609350194193856,-0.18436973680136517
3.826751726,0.7110244555560105,1.0867842155927163,3.377213526847226,6.7223669456065736,0.358235559090741,-0.1792236475471767
3.9267804120000003,0.9631366629989273,1.203376148887381,3.3608208562908923,6.450837207505885,0.36975920655653033,-0.17539981146318273
4.026743611,1.3316948898042154,1.272874690954862,3.3101214237232934,6.298146490952125,0.36856246227037154,-0.18321852459134877
4.126751197,1.6648053382822654,1.3004612617265767,3.315155235102172,6.1456489848986875,0.34781058883880567,-0.18772178300402664
4.226816392,2.034165655462638,1.1045834657069185,3.2694205395984026,5.914097603976562,0.35609052042135747,-0.17559800002197637
4.326755852,2.2423046390366945,1.0330416865428822,3.2768636862000102,5.508794453584058,0.34980582861389525,-0.18517497303807193
4.426745703,2.5775882423388468,0.7466221052283667,3.2268190200451436,5.403209407336594,0.33084403218837,-0.18840406749896518
4.526894928,2.7679764195225647,0.4775210037955267,3.193043893771367,5.191183633237157,0.3283299360485904,-0.1849326316405874
4.62675535,2.9554022635139963,0.2830512040895969,3.166003768911919,5.055749133088223,0.33573626909217114,-0.20579961896525978
4.726738587,2.89284423334859,-0.08997606717543041,3.1249662169176826,4.748287410096038,0.3381215341383467,-0.2105978216666028
4.826743341,2.9214581410908425,-0.3739604238045738,3.108743800452245,4.494683753557548,0.35114437671576826,-0.20581460138418334
4.9267450440000005,2.8299475480151064,-0.6447906315512171,3.0750757754011775,4.221395246277336,0.37367721144005045,-0.20650127674585114
5.026738518,2.6234048291407506,-0.9710087558731857,3.1434717935457313,4.084834268302691,0.37774812759942417,-0.2096801911852461
5.126752815,2.4091311304917538,-1.2196396588592342,3.0980432086474146,3.8933920310487165,0.3938146670225416,-0.20504044436436925
5.226761572,2.2266907712151207,-1.3620681305810005,3.0975924566785036,3.6004783770247104,0.4147289954927431,-0.21258074409153552
5.326853084,1.8897614841808048,-1.4645375548972117,3.1799692092530663,3.4097017210605247,0.40374118565650907,-0.20882132722997826
5.426764929,1.6782856050805175,-1.475911386886303,3.2389649475256386,3.1562001054429247,0.400290269364468,-0.20107774162800282
5.526774022,1.2781563097106345,-1.442361340612824,3.0743143947566436,2.964509366797394,0.40177659384876624,-0.20286900590731824
5.626753549,0.9640097702034762,-1.3467768966871032,3.1556243856859325,2.785066030795277,0.3807755696376755,-0.1974229615269373
5.726737213,0.6496180746187991,-1.2943794471512613,3.1705159970167363,2.484802755975304,0.35176451630319366,-0.19741311681682547
5.826757159,0.47324629870538104,-1.0043773468602764,3.098701197098481,2.194614074605427,0.36059586629548096,-0.2040344447027908
5.926806507,0.35324142054591257,-0.7315902645486476,3.22866410492686,2.0450242544546895,0.4117845177828831,-0.14536660362523568
6.026757782,0.12391661913503486,-0.43948704491984497,3.4021850613551727,1.979963976140139,0.4277048440151847,-0.05575651136515521
6.126761996,0.03193014152999625,-0.12421333459728524,3.475119644192219,1.9771017181410881,0.42545391952055484,0.043610171236098276
6.226739189,-0.11213574010779259,0.17212121407129755,3.6592403429477867,2.0345205059871603,0.3526288041869859,0.10406303120347882
6.326750762,-0.33197156503008957,0.5386255300877998,3.491796131136543,2.253085105822763,0.28935092006192736,0.13786652820629822
6.426738222,-0.5813373574682141,0.7693133722766152,3.541190598921057,2.3762036625857577,0.2648079724612532,0.15576209037685163
6.526820071,-0.7803101123498878,0.984989491132136,3.4834249735819327,2.6070213966646536,0.24371348002402315,0.1673698603765075
6.62675997,-1.0865072928678743,1.1425704046627072,3.3849750580251774,2.8338444346336793,0.25151186648703433,0.16582901868122873
6.72674078,-1.5124095702679563,1.2806667770268634,3.2044847967373253,3.146732773687788,0.28527869790049304,0.1616217414702149
6.826762305,-1.787000498844028,1.1876207658429407,3.1462044543363437,3.3101538339954066,0.3243196554022234,0.1611051971210074
6.926785077,-2.109418013656162,1.1553236868644547,3.0954260637981843,3.502259198650726,0.3179014519399313,0.1610010533390745
7.02676288,-2.33208707825674,1.0024307631877039,3.0600254062178274,3.716326743383921,0.3279453700946851,0.15711146343410679
7.12675806,-2.6638402475892318,0.7477003637138774,3.100432881751974,3.884264020529857,0.32098817988674166,0.1740801981394219
7.226741327,-2.72602329802917,0.6402404203031158,2.9830427946013067,4.169143986558303,0.29860468632837495,0.18501502783693327
7.326755043,-2.94504867377083,0.2843912989072655,3.1101391772221048,4.386122576153864,0.30274586320978153,0.1932589691114294
7.4267579,-3.030599608295124,-0.010539276582657502,3.000425770614941,4.620062603223147,0.3003091072386428,0.20458732976448823
7.526762834,-2.9587840428679186,-0.32134250713767015,2.853962390103365,4.84797048215704,0.3145397860271093,0.2089314297118992
7.626802242,-2.874039508854389,-0.5426756586066595,2.9155023604683312,5.097527472550979,0.3579377270128969,0.20942753709010636
7.726734121,-2.8296695007624955,-0.8539887142058428,2.8432624418281867,5.345561740558795,0.38521196490006826,0.22232685712855096
7.826741699,-2.695336571623546,-1.0706276787377424,2.878132255265474,5.5467414408998295,0.41953715640498407,0.22257529859036673
7.926764785,-2.4110828037899723,-1.2449895154231714,2.993315676859057,5.80415948298998,0.44928263332792073,0.2178861877081366
8.026744448,-2.085566899276034,-1.3228103442416874,3.086102082816267,6.008472586740336,0.45680250689551466,0.22162522461256487
8.126755166,-1.8516523153330213,-1.3914236267705857,3.1013810655045666,6.292381311120163,0.4509375163884492,0.21338720805317526
8.226835561,-1.4825746450575188,-1.3792020612686,3.183984746368373,6.485579780796522,0.4450952926652457,0.19321705754851967
8.326763235,-1.2001743835857221,-1.29859437150033,3.204057792504069,6.72807877016076,0.42997867939321566,0.19780648060488562
8.426749127,-0.8989848525401588,-1.1487091197636068,3.222985670782591,6.950939595789554,0.40102035522773505,0.19323133380227894
8.526752765,-0.6635588184166664,-0.964410764934849,3.2453208692349085,7.140087492930615,0.38770160884735066,0.17802594383878026
8.626746641,-0.41505764135546497,-0.6807967289545946,3.215760937784612,7.355112324201842,0.3715233306035975,0.17464891026203053
8.726738693,-0.25000680538486275,-0.3996759461930011,3.2445423799622106,7.578489466477873,0.4012428116072374,0.08738488340932354
8.826745772,-0.2677467593820585,0.01964734812101568,3.322381669713403,7.562432460696414,0.4764459431570679,-0.0465436540455053
8.926752734,-0.15891612365061167,0.29124490981151835,3.4357713977076783,7.508804932257839,0.4132397810907482,-0.1253086632638644
9.02675957,0.04136993582640455,0.6262544449293561,3.404906751063707,7.402350464818472,0.36425854148099257,-0.17290898343920175
9.126742676,0.16875931758905147,0.8512973246637845,3.3709301059820387,7.137223022426387,0.3609099483637373,-0.1851810376514673
9.226775725,0.32522617473965254,1.1013323646059616,3.3445090149479753,6.932505574162255,0.3583453919051719,-0.19292295415061556
9.326763682,0.7593537089424511,1.2517108469136151,3.337493337851322,6.768095313816546,0.3685224625844373,-0.1896903247322079
9.426749955,0.9796337497325946,1.4790669200275015,3.359368513436461,6.517677776280756,0.38628218555476723,-0.18769601361699817
9.526755213,1.3377907708182373,1.4421645030737387,3.35567704831094,6.252400847310688,0.38989926240932493,-0.19068104686918178
9.626753147,1.6711536436397527,1.4689975614157766,3.203344262138139,6.02067606759476,0.3837248614692185,-0.18607659081465633
9.726742928,1.9923029583721563,1.351483593775379,3.2799399921820855,5.795401782249102,0.381199545322909,-0.18387407465456823
9.82677739,2.273336577943745,1.1913124292738584,3.228274330255055,5.625650389696743,0.3642505103415184,-0.19073311454087125
9.926748083,2.506227202311376,1.0226535456100792,3.299380733167606,5.455335844260946,0.3513158635011834,-0.19312367809593076
10.026746011,2.7063506306998657,0.7347124639293547,3.209415277538982,5.192073372300133,0.35324098544638965,-0.19402322417695886
10.126762081,2.8296224134603025,0.42895308603451837,3.11477201572885,5.030564124359308,0.3400272474104346,-0.2069373180070785
10.226778944,2.951953421321303,0.0836276946179334,3.126808251995639,4.730208273116135,0.34279264848541696,-0.21000523830651452
10.326745272,2.9327690698370255,-0.1651457060127217,3.1218411208019337,4.529227759291268,0.36680727616054465,-0.20384047360099336
10.426748379,2.807336997478798,-0.5168869058634492,3.144667053591427,4.26913002753686,0.3780613938863969,-0.20939755032833315
10.52674733,2.665516227276465,-0.8217728556805683,3.0799720710679757,4.073651068338205,0.37612741279803114,-0.21185653802166812
10.626754452,2.4461908524200036,-0.9936170488494757,3.1388812531473183,3.8251915465692514,0.3998026019983903,-0.2098335147466954
10.726748537,2.2144423564933167,-1.1994873982200445,3.1449010100527373,3.673372842030465,0.402651895141836,-0.2103132842895871
10.82674997,1.8930371703352034,-1.3266693728817218,3.133906218087065,3.395353429432855,0.3956625967229139,-0.2104230784094637
10.926754834,1.6632996912829177,-1.295421186057369,3.1139367700254086,3.1465191216736694,0.3958544701776091,-0.20621278250165861
11.02675386,1.2380395678387321,-1.3901119821415382,3.2014820760871965,2.992750256413621,0.37838176037976096,-0.20841081225027566
11.126744763,0.9926029040882436,-1.218847627872621,3.1260110574214943,2.7691647675916653,0.3432614229206574,-0.20733502231315373
11.226734298,0.6472948380768904,-1.1264022295551048,3.090216988068167,2.514643974031284,0.338878138617991,-0.2118627492525689
11.326746271,0.5479979930553512,-0.9643507516743349,3.111149675612686,2.2772368088411232,0.34925065950571843,-0.20700529890671138
11.426753629,0.32889479493721574,-0.6256766010840589,3.1586398599611645,2.0741993445517846,0.41140079302755006,-0.14876762358240903
11.526752629,0.20578863415407359,-0.3485298186311582,3.332862820462926,1.9902773610451152,0.43808350752875086,-0.060467546263677
11.626790127,-0.023277765902232694,-0.0535623560598492,3.4489280452551627,2.015663128909901,0.43015695841286855,0.03756010216090604
11.72673992,-0.13733187557985413,0.314125079979712,3.5410550378293073,2.0318386661835084,0.35909825336419043,0.09863372333667834
11.826744593,-0.27651950550563087,0.6132821161876875,3.507565434936104,2.2345805675996924,0.29837180576616096,0.13627302293069718
11.926750471,-0.5786365351382237,0.8292343084046974,3.539936226734589,2.4019968553630373,0.2622941493813387,0.16788369847457174
12.026750747,-0.8484167635485819,1.0654891947650138,3.3910023449759645,2.556062118634703,0.24046538874543844,0.17642902892178877
12.126744401,-1.0631139213706973,1.150523109691948,3.2602443704959017,2.8655965488752395,0.24881648399131778,0.17884068395030384
12.226799655,-1.3473564197726386,1.257952631195833,3.249444281964822,3.0718951090774245,0.2947982618079005,0.15376664054763853
12.326758486,-1.7231383904772033,1.3110602110123288,3.1956221599996075,3.235502959480149,0.3320123238016097,0.16764822854568442
12.426759101,-1.9746913492903566,1.205899307832794,3.0395821574325725,3.493904685116146,0.3250532247468925,0.17517697292360349
12.526763481,-2.3233147317381198,1.1369889251689422,3.080131303593275,3.6765915154825346,0.32401786033316543,0.1834333018043506
12.626752729,-2.580848765778593,0.898679583865908,3.0838915740097197,3.939106671026577,0.32672299852889225,0.18541407619524958
12.726805544,-2.745223892844418,0.6780000787317566,3.0216927323716267,4.151020505275158,0.3153726064447337,0.18748962539396202
12.826772967,-2.9198318754911323,0.37619664991750695,3.1170910361120203,4.466112041110145,0.3138876551965038,0.19459665060586873
12.926757897,-3.0395018984225035,0.11484881972363237,3.0251915609516846,4.635086763482255,0.3281165914608744,0.20348062810672027
13.026749119,-2.910785296797473,-0.08007377307902924,2.9327305105368175,4.8205852374575855,0.31808040916443886,0.21287501515154328
13.126747541,-2.890237520394308,-0.41802292473768415,2.9705980158963725,5.0634787812092075,0.3529901291163108,0.20423098848283885
13.226745089,-2.7637056418025163,-0.7079875851895563,2.876551767905256,5.399636339788812,0.3972931887187721,0.2212313937420796
13.326754956,-2.635524385372125,-0.9218785562220563,2.9947761864703204,5.606927459549056,0.4184457027277366,0.22404706945595884
13.426835134,-2.3887699235598645,-1.1709162448306638,2.9987237286717887,5.76782158215855,0.4365302087769235,0.21920665738864678
13.526820078,-2.031032995836915,-1.1672157380748625,3.1377844812763427,6.06445309901255,0.4540122466972498,0.22038889346367743
13.626747462,-1.7096367525514427,-1.3712581737871987,3.1550031445473197,6.218396452479275,0.44779112114691433,0.2181094206207147
13.726739087,-1.4230162029216307,-1.2868049153714183,3.0953001563944005,6.491902472618464,0.4347085867682316,0.20449891655504926
13.8267524,-1.1347601716723321,-1.2448012214341202,3.1093724853792013,6.753198038888096,0.4281701107068854,0.19577277941786778
13.926758996,-0.8747123434508227,-1.029616326717514,3.1413633238681213,6.921505986749976,0.4136342352104419,0.18707769483772488
14.026754646,-0.6714652455098732,-0.8749665467727132,3.183185292679631,7.143363220337728,0.37867107140671075,0.1794052786999177
14.126755516,-0.44946374092493857,-0.5578284484980819,3.172496818127793,7.347044496000509,0.3877998998870066,0.16249621070092315
14.226748484,-0.3235264687803232,-0.32027801123615723,3.221426529053381,7.512955237413504,0.4250793890454419,0.07694477584783876
14.326756086,-0.1864479890304249,-0.05826143953801079,3.300462958868393,7.594967892857248,0.42727324898248553,-0.03428080536802563
14.426747024,-0.1320310648526475,0.3675197189910899,3.406640703847925,7.463409858196791,0.4003568768122719,-0.10926815972592564
14.52676043,-0.04114251416826126,0.593931081347504,3.445354927941442,7.3222110083043,0.3734690307096969,-0.15741118214827296
14.62675536,0.20931238577322464,0.9513696271368651,3.4637920432804075,7.11065764922771,0.3396776804766251,-0.18023696510856715
14.726793105,0.465615671853207,1.148362867613253,3.380235761647041,6.990373117921444,0.3455085910277057,-0.18499846846233298
14.826746599,0.6957015190713878,1.384534327165415,3.397566160301769,6.748252027159302,0.36788972188810376,-0.19222846622409065
14.92674386,1.06062222455242,1.4210357081887137,3.365880631873924,6.436785353796818,0.3780710343707037,-0.19466724969722213
15.02675577,1.3581030204377906,1.5243655030392285,3.2907854020896727,6.362578916572872,0.3761549118033595,-0.18953028698116742
15.126759098,1.7194979909976638,1.4531415109400176,3.343595920670249,6.037922369304952,0.3759904301424503,-0.1951702889794648
15.226763197,2.0158726915234455,1.377902783733094,3.290519620552832,5.836720043358584,0.37934638642929736,-0.1938036584697657
15.326760365,2.345185601590799,1.2988073462006888,3.259852847511139,5.658017303694455,0.3587364554035066,-0.18653051431041892
15.426750591,2.568201652813258,1.004345321880422,3.2856956717380776,5.487936864503035,0.35341183581977287,-0.18648297755279433
15.526761609,2.728319879932999,0.7594735299986579,3.1148323197429373,5.195395308966452,0.35076952437215214,-0.20369509763053714
15.626798333,2.8133904020572755,0.4437287265522645,3.160703278145471,5.004140681489177,0.33592303724472916,-0.21128842758466077
15.726733804,2.9305464001091486,0.18356144376623235,3.197495929710459,4.731414578643983,0.3484029808581123,-0.2119243125698773
15.826760082,3.020180253038044,-0.21295906566509182,3.168838019785098,4.537211191129382,0.37098630512061825,-0.2141720394145444
15.926755026,2.851186103611278,-0.4461090156745533,3.168667799044134,4.33856685450875,0.3727286263909647,-0.21479094692433096
16.026747726,2.6952191737427307,-0.7460553286872149,3.1067564224364066,4.037298593405684,0.3841526558223126,-0.21185653624062006
16.126754819,2.5743823857206887,-0.9270707238803862,3.1871006054386326,3.87359699429085,0.40408099398751535,-0.2161539973118897
16.226767913,2.2427211220312233,-1.2208327334713012,3.116610544629122,3.5995685125236543,0.40286510163255523,-0.21107488152042553
16.326748941,1.982567112555041,-1.2485290392672708,3.1344334225372887,3.4891048725037144,0.40133773722500277,-0.21326319197242985
16.426755015,1.7021945011836896,-1.3752735140047934,3.205542497448399,3.216987234024118,0.4039837162569462,-0.21367723393571136
