time (sec),x position (m),y position (m),forward velocity (m/s),"heading angle (rad), from x-axis, positive is CCW",throttle (unitless; -1 to 1),steering angle (unitless; -1 to 1)
1.024917349,1.0320231070783594,0.8871144686646774,2.6525991274129477,-0.09179173175776865,0.4873377567003114,-0.24839508968399873
1.124914719,1.3404841305048338,0.8757200175928778,2.770609263739644,-0.32331862600038697,0.44517993126517874,-0.2369352443137456
1.224924049,1.5928600428821016,0.782089017790231,2.7755013894900964,-0.5031383582365897,0.38829000155753757,-0.21449901641881317
1.324979998,1.8388914297388446,0.5324500377373161,2.832483585180218,-0.7361746033823999,0.3481333604468684,-0.2181464658121069
1.424914861,1.9502614278597799,0.3655634639927434,2.8501607585534856,-0.9673945899125669,0.31820888288238747,-0.23491133654323465
1.5249135310000002,2.070254419665537,0.12417978142549076,2.7395688277357753,-1.2314833540796684,0.2916780506445651,-0.23643661481428133
1.6249184040000002,2.2005754955204258,-0.13377432596323272,2.7924819794443363,-1.4059331116391072,0.2910000418301033,-0.23674144647719844
1.7249161480000001,2.112148001629371,-0.5016237189054408,2.718871427283105,-1.6132066205834008,0.2897671332618845,-0.24812030212998762
1.8249148160000002,2.0902227052668705,-0.6569203440797143,2.641292494050893,-1.8942761630885743,0.285436427956887,-0.24848910063263932
1.92491748,1.9188551962924654,-0.9265305399646346,2.608719114553387,-2.152291077411878,0.29883431629730317,-0.2508267320529497
2.024917729,1.8269104973972161,-1.1464219374152258,2.641694446525524,-2.373244870929794,0.32276815722943103,-0.25979843168928035
2.124916045,1.5534755700535126,-1.3716622567867807,2.7023101689759748,-2.6023758904850856,0.3189097525177068,-0.2632415034933234
2.224920549,1.4223736988038047,-1.3788817906917934,2.674521629975206,-2.9193033340559063,0.3260433339201635,-0.2590722417874977
2.324933097,1.112029287240517,-1.339165412136238,2.690453845154921,-3.0896949997633425,0.3627768589944755,-0.2753669103711372
2.424914935,0.8085887157416886,-1.3835124300295283,2.642810266247165,-3.3296296426384213,0.35817922107815403,-0.2617549198464065
2.524915966,0.556483741949168,-1.3390203038155863,2.69264869082997,-3.5544085428839183,0.3761408925334351,-0.2553696653213153
2.624919081,0.33172939620204944,-1.1452792369059548,2.7262080469408785,-3.845546610739982,0.40544423583564226,-0.25140671398815506
2.724926552,0.12963821482454174,-1.007142856750258,2.744641814208636,-3.9629971130740445,0.3952264372973602,-0.24324257162252216
2.824922166,0.11219888107057607,-0.7403441093124714,2.8340069949539566,-4.231468969095671,0.4115228021691591,-0.18816116437854982
2.924916318,-0.018970550377738038,-0.46643012352456836,2.967454055954588,-4.339473970938365,0.3926624840642605,-0.08358435948660468
3.024930914,-0.20669250017648227,-0.17064021047467962,2.9849318870553523,-4.389136969302843,0.3482027920759897,0.030293159540544377
3.124918263,-0.31620022641174056,0.11742539030300592,3.214705977713197,-4.18633384552817,0.2911803854600845,0.10370038221634365
3.224992035,-0.4238647287760249,0.35345728172743646,3.174018428854133,-4.13549733786705,0.2794727011604127,0.17085892503875352
3.32491431,-0.6629971259419649,0.6032827952828389,3.0733106548222016,-4.105582298398268,0.2431805763357729,0.20234172439993547
3.424935166,-0.8868923073960117,0.8426822370547181,3.0717899078135487,-3.8727823425876418,0.2369358541073017,0.22686652998520315
3.524918243,-1.018027831537219,1.0363739847408049,2.913206842400418,-3.5559584880898982,0.2792271188237591,0.2400332759232244
3.6249169290000003,-1.348779381930687,1.1091280093087348,2.891322452714956,-3.321615322860193,0.27357629242223075,0.2526026618905284
3.72491675,-1.4703114495003582,1.1723335417956373,2.76122637874586,-3.1347526638297687,0.3065100662566115,0.23677100120127823
3.824920936,-1.9741701967014254,1.1849830738047225,2.7700139724010486,-2.9223854859831833,0.3243551935534359,0.23702337572660526
3.924918072,-2.0906706362285528,1.0573812899055026,2.8387196051382753,-2.6644696701161497,0.33188551200050453,0.24537739218762744
4.024917056,-2.4334894185299034,0.9227890037475338,2.744608302330927,-2.4949857351258062,0.33160850282674503,0.2419413287374051
4.124917825,-2.566236885677607,0.7245121535517819,2.761113198738446,-2.237492556375879,0.35368768216818675,0.24368894564652696
4.224918912,-2.6696732282790054,0.549506258001184,2.834531353942222,-2.014158122117716,0.33912024862258744,0.2478443998676615
4.324916964,-2.8311142218909287,0.22892628348881927,2.7947973026638957,-1.773680083496469,0.3455637572205622,0.2639173240861026
4.424918809,-2.881798367055365,-0.0555276517963109,2.784162449838112,-1.5343596353595759,0.35561604860359985,0.2510330470077337
4.524915937,-2.8711169032107886,-0.38176706258956783,2.759678373840149,-1.324339267025243,0.3669666473367048,0.2568951376959205
4.62491435,-2.7685575121130124,-0.6283903060604994,2.8343465643451204,-1.1147703852608006,0.36501538930941924,0.25372798811791303
4.72491831,-2.658476646680961,-0.8561595609806913,2.8093116934916154,-0.820879517044169,0.3652248588360618,0.2498707148641046
4.824917597,-2.345077152410298,-1.0511978705020848,2.849535240788307,-0.6442629824061794,0.3782166766569954,0.25244509209652044
4.924916886,-2.1295991635023497,-1.2530164889569488,2.8304024191265804,-0.4569582198329745,0.3594762632403069,0.25367822123245604
5.024918613,-1.8738788420724317,-1.2397877645375763,2.879532925537298,-0.2801009495242313,0.39722802027001664,0.2571697578965943
5.124918327,-1.5928880074435068,-1.3108089464371868,2.8832263629718047,-0.04153183018982418,0.3516727889095313,0.25060880776485084
5.224916149,-1.3104326020969141,-1.3036344591712798,2.879418230901735,0.2825074287788128,0.341720476867827,0.26453395946098945
5.324941029,-1.0948389136505479,-1.1536382609655738,2.9214253537215527,0.4897790680752613,0.3733371034214187,0.25852123505337365
5.4249200890000004,-0.8004325438182665,-1.043083556619058,2.855222980666943,0.7193223817279142,0.355871022236049,0.2457779803751957
5.524916447,-0.6198383687651718,-0.8512113859637459,2.840297387580661,0.9728138548751681,0.35480541485199985,0.2541659834866381
5.624919987,-0.4947644515216188,-0.5715069354854961,2.88999875937455,1.161178282919418,0.38185043440046923,0.23142553576801705
5.724967201,-0.32725807037467264,-0.3235772683976392,2.9165141435034827,1.240024108679526,0.39148278667368885,0.06311928110452682
5.824931319,-0.21832629733742953,-0.004363576813969705,3.0636538749918323,1.243409688622276,0.3900143947693368,-0.1074822621921315
5.924916071,-0.08685884822366391,0.22617662344578257,3.0731664500921774,1.1778556715074717,0.36788691578205,-0.1572446660682719
6.02497046,-0.06093056016168143,0.5656244819361691,3.1051633898862145,0.9289700225786501,0.3138925979158502,-0.17826511040855839
6.124927307,0.23467310407276792,0.7946617945526643,3.043308836476342,0.7508594946515346,0.30430601916183014,-0.24212150285383852
6.224916148,0.4538356186964819,0.9402364430974921,2.9680564385610433,0.5224690022532368,0.3247215336464406,-0.23050310537526392
6.324994082,0.6981717603669007,1.0261303176189096,2.9716525646107197,0.3349025795301599,0.3536057403701455,-0.22086457747552202
6.424935529,1.0352705488960023,1.2176429122364476,2.908390991049556,0.06526742768050531,0.34771318544204377,-0.21018331558763892
6.524943506,1.3080537232653053,1.0598818333030169,2.915860188813159,-0.13499978682777913,0.3490871511460898,-0.20456915275876902
6.624916937,1.5837020303558256,1.0073972112782192,2.8544784925041706,-0.4203108557524483,0.3391603930793913,-0.2194747025831101
6.724919079,1.85837437931485,0.8648894751786538,2.8710544247099525,-0.5719569904385807,0.32664832786767045,-0.19257371933537754
6.824917114,2.069234112456435,0.6915276714594362,2.8569322020445838,-0.8181490296921069,0.31579436361970403,-0.22784210716089404
6.924915578,2.1869865474303167,0.47652468166752343,2.833410174222974,-1.0210616776421486,0.2935692696734946,-0.23776572416405123
7.024919295,2.3332003525957012,0.18403937234681073,2.8139659013115064,-1.2585899492243668,0.2872971519813604,-0.23983573598089888
7.124916832,2.366040573520213,0.04593705061620208,2.821334658671077,-1.5803273169450913,0.316053710964714,-0.23465234029907964
7.224921674,2.4228972807291367,-0.41183591114553864,2.688564689777844,-1.717756238027543,0.3053651151295678,-0.23345261993138622
7.324918744,2.2494880193034366,-0.6282484307996768,2.7117433285946397,-2.0127927691085077,0.30445679794015273,-0.23976590668257858
7.424917647,2.229650119719857,-0.8635700424075434,2.694405277956601,-2.216798684024767,0.3226470562444404,-0.23085467042431138
7.524932046,2.018442763228295,-1.0589113322793393,2.692559860369422,-2.4568295788799386,0.3284062441211778,-0.24014444911962834
7.624999731,1.7610123599733971,-1.2052833032397652,2.724509871842565,-2.5917367175273136,0.3224421287384978,-0.2460504965986867
7.725001806,1.5360022690479254,-1.2865029903505647,2.7332064417434037,-2.873378474927522,0.3278126026077346,-0.24318262921022352
7.824921663,1.2253370227747162,-1.2955332290162949,2.789507201784895,-3.1444450233410257,0.3589574696835272,-0.2479671194107379
7.924914345,0.9973525877891575,-1.339099729341926,2.722532521678051,-3.393535191456746,0.3371511640005944,-0.2529899672862373
8.024929342,0.6833066397707862,-1.186893408353184,2.7430297925570177,-3.571882695890403,0.3498924911717244,-0.2399023821785007
8.124962443,0.49020999249854497,-1.051431100964624,2.742174357817597,-3.856454743614444,0.37073632832232084,-0.23528198376661327
8.224917149,0.24959094614598706,-0.8098226289902861,2.825872229029215,-4.11023584454388,0.3721313380913069,-0.23469355162682126
8.324914697,0.09016755159568156,-0.6276070732173219,2.8354880680374497,-4.2705329302319655,0.38803994207562803,-0.1765830801676188
8.424982140000001,0.023616482164380753,-0.35786686185582833,2.9142982191285105,-4.406878016174602,0.3786426828406941,-0.0791791698351727
8.524917377,-0.07052201695386107,-0.0819982665898529,3.079794672509523,-4.4339311617573305,0.35066708760401455,0.03565593087997876
8.624937905,-0.19303383175452493,0.23149502761285093,3.102494202356324,-4.393669774389677,0.28782235375031423,0.11374568948653714
8.72491647,-0.3200931182140881,0.5387870314346177,3.0826488658436,-4.18715392944997,0.2802268936137723,0.16641483944240298
8.824921585,-0.44359284314479397,0.7681770934907394,3.096278050706746,-4.0340729458173525,0.2591720945718758,0.21000433821804543
8.924928761,-0.6781354698360974,0.98554067061677,3.1288715380603405,-3.7732936207136563,0.2544274493140445,0.22967408824019958
9.024915325,-0.8779096880924679,1.16038161819914,2.970736603390307,-3.6051115157782214,0.27163572948050874,0.23252522057115366
9.12493167,-1.2580360330236728,1.1909443331442133,2.862630729444896,-3.367847124448431,0.31136732723201144,0.2266302892221428
9.224916253,-1.5008480315955552,1.2507040892036758,2.799107272473037,-3.076014236619667,0.32535567159899287,0.22779282161383216
9.324918253,-1.6820276407053245,1.244493569788512,2.8322744042901133,-2.8597464508668256,0.33247906720270437,0.23279027563388963
9.424918793,-1.9707091880150713,1.1449142008884088,2.8770289550291555,-2.6733570691485093,0.3419432335435692,0.24594119085113664
9.524917555,-2.1761862547322313,0.9475436002506764,2.8884189802176263,-2.47520181624608,0.33673935847873726,0.24541581740084942
9.624933491,-2.5251303484745433,0.8053336707733916,2.8098038077347645,-2.261994585499024,0.3415590499573924,0.24047884501907174
9.724918224,-2.6295483059295393,0.5333616497933681,2.7777377728975448,-2.035523891559783,0.3568733321526039,0.2531990240476148
9.824929916,-2.742875575742603,0.37413649732123866,2.8662516306360573,-1.8388466592089452,0.3436224398076175,0.25360418615267877
9.924916296,-2.8378370348759545,0.03728395508451984,2.8304877627960225,-1.6041612881508844,0.3446320339626783,0.2568657833252315
10.024924494,-2.685844005987823,-0.2413146593553283,2.8544238053931044,-1.342757767353286,0.36311164528049156,0.2685116217540612
10.124917372,-2.7333915033886953,-0.5665580737550849,2.798301129950845,-1.0879373020320704,0.3611862046074207,0.2571543220122133
10.224916708,-2.5662103795143287,-0.7449160868838154,2.7439734958125164,-0.891823562080915,0.36567136133371353,0.2496555481957439
10.324915725,-2.384801272090054,-0.9900998764046856,2.7309770433940694,-0.7113534188518454,0.3650159421217603,0.2443001009703307
10.424915727,-2.1172714098563477,-1.1168265929760621,2.813112294525745,-0.4289501685200785,0.3597616103086888,0.25618716445729334
10.524913852000001,-1.838151355103241,-1.2352906347744264,2.8744748179604263,-0.299973767927064,0.34947673050813444,0.2571722313444273
10.624914799,-1.635851795462972,-1.2270364911456182,2.811985245269151,0.0022030836844649255,0.3557562557660244,0.2620515553033917
10.724914669,-1.2341124075113223,-1.2814980333505324,2.8408518740180067,0.24959089033601817,0.35756095871521487,0.26254338748693684
10.824985513,-0.959589410109863,-1.1728529958389342,2.823977742709492,0.5075068867639345,0.3541907811157556,0.2506316597194722
10.924933867,-0.7915950737984524,-0.988143948719611,2.7873879560981045,0.7097376647917051,0.36406271069768353,0.25210185485928427
11.024921882,-0.5561112954464199,-0.7831435259974812,2.8153756193782113,0.9580794085034751,0.36457580774860926,0.2547423348583795
11.124916839,-0.34714782144120115,-0.49669441511833246,2.8481787244163193,1.1488859759776247,0.3859542845162456,0.16062639850429902
11.22491949,-0.3067800287151818,-0.21824988248032418,2.887658828147407,1.2414232500799343,0.3952719281504532,0.025643729593603767
11.3249168,-0.13765300317356902,-0.0004359121676696179,3.019545462528554,1.1609184812306097,0.3804288128741326,-0.06908142341536808
11.424916364,-0.03029887019900775,0.3245925203287552,3.15981072280717,1.0936039926465255,0.32139515747696995,-0.13407428856683581
11.524914981,0.08398854315827335,0.6135471547430137,3.0547934973856927,0.9402623299439555,0.30505072211394224,-0.18319423088957004
11.624918415,0.26898765571855265,0.6968922937748131,3.0687404986010756,0.6519611207244865,0.3131583817825024,-0.2023360692556824
11.724924906,0.5474153693301813,0.9203505816389794,3.016788668814398,0.5243235895723801,0.3021408533895112,-0.20374497636507044
11.82491535,0.8391923993738292,1.015428710002633,2.9555231879733874,0.35429755313456646,0.31592290270723455,-0.1999960025619063
11.924919417,1.1822596535278593,1.1059870707877126,2.9270445702876313,0.03614968666927966,0.32141020837306383,-0.20580656709781614
12.024915984,1.4225911666306765,1.0300670543407349,2.860806867731395,-0.2016871288242302,0.32190336938610953,-0.20646673371327817
12.124914848,1.7228562794548836,0.9821664670751357,2.9370268682168867,-0.42542783563316827,0.31382568173036196,-0.20488139979334719
12.22491933,1.9736193105750144,0.8421957978105847,2.8334426968824573,-0.4977357826382556,0.31105775914219136,-0.21345161635818238
12.324980002,2.2092335055061043,0.6288661613562865,2.9042797266427223,-0.8814273353370365,0.30442278853369265,-0.22180261970132545
12.424917399,2.364575434412688,0.4447488727408821,2.869304420493412,-1.1007505056629343,0.29782727865281644,-0.2221951966314699
12.524919251,2.4887379016949613,0.1073436934128931,2.8282471390725754,-1.327786432671809,0.30947127873700553,-0.2145887224096158
12.624915566,2.4786245021924165,-0.19611633425932684,2.8041057602849633,-1.5739507559958303,0.31162985533198073,-0.22507336641971384
12.7249138,2.441358174418547,-0.4151254594197077,2.7403086685494977,-1.7759758227443967,0.30010731997465656,-0.22051312474396242
12.824917581,2.3777490487406294,-0.7013929736046967,2.660597189571946,-2.013561999686923,0.31149032354757344,-0.22297223139585068
12.924925948,2.1832311105873896,-0.949814594084888,2.7669887038874763,-2.1849060652213788,0.323920010236728,-0.22934237733404242
13.024919261,2.0707318767899285,-1.078069614527611,2.75751126707068,-2.3657123784744205,0.31771563799415264,-0.2261655878257121
13.124913136,1.7990711434305722,-1.2479085045305485,2.7723262978941317,-2.691609234048129,0.3593604670751333,-0.24545740696545745
13.224915467,1.5733181497573008,-1.3489242221915172,2.6972525193044903,-2.9069936311199776,0.33395261458856607,-0.2361639554417131
13.32491589,1.2153818214591383,-1.3761734535182442,2.7492497660671393,-3.152335153659965,0.3363353578840692,-0.2303543078768829
13.424918419,1.0038288494990175,-1.3753167794836292,2.8262929848063965,-3.3299532103748035,0.36600499029791544,-0.23398588016314414
13.524942946,0.7172477696521667,-1.2471046613739423,2.7399316270135103,-3.5926328240693364,0.3491717009369013,-0.2393557317975384
13.624917994,0.5472681678693242,-1.0488082767308922,2.7590042640086807,-3.7685385506188998,0.359656809029921,-0.23581513300953422
13.72493947,0.3844049880909834,-0.8701379264187432,2.746740767472657,-4.144523954360154,0.3920483227397067,-0.23151538273068822
13.824922355,0.26595508826036407,-0.6589021789036114,2.663811196101434,-4.243642649078234,0.3808146160950868,-0.18386076917286484
13.924946156,0.13195125546169378,-0.385244654133705,2.923390674569174,-4.504547170487997,0.3741103685533364,-0.07683470894630463
14.024932212,0.0928491990118457,-0.11309870263357481,3.054767128004138,-4.445113062629068,0.37456203003831956,0.05664028350502119
14.125015812000001,-0.017922258748142912,0.2736163986440952,3.0948960577480036,-4.323027444602266,0.3055046110131754,0.13248394888410092
14.22492534,-0.26674309183471123,0.5298675193899448,3.138403672669046,-4.198180741445912,0.27055172884463974,0.18284255857904608
14.324918601,-0.4586917516495231,0.7192609424660045,3.0926641601964393,-4.03337608579252,0.2618381869557882,0.21642162377675347
14.424927704,-0.6320283501564714,1.0094773706136961,2.9857234468785863,-3.817661625294094,0.2731372800336236,0.23370835358342645
14.524914539000001,-0.8839861701230713,1.0989141195810055,2.9097019488273745,-3.580495134786844,0.2775931164296104,0.23265984110667345
14.624921239,-1.0731589295034154,1.1883784325945117,2.85365179432884,-3.4286270945317976,0.3417071574770682,0.23761876610441648
14.725005778,-1.447478449926895,1.3071778247438939,2.843493527687581,-3.200828971731355,0.3325469791565705,0.23323905285030047
14.824913556,-1.674693639404813,1.304228789521102,2.873327775849907,-2.935045948671388,0.33393403125044707,0.2381386563196724
14.924928948,-1.9798859859998854,1.2023489198901225,2.8565667597689965,-2.659702010613916,0.33990051052992976,0.23813558355188247
15.024918107,-2.235636857555015,0.9873913213680682,2.769345923839361,-2.3512401456894265,0.33713143164869763,0.24469297515926086
15.12492808,-2.4038339868801057,0.8605404208587135,2.851753223305644,-2.2408286364709484,0.33747747112503185,0.23905140005467584
15.22493587,-2.51341648601096,0.6408513720822827,2.8092106559268886,-2.0112462382186314,0.34103900383103625,0.2457019701274467
15.324916396,-2.6366277193253063,0.2811599264515969,2.891831323623758,-1.7614763154390356,0.3460980382439588,0.2536770610132279
15.424914446,-2.6393213941312497,-0.014078183551921829,2.850408590843237,-1.6238534606564605,0.32697422586185576,0.2531306249686788
15.524918769,-2.5902727762013797,-0.24024284334778287,2.8051004744918324,-1.3100064064745722,0.3364654844683473,0.25559033391730623
15.624930468,-2.6209400176119124,-0.5278340811536124,2.7465165521116597,-1.1490728214973986,0.3544974053108828,0.25676061063369277
15.724913761,-2.3884681213498165,-0.7633614076842055,2.8316305051662343,-0.9381398063935726,0.3494796395649511,0.2513916094054698
15.824914842,-2.2694579479314605,-1.0295547831952545,2.7648122038519416,-0.70190138980805,0.35399198703822254,0.24868646574601375
15.924917006,-2.0264751801120857,-1.1556769309802848,2.8791384342137647,-0.47060729338450624,0.36746384946573835,0.256583969786385
16.024916491,-1.7894319263407579,-1.171870054043199,2.768228951095395,-0.19026606180716735,0.3459693099489819,0.2541665336560464
16.124920428,-1.480388784305927,-1.3102487672811387,2.8549901709725822,-0.05733488075538838,0.34536290907682876,0.2609456720571447
16.225020798,-1.2148132730008412,-1.1871229084399002,2.859386491358484,0.2399891734002821,0.3598067883835753,0.26394217754527804
