time (sec),x position (m),y position (m),forward velocity (m/s),"heading angle (rad), from x-axis, positive is CCW",throttle (unitless; -1 to 1),steering angle (unitless; -1 to 1)
1.033261097,1.6942013162199174,1.395787882414255,3.0599537065961555,-0.14861726579766066,0.3916685369884172,-0.18499501234944188
1.133225299,1.9392471298121954,1.3809712542016903,2.920316965621487,-0.2849741004067279,0.3719790627937864,-0.1935420836891338
1.233238594,2.2238462850354788,1.2137888817353626,2.95686463956233,-0.6055795895269477,0.3466001656988908,-0.19863572089374212
1.333294903,2.4380414983645027,1.026956099801202,2.9415591685265263,-0.8263674130408457,0.3563661901431086,-0.204371856412829
1.433275439,2.6354910929948367,0.8001023220860717,2.8733026033876787,-1.0581574029761942,0.36271499093408466,-0.21257355319067797
1.533309521,2.695498012281768,0.5105964710906723,2.7867687750434826,-1.2597789894390936,0.3673249019895845,-0.218377268090628
1.633217899,2.8646231352584874,0.36378001450352926,2.7399669726814513,-1.5458782302499985,0.3912362228131457,-0.21823104419757322
1.73322211,2.8479668028542946,0.03663912967715925,2.7601935965044277,-1.721764931000853,0.4136063482813957,-0.22109872426565202
1.833226948,2.741103566503331,-0.2233423984460834,2.8203059940819593,-1.8813929714730908,0.41466080983456144,-0.2188417186574624
1.933226762,2.6021188240997035,-0.5572116074878496,2.8132725095785434,-2.190576744966262,0.4662981773891273,-0.22299314390634734
2.033226877,2.367248580340106,-0.7572940737875867,2.8827634794424326,-2.417607814524204,0.45725807845198446,-0.21918030199331126
2.133292672,2.1016936257545398,-1.02262537178732,2.9188660569406104,-2.706919589572845,0.43059670462850647,-0.21226900267223933
2.233278005,1.9469497804159748,-1.0535380647079142,2.8886006177369166,-2.9497706719285763,0.4180521669795067,-0.20202626539682286
2.333280183,1.5907548518460972,-1.056113982325454,2.9214376009127836,-3.097452581326387,0.4161206785705536,-0.20819845262246392
2.433267355,1.3383065182920246,-1.03473418077283,2.935779858159354,-3.314318108349834,0.38556220318008,-0.2028550379710207
2.533223035,1.0288212567407984,-0.9322406792642803,2.861442518774063,-3.6688587943213564,0.3763366978732923,-0.19898215532994448
2.633221554,0.7509594921251673,-0.8274802977608217,2.8581599287353883,-3.8006307417496337,0.373695028768197,-0.20585502492926414
2.733227593,0.5944365828621163,-0.6731447984454344,2.839209871604483,-3.971738621022045,0.35717774743083625,-0.20733673278506667
2.833221389,0.38497078883773694,-0.4159902063291698,2.852886401338622,-4.2219310572580975,0.4058990358055118,-0.22110041005387565
2.933271391,0.3015309776993084,-0.07307443428414409,3.021115141216305,-4.296744530647573,0.47595732629101883,-0.06275621841567687
3.033267031,0.25576951795148556,0.16699667101031182,3.196002231846329,-4.374783216065955,0.44593091039007615,0.04248798777131684
3.133229169,0.11759475666635302,0.5415219432635575,3.1911804674734956,-4.316132786271656,0.38554323998740264,0.10722768817067319
3.233226533,-0.06801493440281534,0.6926393140028501,3.249575029531991,-4.149083368659504,0.3578462538083739,0.1532298354585951
3.333229224,-0.3196697416490285,1.0177271153276903,3.28421772588398,-4.012357304074297,0.3081968219680904,0.17833814915182594
3.43327649,-0.5044308710957307,1.1881036998350036,3.21204213844767,-3.7586921355481824,0.3138949220750352,0.19906703240710694
3.533272782,-0.8126891343701512,1.3804044859389077,3.2174456809603624,-3.520022766334812,0.32871753565007034,0.2108541403529911
3.633226272,-0.9954716961821682,1.432436520684877,3.1357851370930447,-3.318836150061178,0.3604274529279794,0.20638889891793083
3.733276452,-1.4821007783119085,1.5316424707765495,3.16542276288295,-3.0272164884485924,0.40529108457473323,0.19188805790941788
3.833323075,-1.713347519165907,1.4426359816259804,3.1016180650293883,-2.7861649313078476,0.43773098091101503,0.1931205111133486
3.933269566,-1.9784046848000287,1.2994297790993021,3.011853421432205,-2.6012750714429105,0.1776810729479052,0.22436500125021464
4.033254179,-2.222310766337739,1.1935523651697575,2.9207980279936048,-2.3822210164197206,0.32807733163852837,0.21040414219879214
4.133228704,-2.409638707389349,0.9968535806647616,3.056165527623529,-2.1627306131849915,0.5230486969051201,0.17098525840346013
4.233226592,-2.6721055708392076,0.693180146698485,3.1278943140972237,-1.9699486656032548,0.4156791423354101,0.17147396141658536
4.33322744,-2.6747326730442227,0.33322283843373485,3.0424264738451408,-1.7761583963038914,0.3562185080186862,0.17407746137729418
4.433223612,-2.66525647091787,-0.00268951776941969,3.1304622388280285,-1.5482508392492094,0.33824899442667355,0.18945259484059435
4.533275036,-2.659391078671747,-0.29195792361347855,3.045007457044685,-1.3112846790008312,0.27656701959116986,0.19741112578401077
4.63322548,-2.6445404271740345,-0.5547479449285446,2.859819911388568,-1.1478624784561573,0.2575433813311439,0.2066885758529275
4.733283729,-2.4759255777966724,-0.7335994814450408,2.8835852028046887,-0.856531409004491,0.27189964941127315,0.21532920642206824
4.833282797,-2.280669775996759,-1.0237991501813446,2.7443273829728594,-0.675012574999445,0.2893487419825716,0.2202543269073024
4.933226306,-2.016612612973662,-1.1115970940386126,2.7847834323976257,-0.3984086166440854,0.34065185382554025,0.22228395839582565
5.033289311,-1.739266232734794,-1.277615813072707,2.78349394582376,-0.12361317596963066,0.38155438565774247,0.23689532388007428
5.133223873,-1.4201246423250884,-1.2526802801616468,2.8291361328155866,0.10514204364887132,0.4156502928304039,0.2319384679987675
5.233236791,-1.226171650812251,-1.1902819486464613,2.9369298381677407,0.3440548223906319,0.4227760793034183,0.22137435815818343
5.33322541,-0.9425506805952346,-1.0156661876944586,2.9198400709559498,0.4666940921159434,0.43711717426981656,0.21180032585783543
5.433290391,-0.6247934762467819,-0.9176668334256681,3.042741338645665,0.7387754827702387,0.4433623985901197,0.20888974850701106
5.533255571,-0.4520493044519073,-0.5642595825937315,3.0445033550416203,0.9645161521475487,0.40903687236681435,0.20563817517337402
5.633267174,-0.30118017365660693,-0.32476428055054024,3.1093025376513697,1.2472120942574172,0.4297421075667641,0.11679238536389638
5.733290055,-0.2358340973391134,-0.07050011205265491,3.227063008273489,1.2836892940641316,0.5054626399407073,-0.018061602741162797
5.833225261,-0.1413000254049261,0.197770029605556,3.378478862850208,1.1641645388842339,0.44655123198183033,-0.10073047993259568
5.933223835,0.040501007717787,0.48426154488325807,3.358783337448417,1.0330785704294156,0.3910263144334432,-0.1438025912317921
6.03322775,0.194733660254341,0.8358225014462987,3.3259877181754556,0.9064236430328552,0.37668626289937246,-0.15468468903892127
6.133222574,0.45368192529590223,1.1096725787427877,3.3779574445432488,0.6726119366438228,0.38239529616471196,-0.16333850472639916
6.233222186,0.7028851683859755,1.1878998821390567,3.2406134463658067,0.4327070200624978,0.3794159645375367,-0.16040832309817682
6.333225727,0.945581700744411,1.3223383737506895,3.1708943978128508,0.29572021574096996,0.3926775196051003,-0.15597193036551538
6.433279341,1.336449680071352,1.4181765717340147,3.1003866431271203,-0.002333634989617757,0.36427642461227827,-0.16604479987526619
6.533276443,1.596728344206698,1.4282908220474675,3.102954211230794,-0.14264518786933722,0.34505756328553083,-0.17095732812391978
6.63327751,1.8613083659681386,1.3428237512004968,3.065853899615623,-0.37909909032650063,0.34477089595628146,-0.18199145499660632
6.733328954,2.207619448905962,1.1929484382282676,3.057447984104941,-0.5893411127888669,0.3406118882333535,-0.19123751229043165
6.833226002,2.4346408812288978,1.0018194663733642,2.9449419970870303,-0.7859441811402037,0.34029650428300456,-0.19582678742333356
6.933224732,2.6239492580234636,0.8018722959705037,2.949706901679898,-1.0237338769237392,0.36436885093579513,-0.19996116056663396
7.033214105,2.7203895696005276,0.46841703854466304,2.871482211593751,-1.3015134025275743,0.36442688948611107,-0.2123529843531728
7.133285493,2.782035280413316,0.30731584927700906,2.767107858672316,-1.5172260197443246,0.3733121875343172,-0.21570682550436787
7.233225566,2.845587277149029,-0.06111357870198929,2.8231574063974,-1.6465961751559526,0.40278623819148346,-0.2148679726152225
7.333222602,2.6823564020031214,-0.3114332122550355,2.8383243004336864,-1.8868713568721902,0.4105132635624163,-0.21956739506892387
7.433266586,2.552035253452468,-0.5574149440221393,2.856859957071177,-2.145238747515854,0.4168368906814665,-0.22110482207115909
7.533279497,2.3746219593943327,-0.8222363888018598,2.8460421303024455,-2.4025609584476015,0.4310191752943493,-0.2073909100701122
7.63324196,2.1244178990871245,-0.8442629215762657,2.863530999675218,-2.649688514778757,0.42598528945865577,-0.21249038258354655
7.7333045160000005,1.8761091026098835,-1.079490032167961,2.8978621626539054,-2.8271481696799223,0.4122693957865803,-0.21094225848167536
7.833256061,1.553933759791771,-1.0987449467867278,2.858847055753282,-3.074537593411282,0.41141854362649866,-0.20777770981151222
7.933255938,1.2565769674258656,-1.0314465187369184,2.8048505956233156,-3.328970641971517,0.4140544527044378,-0.20269317641463447
8.033272854,1.014448329934867,-0.9516252073450345,2.802026426576964,-3.627205456748238,0.37976760144872185,-0.19987371961902337
8.133231046,0.7948067348594341,-0.7960789376303006,2.782764191237974,-3.790311453763616,0.37276179720980535,-0.2006023725884635
8.233250108,0.6090983125246132,-0.6568803295468445,2.7585780609475696,-3.9924087219435065,0.38432369920360504,-0.21038362261518614
8.333221625,0.45602281497247493,-0.35586566935157166,2.8612444168303126,-4.186465568376151,0.4204059755820937,-0.16000738162922287
8.433225206,0.2926394110331454,-0.11161866952651865,2.9483011465744275,-4.3378124991027835,0.440557341569114,-0.06657815178733661
8.53329692,0.23507574709391055,0.1311854460631426,3.1233217367694155,-4.3684083690507896,0.46741556951399305,0.0436320903739226
8.633225528,0.044744171049371784,0.459994935876585,3.2299857053192738,-4.320004280294636,0.387984544076665,0.11175356106119891
8.733280219000001,-0.07617248105748987,0.756068099971155,3.335758374342392,-4.177900729021303,0.40308742769478695,0.16115410822032128
8.833281083,-0.2702322087499825,1.054434532469073,3.3397480874784655,-4.0915492450857895,0.307177836747263,0.18874144613054686
8.933227227,-0.576042949497631,1.2059299774451422,3.2553569518423053,-3.7933134457129882,0.30084398014238156,0.22512212825903888
9.033227338,-0.744243867715453,1.3860140339719678,3.2011816593875277,-3.4067307571375594,0.3343348131367657,0.2087506898394969
9.133271582,-1.0734050120316254,1.476452393505151,3.030142281231058,-3.2184602287865194,0.4005911605189397,0.19623424908733822
9.233279122,-1.3508823502701375,1.5597329723316105,3.1366165751438126,-3.03830679025157,0.4425276107389214,0.18714906982935395
9.333224395,-1.6564993308603155,1.3801481997935945,3.14158459017888,-2.878094076864651,0.4500684783370942,0.18761542531341857
9.433285029,-1.954915364719486,1.3030992034088416,3.2695364578559953,-2.6846678516322418,0.4367198227026183,0.18680186412162703
9.533219191,-2.248798099706563,1.1534033867918525,3.231326304297232,-2.4348295633944934,0.3969269177859696,0.19027620420808877
9.633215119,-2.5292409582771596,0.8865970615307163,3.219284342795115,-2.220718276022497,0.3650443385907967,0.18645976080955795
9.733254203,-2.616222157766261,0.6241990896722767,3.12674284171845,-2.038413163194457,0.35180417421072724,0.1863622631706535
9.833250503,-2.708239984612888,0.28933608261228183,3.0742803301416335,-1.7061841984276218,0.34581055520329024,0.18227297450764504
9.933249108,-2.7487723484448594,0.05664846592158262,3.0427745503950456,-1.5689205420531336,0.3100416178536149,0.18167264908220981
10.033275119,-2.758222824396957,-0.1706855729733464,2.9694608238264903,-1.2812352809428165,0.29457728439878755,0.1857165618262379
10.133263336,-2.666654829675921,-0.5292348407414711,2.899844220771057,-1.105278798781284,0.28365727547571323,0.19599537320194335
10.233226795,-2.343847727653801,-0.7675631712065594,2.914940093993146,-0.9216538168217976,0.27676184434791845,0.20443124918005867
10.333259377,-2.2442445495258037,-0.8972637117500418,2.797700279602744,-0.5797647188712121,0.3084131128167065,0.20819056376984663
10.433250373,-2.022789504467985,-1.0912114816695473,2.7881419138481607,-0.41952555612915043,0.33504727190767675,0.2196643807177378
10.533232614,-1.7503371542125434,-1.169427692888079,2.8414937076883158,-0.17163311721764157,0.36940079672197856,0.22219287881414226
10.633219621,-1.4334496079154924,-1.186468075501992,2.8349742101348765,0.09927743636887308,0.408559623922308,0.22015957219342738
10.733222729,-1.2246273897538067,-1.1219373899559393,2.9668216248845187,0.3095919484185987,0.42257713879922615,0.22022155560404788
10.833265433,-0.8893483134713753,-1.0335128068641548,2.9746037349432926,0.5830875544057091,0.4235761742853254,0.2052586152652018
10.933225468,-0.5965618898586265,-0.8147574609073339,2.9574207218707924,0.7117470074292628,0.42775737781468637,0.20698268046846824
11.03322953,-0.4815329872821964,-0.6457861363833998,2.9937636053494705,1.045908972963388,0.4116523183145071,0.20223459744372735
11.133278489,-0.3495847172695167,-0.3313010638869225,3.0855000611678185,1.188180994029147,0.4358258318139056,0.1056493828135537
11.233251305,-0.18820503345453377,-0.11953740359749923,3.2703386494447124,1.2198678063967985,0.46511606165572295,-0.012097845783378875
11.333220196,-0.13643919135148505,0.3300638019942958,3.3128331586030746,1.1021106154294018,0.4519874540585514,-0.09285231892144012
11.433273858,0.057249922543092795,0.617209544275103,3.3481361492634116,0.9963772970919171,0.3912286508421041,-0.13013444937090257
11.5332692,0.19824472299104604,0.8167641331851611,3.4424297400540684,0.838932448921721,0.3628426486264747,-0.1549979241305278
11.633408259,0.47497680202925247,1.1302475697292607,3.2383195968983642,0.6515780619263375,0.37879637330059585,-0.1619421443545321
11.733222783,0.6826567471653209,1.2669176093074852,3.2715597910290777,0.47752272332336126,0.3692553219903998,-0.1585746131546777
11.833224426,1.0047828247058588,1.4330560370084378,3.1419293188868953,0.1772522282446152,0.37482243895008704,-0.16031220742404922
11.933279205,1.2853974452935475,1.4166253118797532,3.0963180927954617,0.02162202085376727,0.3897823478201476,-0.16372266607056743
12.033293473,1.6419902061774128,1.354893233582179,3.098359734860751,-0.15046598610966866,0.35568172750845234,-0.16961765525569286
12.133320495,2.0400996173147736,1.3534050325365798,2.971685941661133,-0.4415472419768697,0.34358198451405486,-0.1757292740907237
12.233226816,2.234249373339863,1.196198166793454,2.966236853665585,-0.5372337641391531,0.3453803855267415,-0.1862014427690868
12.333252895,2.3969795940391267,1.0070145918095426,2.9060235499627174,-0.7769792520406612,0.34388131780591696,-0.1974191957283159
12.433265798,2.573719745395554,0.7472208507629856,2.8565970598047428,-1.070831994885078,0.3519443241017445,-0.20611596301138088
12.533222078,2.7693373218869266,0.5148862040053943,2.8007935866629508,-1.2759898341373284,0.37982191925600345,-0.20911459598980808
12.633273638,2.8078462162410807,0.18921405163846744,2.859588867045681,-1.4988675173066746,0.39514410857091564,-0.21619030320865076
12.733226992,2.776768331100969,0.0028656017041381876,2.815898860958636,-1.7653734585916505,0.4022006888795233,-0.2137101004062988
12.833284218,2.713911008598185,-0.27817584991995475,2.8218347960173094,-1.9184699621479409,0.4184759158814932,-0.22144206664614632
12.93326249,2.520929935227951,-0.5169407273718887,2.8389207349798036,-2.2270670955422296,0.4294164528604765,-0.22078982510059694
13.033262007,2.411317635927917,-0.8358654553153589,2.8404689377763312,-2.477402064407388,0.42473729285765904,-0.21627489553034626
13.133270505,2.1769831975065608,-0.938778175504537,2.864906953407686,-2.613831814717999,0.4356076814207952,-0.20569733694134298
13.233222963,1.880383108215727,-1.0489537590289486,2.809764154814189,-2.9525017217358593,0.4464767206418224,-0.20425559637076499
13.333227956,1.5965839581307053,-1.1106751355948823,2.848723246972813,-3.104302673041176,0.4127194222805681,-0.1922052393080086
13.433283959,1.3585352455334132,-1.0857861229863444,2.8964106573286386,-3.4234553640930354,0.37764916344228333,-0.20025592739785938
13.533291785,1.0184078816352555,-0.9294506586464791,2.8383799541594765,-3.5746640408807027,0.3746563573366506,-0.20107781545109443
13.63326705,0.7375023015062688,-0.843769705143608,2.803424207510649,-3.8133582663375583,0.3602748629627704,-0.20080937084863457
13.733226565,0.5158898670858538,-0.6515900081952223,2.812455795718494,-4.004526320827584,0.3715830444349623,-0.19982001974752606
13.833273915,0.4276246728062118,-0.3898063671858047,2.7879598690844483,-4.2466932162678965,0.3929733071481461,-0.1946609817967802
13.933299535,0.37018371287940466,-0.09106404312120836,2.981178119559851,-4.361601303696055,0.45626251940814244,-0.06253861284996164
14.033225995,0.14013598453322046,0.18401783698705107,3.1315173175358724,-4.338722997159696,0.4415268253812385,0.04633497597131432
14.133275036,0.09729037651868219,0.5041300064068522,3.2400598708540858,-4.415106058302217,0.40687772932575833,0.11548196164970448
14.233221772,-0.026284387594797766,0.713037660567506,3.2074726126526873,-4.141192761720662,0.33056661819232824,0.16492857985289108
14.333254123,-0.3069435030823885,0.9637952391509604,3.1883778369797198,-3.9890161929553614,0.3066000373765393,0.19542304869079308
14.433279849,-0.4746332122679401,1.2279441649242675,3.181265792343401,-3.805006704394504,0.32316527232237907,0.20836386297445206
14.533227187,-0.7786572683670765,1.411169899371162,3.1409692604233665,-3.5480270103384304,0.3380643761940148,0.2130849608904988
14.633284237,-1.157380524285867,1.4324709177880923,3.065971141439592,-3.296791391363793,0.37802548592402935,0.20321630477420252
14.733226619,-1.3458946423830598,1.5030662766088878,3.1367475294353904,-3.0256313698294095,0.4246277415617877,0.19113006966142412
14.833270065,-1.7020199214391707,1.4093569645743558,3.1753516950070177,-2.8685761786070705,0.43340263961701664,0.19260748853938134
14.933223695,-1.9523583341842032,1.2849696784601208,3.220707247864276,-2.658477904644908,0.42004015100485864,0.19314359981597332
15.033220901,-2.3015419255373386,1.1731743741232414,3.2754573831897575,-2.5223397212864147,0.3855363937480729,0.19694759538251114
15.133222878,-2.452635020570397,0.9821623302807476,3.151885935823326,-2.204999875977909,0.38463542016834695,0.1971118734751684
15.233220669,-2.6421386557438047,0.6900257064742639,3.154930473117372,-2.0060081334795807,0.3454890509635936,0.19416242203686127
15.333224725,-2.751081066826774,0.39018840389187875,3.117701047914103,-1.8017304787571096,0.326541781175772,0.1858167377421058
15.433220393,-2.8278706285859125,0.029947250448752398,3.1086189873169707,-1.5181657592503128,0.32457480595974697,0.191886883404104
15.533277205000001,-2.7362376581034775,-0.26004364549783104,3.023046279727947,-1.3164778610847256,0.2888131369981822,0.19184104316935588
15.633311538000001,-2.646692196760288,-0.4644028863125292,2.927836036691531,-1.1237548680344165,0.2744986918000457,0.20411168013900496
15.733221538,-2.540906118984703,-0.7832850363018646,2.929186098709474,-0.8464374171507506,0.29153760042942334,0.2138146513934465
15.833223146,-2.330049525200238,-0.9316502344751227,2.9753104371512245,-0.6249467243105276,0.2940399514822438,0.2212631702150718
15.93322697,-1.974054176829501,-1.1071131581312093,2.8699059270913483,-0.417089854330609,0.3318237798259076,0.23018609767807516
16.033230238,-1.7527190581361438,-1.178457586369297,2.832311862539322,-0.23679748214021937,0.37890684466893115,0.23431429517626862
16.133222503,-1.4802904069153282,-1.2388442176776506,2.882929746233338,0.06327182174685432,0.40011517903806665,0.23445169060936893
16.23322323,-1.1946606150220735,-1.1948550134340887,2.9457379587395507,0.3124638165788719,0.4077750206531478,0.22425458641893178
