time (sec),x position (m),y position (m),forward velocity (m/s),"heading angle (rad), from x-axis, positive is CCW",throttle (unitless; -1 to 1),steering angle (unitless; -1 to 1)
1.027593587,-2.2838381951400186,0.23575112277417498,3.0076021309545835,-1.6438502366410885,0.34384459936477774,0.23488826028359447
1.127488615,-2.2793112899528,-0.028560594502241292,2.992961149114593,-1.382323741496583,0.3340820530015231,0.23993067240995058
1.22749537,-2.190055701777181,-0.34713533420163073,2.938386705381088,-1.0906001904869567,0.3164219422273601,0.2337075409179279
1.327539727,-2.0570423929548465,-0.6618883994787872,2.810385319751254,-0.9018060005358762,0.3342997629226396,0.22802320410899724
1.427483582,-1.8497706273002064,-0.7551396384393803,2.7262397739746023,-0.620490604867966,0.3426151473388835,0.24563419726186106
1.527481017,-1.639871312905599,-0.8947844394093486,2.834522011417805,-0.405146231010914,0.3174197247628413,0.2381772788384041
1.6276022010000002,-1.3731307447237129,-1.0910254954833958,2.849550389985106,-0.24573478715530458,0.32365598385063704,0.24323104391041128
1.7274937989999999,-1.1195160852117498,-1.0729051504998917,2.7815740551544845,-0.009425097322367071,0.34808336949970337,0.24465347621038666
1.8274772760000002,-0.8583778834131041,-1.0108166413461,2.770886011333934,0.2659628382515275,0.3388739494711183,0.23971655813753698
1.927572326,-0.5941820748243343,-0.8685278943707709,2.723907124569167,0.4740639207967543,0.34463743710011163,0.24858326835957212
2.027480534,-0.3095780607682018,-0.8118174141748681,2.786649114145636,0.7033073495500508,0.37355374967305993,0.2610811061932812
2.127503096,-0.20829700599775475,-0.56252469296214,2.776488493236507,0.9525036594623615,0.3756148146713088,0.24562961171895537
2.227476878,0.027054519668520655,-0.38314036609976226,2.7679374726869157,1.1966336924703256,0.4098069242387365,0.16606343010963018
2.327504375,0.13054408746311896,-0.1525535792305332,2.954743891201424,1.2909458689156712,0.4529145365144037,0.0289192113412309
2.427476452,0.1995386325363474,0.2573615568126672,3.0581957889674714,1.295606349229208,0.39629049314063475,-0.07314099961571145
2.527501217,0.3472520921350411,0.503032982072971,3.171766588227299,1.2082122009856409,0.33140825162495013,-0.13911476822994723
2.627594929,0.536251570624837,0.8097916536469469,3.047771494596182,1.0313050870815863,0.30005712624712105,-0.19968123606072224
2.727586795,0.580485039586105,1.0404553158333198,3.1544435408585505,0.8038341456269884,0.28412384353626075,-0.22442509153141108
2.827481585,0.9105982621009802,1.3101409858674842,3.0185107117820538,0.530333760372499,0.2903226991651667,-0.2287514082396127
2.927586539,1.1880568356824441,1.3981877786664385,2.997299927310569,0.35687285296612453,0.33790842399688437,-0.23376141548668453
3.027501007,1.47323197635581,1.454774758511822,2.965048963667492,0.24821633654103187,0.3206360144005084,-0.23586673823750265
3.127474741,1.8593480801144944,1.489934825284639,2.9389984398962716,-0.15728564564778208,0.34275066558187767,-0.25675124073143535
3.227567794,2.0007312448653902,1.3167852041174868,2.8884478284944106,-0.3800204728692104,0.36745644388909326,-0.2527250546545563
3.327575993,2.216138399465062,1.3015467471242166,2.9352740970063573,-0.6119412915616268,0.38399249030031724,-0.24949065431485143
3.427509618,2.5044291084278654,1.016752037413609,2.9303763915487755,-0.8817263793390078,0.37727685799806615,-0.2490212721039613
3.527485656,2.7257157712532525,0.8245437060157822,2.9300208364845433,-1.0215069742349194,0.37568961126198225,-0.23740519920251885
3.627476922,2.850781179737111,0.6192028000306572,2.957807232548549,-1.267995912120111,0.37813068585461873,-0.25229389406303676
3.727504627,2.86346029898995,0.29403907106870525,2.84878572516897,-1.4939491993255956,0.3654385418191906,-0.2519986788262203
3.8274897240000003,2.8708627017774,0.012666176525249845,2.8763239337466193,-1.7436966941256158,0.3681688697446509,-0.24508558726953725
3.927490609,2.8501752377012717,-0.3165011401545204,2.996424030844794,-1.916802882874888,0.3761577555689343,-0.24919978813654062
4.027478783,2.7313023279577173,-0.5955469164436231,2.8787672576450207,-2.1202864392806884,0.35741624029242297,-0.25077013198555476
4.127509593,2.5126292288960848,-0.8373465538175526,2.8994392114035934,-2.4125138663924095,0.40763775758115905,-0.27533535487541577
4.227480257,2.365106136133357,-0.9989953604284035,2.890538775548398,-2.532016623656811,0.3624427532579706,-0.2439835905667869
4.327477165,1.9990720266285593,-1.0380747162177217,2.948176211890283,-2.8512875344933137,0.3514526529477458,-0.25035407791395137
4.427570174,1.760437375546657,-1.1603352627314942,2.91829138386012,-3.0320203028049444,0.3489820217301462,-0.2477798464379139
4.527572769,1.409311181334215,-1.171498119784457,2.940481834424187,-3.235142430527754,0.37362408795534546,-0.2551555215842842
4.627479303,1.1280815380370823,-1.0825730623487706,2.8262172345942087,-3.5868916658485226,0.3775978397622471,-0.2574210228725793
4.7274790840000005,0.8767992885722551,-0.9185611946280907,2.88830869131817,-3.7490308473167646,0.3805685113888306,-0.23429928484949314
4.827479838,0.6798530400110767,-0.7148146387344666,2.9073673548526004,-4.021664010787617,0.402302271066951,-0.24340112960205215
4.927507107,0.4733751197866968,-0.47708852674466745,2.9845488266473694,-4.2211057520345205,0.41828806415354863,-0.19058950078274414
5.027483329,0.3188701522553925,-0.23835949492647443,3.0461572013432328,-4.29209922542234,0.40851876602565845,-0.08781527763946077
5.127479652,0.2537387777800454,0.12519186425361586,3.3142920757707204,-4.211853798144208,0.40955426304118,0.01701271856617879
5.227479897,0.06319002354153092,0.31667497533304306,3.3042299890099778,-4.180127517160136,0.3419083385885698,0.08280798752743412
5.327501369,-0.13699320531635398,0.713337638601316,3.325340457289045,-4.102754904537561,0.28796058743511593,0.13822837611100794
5.427477419,-0.30208146838522987,0.8976966529476389,3.3511147421516214,-3.9291222312241336,0.27944659297525526,0.16417810692180956
5.527489002,-0.5433897561297059,1.1245503644908053,3.2363895653339885,-3.6806338760461395,0.2608174811542211,0.1900765631043791
5.627523295,-0.8523521035879497,1.29651551524604,3.134396001333595,-3.5628057398880717,0.2690876666763041,0.19982806984622165
5.727479195,-1.1355458436393717,1.3935743659534836,3.053195015832665,-3.229893359685426,0.30135735723265566,0.19344001491168347
5.827482252,-1.4388434575336027,1.3766834576724907,3.067722972077543,-3.110669510247787,0.32671255126783305,0.19881273473797148
5.92757516,-1.7496189619975229,1.3043141055288847,3.018143842566488,-2.871695459579855,0.33162847685623364,0.2076192744879299
6.027505649,-1.9975232893716082,1.2006518568238282,3.0334222878599686,-2.611423865628882,0.3314315835850011,0.21640482339073824
6.127483945,-2.2816609152018104,0.976042720895362,2.9159048808835917,-2.427468683036259,0.3451193391966368,0.229837666392076
6.227480714,-2.505282601688893,0.7890922914787711,2.8557578777819854,-2.0670788855249183,0.3452203899796862,0.2150354255724143
6.327524779,-2.618745217276506,0.650258576527591,2.925401891126606,-1.9066403521203084,0.3462337534778252,0.21547621873953848
6.427537556,-2.6467002197527743,0.31120942722325945,2.9017600748177816,-1.7319615705198745,0.37789829124172497,0.21445657292566042
6.527479315,-2.6996408999852104,-0.03325988269066041,2.9047440733746375,-1.5367259250760403,0.3567435829982865,0.2231197070016444
6.627504516,-2.6344005481416595,-0.29000777147211493,2.928804310421918,-1.3139908469469759,0.35331215107267216,0.21837908930522057
6.72758122,-2.5208208282343105,-0.566448556749498,2.875868231692098,-1.0910980994064916,0.3782942778828232,0.2306985479560881
6.827480243,-2.3814877900997455,-0.8324936821119409,2.9084055337795407,-0.9096813257231917,0.3545884616894323,0.2290062473810889
6.927501491,-2.22742936221238,-0.9796508159905495,2.898445950406773,-0.6292713754979997,0.35753822544777397,0.22334119743635644
7.027502579,-1.9602702240735643,-1.1573298789295499,2.8693439129368725,-0.4372811067900549,0.38210066826211003,0.23248263611475486
7.127514367,-1.6365206683239208,-1.198083677949925,2.918385586274955,-0.11851752200414944,0.3501998232757613,0.23258116688860117
7.227477604,-1.4502728902741835,-1.2897074289673074,2.7750566308305076,0.10543417493710655,0.35921132146037943,0.22203932434356904
7.327482415,-1.0840181876594024,-1.1378314087454255,2.810963474724949,0.2785135075486273,0.36536015401951527,0.22887789000361997
7.427481083,-0.7613029681996891,-1.0381345206231247,2.93661890536668,0.5247794092500724,0.36042843563351024,0.23092964023481627
7.527485468,-0.5444150299564605,-0.852752941397833,2.8769964255854266,0.7519534062939168,0.3608689253284229,0.2296223224149525
7.627507523,-0.49873457975130175,-0.6396354529438114,2.888284987305417,0.9518055356872128,0.3836346161705743,0.2130775647441184
7.727581364,-0.2190299961484538,-0.48995671972562516,2.99369081236536,1.1433932077527602,0.4221883507638907,0.12886957206673946
7.82749932,-0.1573264263753386,-0.16796249212427208,3.0194276592462574,1.2529051629122236,0.4173285873541561,0.017476559021904974
7.927509982,-0.04782626774202242,0.14760070313593385,3.1565684643649394,1.2611214882690638,0.4080504475399857,-0.07177524194476018
8.027565226,0.08945935607819094,0.5477959171963882,3.289905411568881,1.1640776481222825,0.3482494151351323,-0.145840577329945
8.127503321,0.22707273200655825,0.6737196305001243,3.2882937144160365,0.914680221675975,0.2954872256301176,-0.19522647534222068
8.227480656000001,0.4543943986247715,1.009987390574516,3.196828023786635,0.8070503141690909,0.300576589395224,-0.21726572549298703
8.327478293,0.6614319497714746,1.1643599810104404,3.1566627549486403,0.5599631988333519,0.2912822112596573,-0.22476049680663399
8.427478712,0.9549084929501863,1.3307317843409838,3.0492401323649436,0.31913261425077427,0.30952490386489223,-0.23108642798783813
8.527611553,1.227458491120655,1.3595287812893444,3.0019337206499532,0.16512082392060132,0.34051194544829555,-0.23353297700373576
8.627497412,1.562371761578706,1.4179389952471986,3.0393946301262806,-0.008692862285659589,0.3536238706028934,-0.24125379865568428
8.727479105,1.8267767963073644,1.2883987053591448,2.9228377912970815,-0.28356573660527656,0.3578675802422567,-0.24102286327678266
8.827492051,2.138408853892034,1.1511652390555571,2.982547788866096,-0.597124863239349,0.3800536676886803,-0.24030865722636316
8.927573242,2.3978620040917904,1.0945893504520974,3.025388901916861,-0.7731315579905069,0.3601184555556688,-0.24109642613207607
9.027479185,2.5390265783305703,0.7471758691931003,2.9449458959608363,-0.9957040084735531,0.35886153588029407,-0.2520018299954394
9.127479166,2.617817733036965,0.539426857049378,2.9626741206261324,-1.291207369442971,0.35586533605910703,-0.24436264202054764
9.227483536,2.676794466407797,0.24813138971724336,2.8960225755487636,-1.5173354208492935,0.36877714229843767,-0.2495010459715765
9.327481523,2.6587195351267954,-0.08866242857607042,2.9093888987813954,-1.669369306388553,0.3558153565467107,-0.24705416598479948
9.427554158,2.5944804277172944,-0.37827996701456623,2.985712061141733,-1.924407754639074,0.3547354999908212,-0.24936669274144566
9.527481384,2.5680368934353655,-0.5131089429203464,2.8979199471757773,-2.113960919271656,0.35063196425757653,-0.25696252348247567
9.627488809,2.434392580597649,-0.7183432440605172,2.8788004009374513,-2.1656134487827488,0.3313488400025833,-0.2427459134868758
9.727484373,2.142129550005455,-0.9989702930155022,2.9408125362827775,-2.49776143353781,0.38791538327688924,-0.27347861500585047
9.827481375,1.8874315504070784,-1.2051753454538572,2.8539312749532835,-2.8064478708793943,0.35753362321518395,-0.2595042371551124
9.927493247,1.550891191763637,-1.0634803429020212,2.912604624764489,-3.0351737618861647,0.3586625072356005,-0.2515748521242681
10.02748356,1.4365008396778538,-1.1063417430894995,2.9194331258999178,-3.323985915184474,0.36997980445053946,-0.24255727839631366
10.127483806,1.054122330716075,-1.0933354873931034,2.850738908838584,-3.498835124098738,0.3775780619280284,-0.25247209504975604
10.227500296,0.8199109090116854,-0.9624870779555921,2.86548924169863,-3.8049377838382346,0.37868154623138933,-0.249550286378604
10.327477943,0.5498610735217331,-0.6993321796101023,2.9282788782241274,-3.9344962355023645,0.39923708976880723,-0.2241700575007506
10.427603339000001,0.2959825106073498,-0.483682709887516,3.02042169102529,-4.051432875251224,0.4171778430480659,-0.19226195740978638
10.52747801,0.22856832910167713,-0.21364012773979052,3.0656685681920672,-4.320528814758211,0.4037443226856209,-0.09992099009177272
10.627495983,0.07283169750367685,0.05391643589643029,3.236796547821067,-4.267131242447136,0.3847685845252238,0.008987069668388161
10.727495307,-0.030837803456115857,0.2760024907610649,3.3208782915361303,-4.204915352473592,0.33852728823573797,0.08285609439485106
10.827478848,-0.21914290076411763,0.6568872881360565,3.361763273625522,-4.1138925830062805,0.2859300858661148,0.13394637662305947
10.927479121,-0.34468441057990523,0.921395211633153,3.3129831680441715,-3.871613883091814,0.2740257691406724,0.16851150349964972
11.027517566,-0.6675953545662286,1.0967784880253708,3.200138978560396,-3.6717912177729994,0.2588273760370384,0.18864572294245768
11.127480378,-0.8961604722084693,1.2144037492407642,3.1527644517597437,-3.463699112995922,0.2607875848323202,0.1926994600464298
11.227482949,-1.2047508858526739,1.4009329865194629,3.036592916918801,-3.263302888584785,0.2930237449742759,0.19666734148996634
11.327478715,-1.5039719154368028,1.407295954191327,3.0742110084591556,-3.114182763404129,0.31871044896708495,0.20454409918348732
11.427506174,-1.79165161225016,1.325017485755356,3.027095968427363,-2.8613932373449105,0.32028774264650167,0.20510271432071817
11.527478878,-2.0966875392038307,1.2170410555385378,2.937872629076001,-2.6547907117530714,0.3304764531832786,0.219998685698103
11.627569424,-2.388264576650494,1.0264033742842222,2.8639905460649855,-2.399228728142205,0.34552640778740923,0.2225508410566886
11.727509815,-2.5977630643834972,0.8609288573044348,2.8900103380766358,-2.2803745507964726,0.3505724251069006,0.21996416022059043
11.827599465,-2.6628292645527685,0.6618217189516803,2.852981053138535,-1.9889398955232411,0.35964286250823463,0.22181916802102927
11.927482843,-2.7480165018694613,0.3897438619365458,2.935913149932772,-1.7624832767343257,0.37369783348236957,0.2314946869007403
12.027481972,-2.849278248681221,0.03511549540768251,2.9830655257262295,-1.461709095366795,0.36195999342937907,0.22674411877539383
12.127477892,-2.7771255983673653,-0.31582389957773493,2.929512225734898,-1.2423177940589356,0.37306124335027857,0.23023477069715884
12.227480147,-2.6141920264149623,-0.6112678267508809,2.8905887729242288,-0.9879157041372086,0.39460013972636254,0.2349606425653686
12.327480105,-2.48794765035075,-0.8288513728725396,2.8908739135999544,-0.8149908614565763,0.3696713363448467,0.22786193996393736
12.427503633,-2.2776026622036185,-0.9889890497625394,2.79650729705255,-0.5115550164145429,0.3670843995349313,0.2231218427795988
12.527491257,-2.101051246819377,-1.1609510198423343,2.881425561908334,-0.4302248490389028,0.3942569910777299,0.23313246758545908
12.627602961000001,-1.7397484662607652,-1.246313625306212,2.927490628318841,-0.24968399441868444,0.37156972252866477,0.24002483225964036
12.727478674,-1.5205622071636173,-1.2990832812046504,2.866242710928619,0.021499413138022172,0.36005418600206496,0.23257018691161382
12.82748015,-1.121642934663563,-1.1476573633250462,2.87100260614258,0.2887392658621798,0.3634981622488397,0.22008982948654665
12.927506878,-0.9636310976768432,-1.0612590845986,2.846554384439458,0.5104540057226902,0.3544097490259472,0.22873663993211846
13.027480097,-0.6451740834968596,-0.9191976041669829,2.915942139048507,0.7848376620464871,0.3568196012812729,0.23135892686103268
13.127478146,-0.5612146747813191,-0.7441607790708837,2.9277769136405296,0.9877027966203332,0.3848059469520732,0.20028690182334583
13.227491263,-0.35576918086541415,-0.48798662657386377,3.022687711723133,1.1149836535813733,0.4186862354019193,0.13677266150286263
13.327482342,-0.2300802551650738,-0.23169034293360238,3.0514870588342777,1.1960348610867242,0.4136503200659865,0.026512208031129726
13.427483037,-0.09886661237116867,0.10488502960557272,3.1362448464750137,1.1342064158495178,0.3992910863365805,-0.06291408616423363
13.527583911,0.043374984602753575,0.4353963744847026,3.3446152395742152,1.1138962566469655,0.3441739302237729,-0.13521239031797244
13.627506524,0.12196380547308519,0.678484358711466,3.2548249931932474,0.9904982321350345,0.31019696609192454,-0.1810839224115294
13.727483564,0.4121939623847926,0.9025937581996994,3.2278148032627576,0.7207527696195812,0.2990798937422416,-0.20779023390057588
13.827487538,0.6037216241647627,1.1632878207643056,3.12286501704349,0.5946208454419956,0.29332752337277496,-0.22256255302803943
13.927477723,0.8639301939047982,1.1705509917732515,3.0489725607768703,0.30895227310792933,0.30618811183426053,-0.2264635412082336
14.027546571,1.2344960371621136,1.368573519356826,2.9435522636025784,0.1059546821787188,0.34051293679013256,-0.22608947309549043
14.127479224,1.4882930877287013,1.3514462606356408,3.023458629423752,-0.0790784792510412,0.3626334042967334,-0.228539980434352
14.22748297,1.7137436064393528,1.355592274981794,3.0242538699002313,-0.21872134076676472,0.3597956783540467,-0.22958223797332458
14.327585953,2.090095898886127,1.1674600078535433,2.99974666093596,-0.5339197517302057,0.41210550695872084,-0.259489876260352
14.427585525,2.2631912715800566,0.9504597612292468,2.906777920558625,-0.8614529571062476,0.36484856035107255,-0.2408659838389789
14.52760211,2.422721046514511,0.7297715469956518,2.876727095596068,-1.0186024365900557,0.3529819746126514,-0.23424527730878522
14.627535801,2.542904177195178,0.4435046539923441,2.9588780306784357,-1.2817578686577826,0.3521174052385218,-0.23314944403690946
14.727503902,2.558954824503469,0.20325945863310707,2.929233139398022,-1.4482497615161372,0.3582545361109042,-0.24062267487663883
14.827484708,2.640110554308602,-0.0647932655699878,2.90866111340597,-1.7231083034863506,0.33613436751697645,-0.24377268472727132
14.927484822,2.613560389270638,-0.3541643655708402,2.8813978417816664,-1.8818799165671123,0.3405488595286467,-0.24607425299669497
15.027476911,2.438544921591898,-0.6707792113075183,2.799138666313321,-2.2747210189101343,0.3425207744323352,-0.24858663038352036
15.127580086,2.3109632376424543,-0.911094457998451,2.8145890652195704,-2.3724611835263625,0.3468089557472901,-0.2502627046275424
15.227484131,2.0655780145897022,-1.0542073063988968,2.8266361035477003,-2.5693994087112175,0.33757085373185197,-0.24268404108004552
15.327487521,1.824998070901704,-1.1380387845964253,2.8281021022178074,-2.7809377755300577,0.36473068491439875,-0.25397934206105466
15.427487312,1.5017711925065829,-1.2078603120323597,2.8208403098415555,-3.0611069360240744,0.36312503026254356,-0.26035564633518504
15.527507188,1.240428046705307,-1.1833799743673317,2.8741018464801575,-3.336772019831351,0.36909400910568246,-0.25532317428663437
15.627613702,0.9923312371165983,-1.0915332284846517,2.8357978199254443,-3.5827329632796467,0.3948912980727613,-0.24800261952951796
15.727584587,0.691549379369966,-0.954248288861278,2.9096852149243633,-3.792899436197942,0.4059368274300199,-0.24968504024183227
15.827482689,0.4864939108061069,-0.7706863509580615,2.939761151926364,-4.0360898138598795,0.3979178552634357,-0.2356070701612466
15.927483932,0.3569203893734469,-0.4779838260436198,2.884762181910921,-4.258247017631203,0.41673501461571255,-0.19353149202123351
16.02748817,0.2712107229560159,-0.3262559822201182,3.1132266051552677,-4.267686656038556,0.44100339430336494,-0.0693720787203348
16.127502122,0.17203189181043038,-0.017850871781902464,3.1979754254351036,-4.364165600821471,0.3905219757065183,0.020640496967859766
16.227484254,-0.009377651104012369,0.2641638634190612,3.2895572337881487,-4.236507886425446,0.3429426366294312,0.09123473904841184
