time (sec),x position (m),y position (m),forward velocity (m/s),"heading angle (rad), from x-axis, positive is CCW",throttle (unitless; -1 to 1),steering angle (unitless; -1 to 1)
1.039691528,1.641859144387186,-1.302488383854196,3.076116276933107,-2.902457945691346,0.34423095744778825,-0.24712566407386405
1.139668729,1.2304880575711796,-1.3069676653162132,3.0447470903356075,-3.2901748764125776,0.37142153013470386,-0.2541891613214943
1.239667793,0.9391698195948532,-1.2729603124609075,3.0848683239998547,-3.4777396059735013,0.41527070095312235,-0.25727507653926196
1.339671127,0.6675940897053422,-1.0804954989168594,3.094430235976256,-3.715618656603547,0.48099210547379095,-0.252640262664561
1.439666571,0.44922930435578834,-0.8799397167087908,3.1613712273950414,-3.912334361268372,0.5210869542755182,-0.24711574098321454
1.5396680520000001,0.19817393196125377,-0.6657681582435208,3.2778270805241116,-4.213063141655613,0.5644255665023837,-0.1799563457724693
1.639672761,0.15963722093625465,-0.4108354637479721,3.4907829697719657,-4.415688916700926,0.5681938222901423,-0.08523968426558712
1.7396713890000002,-0.10096095222197587,-0.18520127810558396,3.6127196209425185,-4.29317970483049,0.537622229614917,0.011783509016917866
1.839669237,-0.19096253754196357,0.29840832084305857,3.6770969060663585,-4.223653982579243,0.4071601875443278,0.06182175816910899
1.939664038,-0.4479825589907371,0.6191637265971071,3.7187513292349834,-4.079562765539399,0.32440106568111826,0.10263251276615865
2.039659491,-0.7628090844035199,0.8665322943388911,3.716042992598325,-3.9858604456650184,0.2588091106844358,0.1377916694096593
2.13971614,-0.8613376340458052,1.1118490406975094,3.690583650294218,-3.7621030125919646,0.21196487696098051,0.1601438741269284
2.23967099,-1.1808248081891521,1.303044601766206,3.5092035870391305,-3.495402595655232,0.20256004352114315,0.17613232173255502
2.339664079,-1.5649019607621848,1.4663955395229082,3.3591683426793297,-3.3116952948815572,0.211754118511777,0.178613996551062
2.439665913,-1.7972804717256343,1.5971688050795094,3.1055071812177815,-3.126901112570241,0.24853970848551396,0.18378140202808702
2.539668333,-2.0773507115833905,1.5119343221650259,3.0266445502114063,-2.9679934536340102,0.31026449718704374,0.18808530596455886
2.639692805,-2.332680867883579,1.468119444103759,2.938922069324531,-2.745308247331338,0.3585776083531826,0.19994807711438853
2.7396669080000002,-2.5903493219112237,1.2290940697184427,2.984069616289517,-2.5141701551405355,0.4049428923396262,0.21468752961868487
2.8396682980000003,-2.8571055820294533,1.0524832547507386,3.074748116434318,-2.240530926499072,0.4474014391451868,0.220787786559782
2.939671719,-3.0673567203983314,0.8170257028467567,3.12352046237609,-1.9421703523671319,0.46687039832305116,0.22331138291618197
3.039667651,-3.110181740214243,0.4741517587950822,3.0610265510938937,-1.6929676912238318,0.48427974096216747,0.21658498306868376
3.139683589,-3.1793468686956916,0.19544603086422974,3.2076057500580806,-1.5782316147564206,0.5246834812646805,0.20288294409521965
3.239672068,-3.1354664615534995,-0.09479959554894732,3.2133762175921214,-1.2302240582394108,0.5373574075013527,0.20297492342014634
3.339664484,-3.017140488101076,-0.4315172252087434,3.2946520265854717,-1.100910161457953,0.5140080517909988,0.19744042663567288
3.439666051,-2.8717933667993285,-0.7170922697855718,3.3415005720330972,-0.8542399630719407,0.47878847385835266,0.19191511632252428
3.53966898,-2.6590804108810233,-0.9819334445757717,3.3053293872121086,-0.6373937741134086,0.4755184754400273,0.18901329042192228
3.639668486,-2.4462596694619774,-1.1519964010848442,3.232772663169538,-0.3389802277968592,0.42649368457020675,0.18407777502745296
3.739665541,-2.0565613655696278,-1.2834354030840613,3.219793010780915,-0.22479480592587578,0.38676846126541703,0.19017779769997198
3.839758218,-1.696855188759636,-1.2652531555964455,3.245181124960335,0.005095858356538237,0.36348297890302694,0.1966390911318068
3.939667288,-1.5135969513540437,-1.2581093144677846,3.1777750742257997,0.18841997223244736,0.34061341163834397,0.20001910740801776
4.039670424,-1.1538262528521905,-1.2667032986421927,3.0478791534670764,0.367148968908655,0.3244055130797846,0.19939408313368134
4.13967163,-0.8215668113786299,-1.0995045556542522,3.1091715204987382,0.61822104180506,0.3693342558149262,0.20716833679142907
4.239666,-0.6764514702103274,-0.7971536353686652,3.0460321235665986,0.8935894874375708,0.40750369656837526,0.21017542889008123
4.339668816,-0.5242453182554485,-0.6027906969974776,2.9903314571136024,1.1390467924979077,0.5184706020715817,0.13008147637192707
4.43966994,-0.27803578956276687,-0.2761993238538584,3.296282909274449,1.1683733204748705,0.58607570661016,0.019690001571703888
4.539669713,-0.13045744058313044,-0.03731267177636634,3.4847430288187846,1.194163437282316,0.5681709054542639,-0.062036814316047025
4.639666118,0.010561914885099298,0.2234277923263221,3.750803908870801,1.2010131651241152,0.4469849065873627,-0.10680002207264717
4.739671793,0.1266897329023562,0.6225814635721778,3.71765342651054,0.9969301501889917,0.3575905291128991,-0.14441782744719123
4.839671584,0.4076355989214395,0.8912186772125822,3.6549519624101507,0.9748582983564716,0.2900617965048829,-0.1855923626797968
4.939714761,0.6482230958373802,1.270618830944373,3.5985083568416063,0.6283240572899621,0.23179370523952586,-0.20578744381488595
5.039669799,0.92100207688562,1.3430309261617002,3.4582835829514043,0.4274041605573976,0.24797580753422324,-0.21446909610759726
5.139673252,1.2084193551745694,1.539656846276618,3.240394491617308,0.22624295331480124,0.270574118247544,-0.22564266057717297
5.239665939,1.5059836219133957,1.5314412622901716,3.239891443240585,-0.09565552926126306,0.3365964162385923,-0.24479482707905756
5.33969209,1.8878592114798827,1.5291616539560229,3.189088017555727,-0.25951078279743195,0.4119667462880587,-0.2552739253923537
5.439668332,2.1759284366140808,1.4118632128363293,3.1475832352305484,-0.5269535392353777,0.4789892530633019,-0.2560555437459775
5.539670742,2.3977584985699063,1.2297575830739538,3.1043888402934927,-0.6815352678747807,0.49704194847054656,-0.2522152771706469
5.639813758,2.6502548282368736,1.015528709631688,3.186237951367052,-0.9990539526589065,0.5255320401623828,-0.24893409883895354
5.739765019,2.786153657037781,0.6928657449500654,3.2699902126786404,-1.222017692043356,0.5241421659579377,-0.24216785350048003
5.839690494,2.871963344322368,0.4131996826920882,3.290559993170191,-1.3781700009177549,0.4820949230607124,-0.2368782835990606
5.939666475,2.876494580441421,0.014784151515710539,3.2614377945713926,-1.624114919055262,0.46408081100640186,-0.22341633864113394
6.039672529,2.8359892557738307,-0.23836378518179505,3.2624482082617887,-1.9330823688082364,0.4724670980359214,-0.220061193993959
6.139664662,2.653810074109041,-0.49349108705611483,3.1948013699274913,-2.1180212044868907,0.42127536325321774,-0.22290118157381475
6.23969055,2.5523460298698284,-0.7231192215727438,3.3267439230873466,-2.2393153213454253,0.37945955672029313,-0.22566766189209522
6.339665481,2.2898065083825467,-1.0456482459343603,3.2350126503780148,-2.5294924163728085,0.36721890363637066,-0.23231404561721847
6.439686502,1.9676064445646384,-1.1715227870868166,3.1021963676160156,-2.757806739905732,0.3240752686340834,-0.2275622824995428
6.539666935,1.736067981655301,-1.2086974976354932,3.135792239375743,-3.031260129352048,0.33327047356535466,-0.2597434766916401
6.639681496,1.4658318176076948,-1.313478601901824,3.0729560957605853,-3.190895857027644,0.3924527661147654,-0.2559171520555265
6.739663319,1.0054744162879778,-1.2345714742015876,3.0132708235169403,-3.5140244631127087,0.433060043503486,-0.2565216989316906
6.839673658,0.8277562348481297,-1.0594377884149169,3.104823663744972,-3.6969234779031908,0.4843113414288681,-0.24971879848288572
6.939667963,0.6525876268685185,-0.9660197635339557,3.0664087227494186,-3.9000694990142404,0.5579717714865615,-0.24487649630877317
7.039667791,0.42569314161125493,-0.5952789652469378,3.200697877082156,-4.184028633427524,0.5922105745573484,-0.17149680439062398
7.139673504,0.18136161427500927,-0.4211124912968422,3.4695476548762816,-4.21206525266183,0.5762204337921636,-0.08304914715743308
7.239669861,0.07703882428470443,-0.13152700931485073,3.670043268537112,-4.277651047779489,0.557346259623204,0.02092382558369517
7.339666651,-0.09170890604887567,0.23540550750864556,3.7369585647895303,-4.240861123101623,0.41854688728938233,0.06253962301581914
7.439670124,-0.3060692789200999,0.6115158972275389,3.8747568712225418,-4.083843708257911,0.32871338778272585,0.10369778028011482
7.539668187,-0.5067935300030103,0.8963183399431937,3.786219838294914,-3.9788269716748723,0.29979111894671534,0.1357244476826609
7.6396684740000005,-0.7487193046736165,1.1769349535852625,3.632249344802591,-3.783689333261739,0.2312298923707549,0.15608460361684556
7.739670953,-1.0294280269893141,1.3616793712438806,3.562434588966842,-3.536607469986175,0.21096317740682083,0.17334357329280842
7.83967323,-1.3257392949232936,1.510662583816943,3.3375132809631913,-3.3000795812939288,0.2331205395821143,0.17797084092188165
7.939668038,-1.756635819048318,1.5314423480058772,3.2122409410621335,-3.0524889145221232,0.2521398458103071,0.18447948772193629
8.039667106,-1.9951769506643846,1.5387704408762855,3.16478335825538,-2.8490407701401046,0.2994607354325691,0.1889908598324447
8.139767548,-2.333204461235236,1.4357502998413616,3.1037393380959246,-2.699906225786097,0.3572932326740989,0.19859895399703958
8.239683828,-2.521384313932035,1.3501856160426056,3.010922261192915,-2.3807975278636877,0.394822756081327,0.21452083298485086
8.33966739,-2.8008711587702257,1.0658787985595126,3.0591458755116117,-2.2095576599864684,0.41916621049077435,0.22285612755610207
8.439667035,-2.961832900538107,0.8193914366522737,3.0627192567500674,-2.047647648298017,0.47621683448526736,0.21696675176261973
8.539666904,-3.0128197924367535,0.549996110298865,3.097108237441694,-1.7519711928143527,0.4900226164904721,0.2195873505808884
8.639663034,-3.129293735964181,0.20970057458096256,3.2049649608361177,-1.5497161690158483,0.5007498053401701,0.21680736698583017
8.73966683,-3.0820569238987776,-0.13408489250947972,3.1016108390055224,-1.3300245234530284,0.5112117701693526,0.20692621274733652
8.839677868,-2.982582824303919,-0.3702307888543823,3.274209008239274,-1.138783468211365,0.5084971861573987,0.20285884464266815
8.939663719,-2.845056272654544,-0.7214969702614503,3.1946623209590297,-0.7981886577068344,0.48274057286401273,0.19245215039604846
9.039674875,-2.593519667587912,-0.9600068715041853,3.3067178827261414,-0.6934761551097751,0.5106750482938601,0.19393196508626065
9.139727027,-2.3668284675969695,-1.1419036339426087,3.313264385943088,-0.4872671099147827,0.4422365934804315,0.19031887694198538
9.2397303,-2.0247328892270153,-1.256282961720073,3.2320220492755003,-0.2537525235498795,0.3797757122678573,0.1955094927675593
9.339692425,-1.7077542230149192,-1.3515229281043506,3.2934674461117224,-0.02761843924853214,0.3960715154195576,0.20067913831625603
9.43967817,-1.4736764014271113,-1.2728816905970517,3.1548881089925147,0.16412592231344095,0.3609376198766399,0.20395883405908904
9.539673597,-1.0862649710015568,-1.1960276067241515,3.1143718992131,0.5448824012611153,0.33994643029261845,0.20456354117617742
9.639682068,-0.8395511035933266,-1.0268168640997577,2.925218746559251,0.6473328053130867,0.36840381065193223,0.21125055636902526
9.739667711,-0.6284993279658576,-0.8564767047264815,3.0364802433937514,0.9538589132725326,0.41900951665294806,0.21292861473625616
9.839667615,-0.41072098811187113,-0.6259430216783041,3.127559165924269,1.0541323259112523,0.550955709999362,0.11567454999238504
9.939668216,-0.25683966971005806,-0.31026015354787095,3.3790071931274044,1.1724957258523978,0.58999752219342,0.02198339302779721
10.039683601,-0.17426850951369208,-0.03931760065604789,3.550994483457781,1.162926469457002,0.5768120125353543,-0.05631506426437735
10.139677181,0.039520621377910466,0.2602331473669678,3.712776719416608,1.1080707049657412,0.44154981512363856,-0.1007498306492866
10.239667276,0.2551486557675251,0.598038194251321,3.716518038411992,1.0532070258204964,0.34126594184619374,-0.14598292812556848
10.339668065,0.3627388947181103,0.8466307056435438,3.5335691629425177,0.8004226945624234,0.29670571626709313,-0.1830573262338812
10.439688832,0.7056422297604173,1.109739964886375,3.590771450468674,0.6434264399516069,0.24242015543523057,-0.2007254532671762
10.539711617,1.0293555253752804,1.3412742144887795,3.405274784300874,0.42911600313995524,0.22961575443415522,-0.21600112921058184
10.639684773,1.262839192791643,1.460906726766174,3.2331030517617005,0.16803484301571736,0.28191513089554243,-0.21092959496513228
10.739682457,1.613549278175943,1.5354656647215383,3.192168539558184,-0.01101082202636687,0.34761936349110206,-0.22245189945331414
10.839668163,1.933314488283331,1.4618289677401008,3.0895332182942803,-0.29260667924354034,0.41586495693583875,-0.2335586264730557
10.939738336,2.225268859870399,1.288879720463355,3.106608875763911,-0.6129561901787707,0.5063583980685634,-0.24240954349901125
11.03966878,2.453827658888715,1.204077786135217,3.170703330537939,-0.7132794990473657,0.4967118262786757,-0.2421960976860331
11.139691694,2.6837131843180133,0.8071448964455608,3.2420507289239198,-1.025256511386301,0.5057380669237945,-0.2352508198040805
11.239694834,2.812570824992305,0.5802333166397446,3.2411445674665407,-1.2507973950984315,0.5035852888321957,-0.2336752887623808
11.339672461,2.937856020305944,0.3639954824025857,3.270804180446421,-1.5188814471100485,0.48005205290553615,-0.22619909635536792
11.439665873,2.8946562219387526,-0.059964166945066386,3.269842877361018,-1.671700920814058,0.45604321902927697,-0.21523101748013318
11.539718252,2.8247119791893778,-0.3631988419971712,3.2700791022670033,-1.93578344237287,0.4505527130471027,-0.20497599448969922
11.63968736,2.627997900131391,-0.6499682825837001,3.2112836036620287,-2.15680811489036,0.41039939827962296,-0.21644820947696009
11.739667094,2.4717812759735382,-0.9010570798306436,3.1520940543557314,-2.3668440317678194,0.36233335417064316,-0.22310547136054926
11.839670163000001,2.3174832344300373,-1.1365687690390651,3.2590937174426733,-2.6193679824437943,0.3634760801142149,-0.2235170204618857
11.939671213,2.009208291808834,-1.238490864795712,3.1594994968321317,-2.751357533370563,0.3372426960841084,-0.23282107458881557
12.039667543,1.6669030515020777,-1.3305940609820657,3.073647528589397,-3.055807838108025,0.35184563333258767,-0.25034533127953146
12.139745443,1.3767643301360035,-1.336739163588656,3.1127871295474145,-3.291706840948526,0.3907012010777093,-0.25063653576351114
12.239675363,1.0988968274832216,-1.2827981677342206,3.0218372051992985,-3.528297136927735,0.45282934624795246,-0.2545617062595237
12.339674074,0.8114127195971673,-1.188429388793005,3.078165373974417,-3.798131601315525,0.48963958401787055,-0.2427059651658345
12.439766369,0.7007924868379303,-1.1541109677428143,3.1565855714436553,-3.9843059300072814,0.5425365126126056,-0.2243222002492269
12.539676539,0.3871773022873554,-0.7417708991835043,3.21594867922052,-4.265136691135345,0.6024439213044378,-0.1774232655907278
12.639668417,0.19502955597687874,-0.45105049454301843,3.4556440820406884,-4.394377834184344,0.5887891055062882,-0.06398663648370273
12.739795167,0.057902007602290285,-0.08265802952310827,3.6523626955154143,-4.342003816428648,0.5357877306461725,0.02850174842293262
12.839665478,-0.036744591205155455,0.22023543959278008,3.777720759692567,-4.223206027154783,0.4310694439975354,0.08137409859600438
12.939666806,-0.2442058803976382,0.5583042281670749,3.75759264752346,-4.149988076736831,0.33677864282764597,0.11954579955799155
13.039666914,-0.4628384673052754,0.8254757747812593,3.770298991114896,-4.001598459730264,0.2822495639412418,0.148226599028964
13.139706658,-0.662039240788505,1.148484768625623,3.701328379944877,-3.856608598367062,0.24645833075003948,0.17116311439821497
13.239743577,-0.9517850137048616,1.3163602260013318,3.5028123343645152,-3.5908448073993866,0.2174821122892383,0.18207215966212226
13.339670206,-1.238704635140457,1.5216962678216774,3.339221224212214,-3.3631343244578615,0.24509745574315908,0.18095338161717556
13.439671313,-1.560245422391029,1.5740704470344093,3.2067479678958843,-3.078885564367828,0.2751811413885545,0.18970646074892347
13.53966674,-1.9348293382819302,1.5704476642546121,3.0891739107850147,-2.917331802820051,0.30816931027597005,0.2003827679010146
13.639664018,-2.264747371773304,1.5107635466275728,3.086951050940266,-2.7098381218804684,0.35267588245335973,0.21418490416359404
13.739792281,-2.4617909934730213,1.2456555465460146,3.0746607549031606,-2.4966537332865064,0.3823799165427126,0.22426897354809888
13.839666861,-2.701708519642564,1.007368261430215,3.0516541313079713,-2.260759074572771,0.4019934176136347,0.23329198949484026
13.93966711,-2.8198208426007803,0.9346571667573075,3.125084516198732,-2.0277891893390856,0.44543058756451526,0.23568472780177036
14.039670477,-3.0126571400842015,0.5648655287893551,2.9850700825186385,-1.7768792212451607,0.4829272567525962,0.23691474044742647
14.139666784,-3.079152465028814,0.22403544063304415,3.1875553394321723,-1.5771755130470297,0.49665647935591695,0.23261004000482824
14.239669223,-3.041821154352117,-0.006324927106918593,3.1269241138412873,-1.3539274017359126,0.5182455245012517,0.2202209430551942
14.339669347,-3.0222204716954595,-0.30315336301309787,3.233241618636734,-1.0662616775775944,0.5178249780918434,0.2168549007806545
14.439669488,-2.777728185168512,-0.6525395486927346,3.19247928278444,-0.958746924810445,0.49586968210937454,0.21015003549116454
14.539674192,-2.6218764112145463,-0.9568377616396608,3.2811516778642247,-0.741474648331241,0.46968484034669145,0.21771468855781867
14.639669526,-2.4085804745791006,-1.1174376479431811,3.2900136388258936,-0.5014874132683687,0.45219253816803967,0.204424613631609
14.739668328,-1.9533240955927906,-1.2518589994258584,3.1843109138205477,-0.30205082384260223,0.3993240120127718,0.21391599062237293
14.839666922,-1.7220873417266005,-1.3334826098034738,3.2673708551990224,-0.13507679032187359,0.3632998980292356,0.2161040406800191
14.939669351,-1.3901308956112266,-1.317154048863153,3.144247131707909,0.09246295719962777,0.3425914247305094,0.22150598360874377
15.039749367,-1.1336743801432454,-1.230335157262365,3.0498124878133726,0.36867479810258275,0.3416493212540834,0.22527215155545566
15.13970008,-0.8262785209952548,-1.112204892148797,3.074084062342852,0.5811781921364046,0.35774884303395205,0.22438673514289542
15.23977708,-0.6381875786803419,-0.8439818412027832,3.035706400971686,0.8212105329113314,0.4293419065546337,0.22142983653478202
15.339793294,-0.3372324039615171,-0.6435975566144762,3.1760900984165157,1.0101883377994076,0.5524262561589982,0.13455166270809218
15.439709834,-0.21325184035956643,-0.3683760157084965,3.3744567788573945,1.058382957864623,0.5900687980969124,0.044782396301906946
15.539734287,-0.09193164862372397,-0.0702743242173599,3.60220087360665,1.093071554961471,0.5467552470837853,-0.03251702855168325
15.639771901,0.057291281257649256,0.22494889174825788,3.6777208685846854,1.131407726632456,0.4663878552700094,-0.0913348765792876
15.739669142,0.1828790776599727,0.5504039180490424,3.7211163463349797,1.0508282174936245,0.3584810468513409,-0.13407536902665432
15.83966786,0.41062149175331863,0.8337203920359824,3.707551840314283,0.9289669325654153,0.27210065189357857,-0.18616963621779511
15.939678089000001,0.6775676459473171,1.0636511961379416,3.62236200816254,0.6057559362829295,0.2301024519418489,-0.20977524819643342
16.039687992,1.0167141010261445,1.2807198925974186,3.412290304530365,0.39952125962927276,0.22133118601191487,-0.20933381606006501
16.139687874,1.2707437056245474,1.320564149157784,3.3041386149011527,0.24821182052944485,0.2705602878070791,-0.21760704199986491
16.239669262,1.54543263550073,1.439782690956156,3.2114668256591465,-0.06586681395573128,0.3318778438115778,-0.2339700722348636
