time (sec),x position (m),y position (m),forward velocity (m/s),"heading angle (rad), from x-axis, positive is CCW",throttle (unitless; -1 to 1),steering angle (unitless; -1 to 1)
0.13472967700000002,3.2947813991562027,0.07041506921140131,-0.05190417534766631,-1.4032888493989788,0.75,-0.4966585758982584
0.33473111,3.2571806320609737,-0.018132718508922584,-0.032028167418091065,-1.4755054179171383,0.75,-0.21801983803897815
0.534733294,3.4077547984783676,-0.13466036920670227,0.9841745569643117,-1.4470229419332727,0.75,-0.3520304309498401
0.7347324670000001,3.337152410880917,-0.5490316971115161,2.4186809890483136,-1.8775720574518966,0.75,-0.3882961013844319
0.9347523900000001,2.788257507148511,-0.8371556867565789,3.034035793253799,-2.435269505099949,0.6665329516820468,-0.31150313693048765
1.134739925,2.186491368541045,-1.0521345252457202,3.211213958273882,-2.9623213846306995,0.47428477682941733,-0.26436266903652395
1.33473707,1.6425126245036932,-1.011267463895101,3.143560637725076,-3.5523438861937944,0.37650319259076964,-0.2573431803403921
1.5347302919999999,1.1018781619520297,-0.7053116299557481,3.086894148397266,-4.162294647585189,0.4539081036460494,-0.18504149589996488
1.734730474,0.6055054455487865,-0.22015525166475927,3.5432335136550956,-4.130252268471605,0.5859258266161382,-0.014621332467023013
1.934754957,0.08607824158704083,0.3414659430505279,3.735253802090803,-3.9709280709497268,0.40056357064208825,0.07489265082194738
2.134728051,-0.31059230730167386,0.8489760315929381,3.9719661868485105,-3.6862534245408765,0.25278767758455495,0.13572597161677313
2.334755312,-1.1141929531613415,1.1242499678462032,3.3826158249701828,-3.294396204555183,0.21689168442867057,0.1526084612407777
2.534735104,-1.5610880434150318,1.1125891405506612,3.3386878381403453,-2.7232246345914684,0.2884026331514864,0.14984685302513145
2.734733117,-2.2220153320444656,0.9316667008464787,3.162258796003274,-2.3694987717666036,0.37494419503326804,0.17392939247268113
2.934740868,-2.64051879331876,0.39471007845077055,3.1859419128260087,-1.940383230196629,0.4030221171864786,0.18258426249233445
3.134735302,-2.7010985133907237,-0.2518431207237132,3.318619583171635,-1.5199811115527089,0.3933219446670198,0.18832633978282473
3.334740623,-2.5733767352400663,-0.9653432810362728,3.1539230160876723,-1.0014246824591213,0.4048897096070895,0.19994982279961623
3.534734658,-2.120590926799201,-1.3015007271472985,3.199370235537787,-0.6189857268104182,0.4323541483395963,0.19918612038514324
3.7347352430000003,-1.6733686829707028,-1.544939500110523,3.0106837145675853,-0.1123902590162013,0.4268375310508666,0.21014446504567533
3.934737747,-0.9412794912862111,-1.3799554266792402,3.2469673335442666,0.4520798627725512,0.4400073444546797,0.19515031533994381
4.134733986,-0.4095545959410345,-1.0698141545349602,3.168322684709262,0.7837483188505999,0.4147502370115298,0.18686280568552688
4.33473323,0.062392250797902164,-0.5454691362427873,3.3703931741469373,1.3243641984618877,0.5149327028500487,0.07938786625986474
4.534736131,0.22636043124527117,0.09939655078818996,3.718515710851458,1.1904987115704986,0.46798912041214735,-0.08706951981035743
4.734741665,0.6541570813199225,0.7457113601013006,3.6303379159826603,0.9507787823213523,0.34083431008505055,-0.16201584092620994
4.934738408,1.038656028566493,1.3492172817739205,3.464467525414962,0.4100722192848304,0.30875014541926615,-0.19328284993503891
5.134731736,1.6700825824021317,1.378918538508754,3.3197016853416965,0.0769957136931653,0.32341779180743246,-0.21521072269692626
5.334729784,2.289926215989215,1.5319632164561328,3.2830727678453666,-0.49865789304978886,0.3828518357766516,-0.21710344075138668
5.534809178,2.869095506360732,1.1220824101978317,3.336617820701459,-0.8678445009856579,0.4879929602673837,-0.2363486370740677
5.734735127,3.235639587727869,0.5438720162782571,3.3062739337497913,-1.1809092887694876,0.48274090882888393,-0.22930263778481033
5.934727212,3.177391423212259,-0.13401667290229674,3.2494286201478166,-1.8344013749029437,0.493740380892229,-0.22622805702041757
6.134736122,2.8574215835174575,-0.8207408987282789,3.4570858713683106,-2.195516737622192,0.48128128276612336,-0.20981281036369384
6.334740677,2.482812257674242,-1.387159255789951,3.43540224896599,-2.6032231415556737,0.4398927874050237,-0.18975071824308887
6.534747095,1.844549149716259,-1.408561380612539,3.5464657915537305,-3.002220826333604,0.38877883837104205,-0.19717734890538582
6.734728811,1.0405785001203465,-1.4607563676176247,3.310094132865522,-3.49714486183886,0.15364922442692222,-0.24320452368805176
6.934730182,0.5084556742827753,-1.0811173428009968,2.9088947480499607,-3.928813950329644,0.4037316508915581,-0.21061235093357536
7.13474933,0.2549764144390194,-0.5056287577037384,3.3929848817831894,-4.2719468768288635,0.606101168967475,-0.056047562898687654
7.334704649,-0.05584146541147647,0.12255940608693662,3.7676112788255476,-4.213111911041679,0.3961083215883861,0.06189634409001392
7.534733415,-0.274211341928726,0.9040826500305879,3.725505208255226,-4.026955395389832,0.24567360677576225,0.12767264672785153
7.734733352,-0.9739892410607185,1.2118457009579204,3.424214512892697,-3.5656537227486726,0.19699921832803724,0.15311876634987556
7.934752978,-1.775248317349012,1.4533283413619167,3.100996428426873,-3.0878003897986446,0.2599988733568805,0.1665914495976145
8.134729509,-2.199438431807393,1.2249066104070536,3.087349830473317,-2.6309105248639413,0.3680131882205747,0.18186111875123454
8.334729173,-2.727816301392567,0.7807645178825388,3.118426298257971,-2.116796398985425,0.42157099749651206,0.19532080032116672
8.53473369,-2.9655997271579557,0.03498944027238024,3.2810606950089998,-1.6711008585219143,0.43005778598818256,0.19169938650499277
8.73474557,-2.881428945798715,-0.4945048087746587,3.4064001965634554,-1.2747035925905787,0.45002769755430366,0.18773299161580587
8.934732499,-2.5551173833835388,-0.9457996203534276,3.18806826170867,-0.7385827229170913,0.43034824895042534,0.19367190369125284
9.134858932,-2.0502118506403324,-1.2996545091316232,3.193396937086702,-0.31669637157422803,0.43684277633225393,0.19498124927996038
9.334734023,-1.5363557901300047,-1.4025800767303302,3.2563605688146673,0.1940616710914195,0.4575230130442104,0.1991031563636031
9.53481246,-0.7290641037344769,-1.1336264961443783,3.2806942083287214,0.6255357846147758,0.4098973842632111,0.1901013993079207
9.734734319,-0.29345176212969115,-0.8454859567188192,3.1794213652655334,1.115173579820155,0.4292978323237724,0.15884682672902223
9.93474856,-0.05510208311599479,-0.23691781337648493,3.554009834296979,1.1152590080853817,0.5592452144423443,-0.024943745988628408
10.134745645,0.31357524786047075,0.48518060223357146,3.567425030965394,1.0487291567253394,0.40802364091231963,-0.13986623092216993
10.334738146,0.6222231043665741,1.1360407706290325,3.658497937751833,0.6692275032250516,0.32800500921427994,-0.17712159992168772
10.534731063,1.1503528105595207,1.4946179945791744,3.363706517407896,0.27890900442786465,0.34412539676871917,-0.19823306184905748
10.734725722,1.748105707566901,1.4810333651530245,3.239717013263095,-0.20435088415216085,0.36029248390516183,-0.21691722858828863
10.934728295,2.3901320019207484,1.427852420072524,3.280952336205587,-0.5666665913146418,0.4343710268489431,-0.2329796485991499
11.13473665,2.9421197548765963,0.8066679186140792,3.3140720856018824,-1.03322901240045,0.5247621984586979,-0.23849184427699052
11.334725632,3.1572679354696014,0.3187065915731397,3.2757142243126993,-1.4902903028085404,0.47653348966706316,-0.22956105410902153
11.534732962,3.11012587268699,-0.4606039645147174,3.372342605059381,-2.0083465847937982,0.4916711173189852,-0.21669850400137738
11.734729329,2.704970970060218,-1.0435756083603598,3.448260375456855,-2.5105999169797117,0.46107647756972603,-0.2006467376490111
11.934734858,2.1674778799782795,-1.2865868485167955,3.6145627887189153,-2.642428344297958,0.4071773751139884,-0.2006749658534446
12.134740762,1.4297324025852394,-1.444242731556452,3.4812492782883036,-3.2825310916314256,0.36999440269196965,-0.209203111505902
12.334729728,0.7955040060899876,-1.3180948258044718,3.2228289310175504,-3.7296694159925163,0.34176822463588613,-0.20758112258862718
12.534729749,0.3226840294812649,-0.9390270868090348,3.235774717356515,-4.1085775848249115,0.45915920908514624,-0.16500192345496748
12.734729604,0.0747406921762171,-0.22672412591878335,3.677561898891564,-4.4056436842557325,0.5206982655123811,-0.0013744997692265925
12.934730287,-0.35769195055858605,0.4734727285675141,3.6195354227529135,-4.033031172479697,0.3131262731437362,0.08521601589699518
13.134774631,-0.8912065708797688,0.8925096654357613,3.734670007391582,-3.827390265725028,0.18345639110367068,0.14538020252340056
13.334730797,-1.4452542204080394,1.4559315397077799,3.2945696038141774,-3.209852205023679,0.17572608690666155,0.16621628331796318
13.534735499,-2.2490611443962565,1.2870483934790975,2.9287517189746484,-2.7180073523551185,0.2753764123594641,0.16638504808691795
13.734743683,-2.6368924262756526,1.0677356029021619,2.8904028396191603,-2.3442865670425537,0.40343430913217376,0.19938827320899552
13.93475813,-2.9413564630484257,0.5915816352317846,3.002900865607759,-1.9181316879098407,0.45534472454145025,0.20424613060662028
14.134731463,-3.1776920314663357,-0.14723317464117383,3.0995966801835357,-1.343297942874095,0.4518713753213726,0.19894941494511414
14.334728751,-2.888190843692563,-0.7174957326353181,3.189826257814641,-1.0571363718594757,0.45589014342260853,0.197187302705542
14.534742199,-2.288128752659911,-1.1935718778217943,3.3294924836587043,-0.6035654787372022,0.4632882597967229,0.19556651116759155
14.734736526,-1.9352213683772355,-1.4621472631296497,3.2315674211737333,-0.0847896578004074,0.4425686289723892,0.19901392359934716
14.934762376,-1.202388518700945,-1.4526607532104192,3.3141161143673727,0.40877753722935295,0.4250342232644472,0.19146665603099716
15.134741974,-0.6323160700872293,-1.0197601771419231,3.326483763900677,0.8334904072729764,0.40513919438689433,0.17654134678913924
15.334729013,-0.33220491691895243,-0.43055205822983017,3.234644032935158,1.2405050506339999,0.4707190252483564,0.08352560745694855
15.534741891,-0.020078502315546705,0.05731199105738738,3.7662026748935973,1.291963081453674,0.5096415186630999,-0.1045627961654016
15.734736927,0.2320971781141744,0.8538885266648412,3.6727523189327775,1.0653919654900172,0.3583926588867737,-0.176314402827143
15.934734289,0.6787562419243248,1.2193920073900633,3.692624204829027,0.6430979845559257,0.32000276664201727,-0.2026980939768778
16.134812233,1.4262286617858844,1.8486629895214,3.291271833854399,0.05990976150392777,0.3604727368876043,-0.21376572131338548
16.334733672,1.9845995738027442,1.54675701673917,3.26566596468239,-0.33602918030225726,0.4596309401802432,-0.23207707853318393
16.534730592,2.5784967915898576,1.3611102939616206,3.2794304460986305,-0.8236560556959134,0.4464027059323791,-0.24716409556473357
16.734727512,3.0327366770789554,0.6808925719509702,3.3164746782195764,-1.3036933920520486,0.5052908720061761,-0.23968044933299962
16.9347413,3.186546240760177,0.042828874346012874,3.335593186313317,-1.526853848476305,0.4916705032730846,-0.24075993099578152
17.134733956,2.8165060548021503,-0.6490150804142721,3.468202333655047,-2.0637858850889663,0.4774232732970285,-0.22593212786243178
17.334731742,2.5196634933397455,-1.072753219854794,3.534594925780968,-2.5679147145914265,0.4402830047012044,-0.2183906711073525
17.534774281,1.7090827795213557,-1.4031667317723753,3.382249606302246,-3.0858147412786736,0.3753619149017809,-0.21354270438451706
17.734738331,1.1751808784719255,-1.4288903893664255,3.3978878883752976,-3.5579439972333304,0.36370890813141266,-0.2171631427344114
17.93483326,0.619348533975437,-1.0299958111595793,2.953009656055597,-4.044847457706337,0.332430601038371,-0.2598682398143162
18.134736047,0.2658393324964248,-0.4860759630816581,3.2900765580515676,-4.176826375130622,0.5919192694544835,-0.07117018417928911
18.334732609,-0.10721173482299413,-0.044416469028277214,3.765875554329758,-4.332077550403853,0.4315115196204776,0.04755668260578367
18.534729831,-0.4321813170413951,0.6057307381002289,3.7355271158910246,-4.0400234438091465,0.25400149948829204,0.11287815262485446
18.734733932,-0.9295592207636063,1.1270196424178511,3.362238960051245,-3.6504324962109953,0.18054049122869362,0.15427295185858045
18.934794517,-1.712770542668487,1.3247557612046705,3.1004462281311085,-3.022925977399797,0.24334069281086962,0.1562281674370864
19.13472975,-2.3837459007668182,1.1752851465997847,2.986192913436467,-2.5413734593230046,0.35642873697676936,0.17291192373536968
19.334824416,-2.8428535526811975,0.7927985318707149,3.1441113040137374,-2.1889801313542967,0.440572914736328,0.19427806377462287
19.534747223,-2.808952444814644,0.09393380230542053,3.15772511453515,-1.6493629945617103,0.4364579111832501,0.1830629374528641
19.734731985,-3.0489701051248,-0.50226092962981,3.312374972907205,-1.281669682509952,0.4343278613219659,0.1824901270365281
19.934735731,-2.601210889706864,-1.0068826537132007,3.2324869819725124,-0.808213279396337,0.4479461577996016,0.18417424641449212
20.134752779,-2.0284545724324894,-1.3555459331763893,3.20577937974525,-0.20585509400258906,0.4464702775406957,0.18294884539572845
20.334731529,-1.3407304049678537,-1.4643352372342233,3.26973391960813,0.20871767609000488,0.4418072880410441,0.17659672957364844
20.534840186,-0.6347221092270402,-1.1177796595183467,3.1188657801452737,0.7374360969962863,0.4162546781097506,0.16179191421381625
20.734734917,-0.2614590653110454,-0.4804923818444103,3.356845941540418,0.9842095013420324,0.4398202726995831,0.13118111347851774
20.934734391,-0.18909622537634435,-0.18352260091398326,3.434337949083807,1.17714942129912,0.532411694760558,-0.03574381537758677
21.134726975,0.25809125036354386,0.5994102414807411,3.682449819690909,1.1204725260760933,0.4100316986020617,-0.1410366955790881
21.334819948,0.6133384784106167,1.187611396177014,3.5819492099025427,0.7595324640504468,0.32880476225666255,-0.1894406820898579
21.534729438,1.188955286998567,1.5268537723896378,3.360113369925333,0.2863510470124587,0.3502314775553065,-0.1966980946519215
21.734760263,1.9451067712347982,1.5953776357809775,3.301057362020086,-0.1876535765105708,0.38183164975292266,-0.20558481016595417
21.93473617,2.4921975770273335,1.4360198844989962,3.3475419610416406,-0.6268417829119635,0.4354539253574342,-0.23116675366351336
22.13483736,3.0433315200476443,0.9242183347987596,3.3542938786091234,-0.9183203439756006,0.5049051408409995,-0.23402453290051944
22.334734711,3.072069217605234,0.4535613138392578,3.3686815122212086,-1.4198771330065922,0.487154592327749,-0.22261269874871997
22.534737357,2.965427442935441,-0.4898342489313273,3.516985332745403,-1.9542236888210913,0.5072049098208037,-0.21626271497276645
22.734752177,2.737552101358981,-0.946817858022579,3.50594780236962,-2.4787024692523962,0.4579026840810554,-0.20450852592555507
