time (sec),x position (m),y position (m),forward velocity (m/s),"heading angle (rad), from x-axis, positive is CCW",throttle (unitless; -1 to 1),steering angle (unitless; -1 to 1)
0.131611862,0.08500116442475691,0.11431687784595014,-0.108512957493501,1.5907630779193591,0.0,-1.0
0.331700606,0.1474622942190167,0.22605461502936763,1.2782381529026834,1.333811806799444,0.75,-0.18598211983562182
0.531620599,0.32990234049488354,0.557419419169155,2.6907412685864385,0.9959077569797175,0.6962533048005165,-0.2591711101849302
0.731624291,0.6290310803025896,1.0254645191850034,2.968547579782829,0.5560424112022043,0.39490107807500774,-0.23849794573522307
0.931620839,1.2050299804166031,1.0296797798135096,2.8252831466117843,-0.023719046491204043,0.4198671722725092,-0.21946883856055568
1.131642223,1.7010563706575859,0.9564809786799239,2.8538579057882556,-0.5452420889721378,0.33304962143739564,-0.20212618919070174
1.331619657,2.2154045462406216,0.6549524153116907,2.8043370532351015,-0.9489146454235992,0.3348595091230204,-0.19903854777981986
1.531702962,2.402584695433862,0.13661048974766796,2.8107395892978633,-1.376619457082793,0.2842503857656752,-0.187881888990313
1.7316342420000002,2.400655360400552,-0.44724652025637646,2.7612222314123502,-1.9715884861115467,0.2959582873325317,-0.1996957027233619
1.931619058,2.175663221182637,-0.8459835530477958,2.6836336748975915,-2.2579752974021168,0.294132785828074,-0.20683227954955774
2.131620624,1.6115832393466034,-1.2512164713339526,2.907614442105149,-2.847795752336496,0.29503821590316087,-0.21353218696827858
2.331647758,1.204118508953819,-1.2988111982314408,2.651515601758956,-3.1848097882807545,0.34175111098784244,-0.2135091773982496
2.531635085,0.6724151644403138,-1.1180815320798327,2.833875318809507,-3.6871657333661783,0.32782218870355806,-0.20154752446854568
2.731696595,0.3127143597988506,-0.7813158720718978,2.776772629452651,-4.101975078310652,0.33197137403956484,-0.20689502645530872
2.931627985,0.09014383235306143,-0.2654457232325852,2.872234774999345,-4.696918326921578,0.3666373382097035,-0.03476612542918733
3.131704785,0.005302010279975372,0.5499709412640811,3.1653020156946896,-4.3151159101442875,0.27535446210281117,0.17892185595516608
3.331639549,-0.4327483466212553,0.9994034982970995,3.111716929365356,-4.00619641243191,0.2615169435060152,0.23278382601695893
3.531619036,-0.8107549822064698,1.2359308821216155,2.8675778590087333,-3.5074001400704526,0.333424245687568,0.22273162139828315
3.731617972,-1.465269625100353,1.3056918589325086,2.981909464733061,-3.1283759347953977,0.3333561822381314,0.2049423356131913
3.931624502,-1.949890432795729,1.148294494675718,2.9433539343731465,-2.573294126517151,0.29833472865604416,0.21747427270018316
4.131617906,-2.3473611263214393,0.7699533684772628,2.9343420215645444,-2.122329592118403,0.3305724676257699,0.21333484667514604
4.331700766,-2.59798779393349,0.16124873023415837,3.0164430573557937,-1.7705785224680928,0.30803871462039517,0.20866919217985325
4.531621424,-2.5716835342174416,-0.34882427389894854,2.8831247353124287,-1.171520731701264,0.30537805834887677,0.21810430041712486
4.731616779,-2.203158618338767,-0.7581609068054055,2.851310910055513,-0.6951285094721875,0.29505270177470166,0.2167251891980564
4.931621669,-1.7923423877181028,-1.0661861138874176,2.720136064650427,-0.12854097874063042,0.30088955541988693,0.22248343420589795
5.13164774,-1.2098393739582545,-1.172139136550572,2.925147617351113,0.17454906434418302,0.3178544805502286,0.22755513916166062
5.331626692,-0.6594195951002997,-0.8621122835594575,2.8070030063185434,0.5426021410775596,0.31256635980803515,0.22196051286216098
5.531625214,-0.21149266901189162,-0.593080168351289,2.853760375012983,0.9848451113770336,0.3214904254857393,0.22897846047483705
5.7317314370000005,-0.11185104685750304,-0.15651271028598068,3.126918571197625,1.306884570588906,0.3725225695303178,-0.019208966872006437
5.931617483,0.16263244649491065,0.48544447026600646,3.0141376531879978,1.1498636884896782,0.2967831138203758,-0.17315674217044708
6.131617436,0.47935900935847353,1.0576165932449395,2.960820055191947,0.67706316939821,0.30366461182985055,-0.20485752627133536
6.331620758,1.0389447928463111,1.16209306422411,3.074197409712923,0.1591513691387256,0.32162789460220353,-0.1924404185521084
6.531623262,1.4819531184321046,1.256273827200768,3.01241423038235,-0.2492586152677245,0.31917844874086304,-0.19379495081156445
6.731639222,2.090430558648284,0.9042827037002374,2.7762272561845407,-0.7104228636297212,0.32894751898778607,-0.1991594092784218
6.931704579,2.4411401792168874,0.5562410395459237,2.9040074628586647,-1.1500994556217121,0.293917196917916,-0.1840373160374695
7.131633429,2.6600294671360065,-0.13235973979490545,2.7636184614329338,-1.5514208249174124,0.28603923052815183,-0.20586983489948035
7.33163921,2.4536166208819497,-0.8435576018071298,2.837570156601163,-2.0747807918878745,0.3053851375530485,-0.21342563806940135
7.5316677290000005,1.95312679123347,-1.0482674739947353,2.7112696277148816,-2.5133595142150433,0.29156380660879444,-0.2131553491864127
7.731630753,1.479167078164503,-1.3044525252425578,2.6448218780847954,-2.79960485387256,0.30847236295704916,-0.21168403154620663
7.9316222530000005,0.9229842050332843,-1.1273798939822637,2.8044020970346315,-3.5593555476792407,0.3285364654550819,-0.21554329968501756
8.131620129,0.4815233061884961,-0.9526549782767468,2.693208372099599,-3.9342354605524417,0.38697245672280856,-0.21270844226918306
8.331622818,0.24149436387187118,-0.5641762224524925,2.8292025912249033,-4.467370434880013,0.3560201110860063,-0.15163872468352577
8.531722867,0.07006395750044349,0.16876953140236645,3.0511721740698996,-4.408308992914477,0.33107362638329607,0.08760967193938976
8.731622075,-0.23567607082918451,0.790710010353657,3.2091343906250414,-4.096494093039108,0.24948176870468447,0.20534148026350743
8.931623051,-0.5325438394619528,1.0358536493421926,2.8936996649361943,-3.7085967535208875,0.2849104877548636,0.21687051773316812
9.131712624,-1.1240561123641721,1.4152055080741353,2.9024299792678905,-3.2799170619243223,0.33950277648371985,0.1915679006800601
9.33172371,-1.6864377307674565,1.3254400032042366,3.024545545396535,-2.7950129987609587,0.3192990601543406,0.20987819370619973
9.531622503,-2.2760680918300764,0.8783292922659988,3.049439908513503,-2.336851606465192,0.3146470823310224,0.20842770129457153
9.73162346,-2.500692861926868,0.5143585272282355,2.8971857924828233,-1.9368919545289731,0.3123756643491765,0.18875706190107924
9.931627099,-2.516441837310871,-0.030978725481988698,2.8396521770236727,-1.5125533754438114,0.29552544990753526,0.21444769357722984
10.1316141,-2.4649090775594584,-0.4781568252775497,2.9135197724395816,-1.0825880905444338,0.296620234504514,0.22126944964266929
10.33162378,-1.9593025735043617,-1.050386583204283,2.821453665346381,-0.5672154578296859,0.31097419654707636,0.2183583955003301
10.531638688,-1.421292962959802,-1.2951588843350057,2.763979188306729,-0.11103038479115378,0.3103798605805116,0.21185486737999304
10.731643551,-0.9415194345840915,-1.1557456335831242,2.7838256137645447,0.4283571308927221,0.32576186371871807,0.2268767067348879
10.931638756,-0.4857402293415732,-0.7805299975666421,2.7119173928308564,0.8586057030464997,0.3234676532891793,0.21973977290638438
11.131621329,-0.15203729278010317,-0.24303674106132073,2.8853302275637804,1.2232550235935855,0.3464333713241591,0.10950009126358906
11.331631793,-0.020684838653735535,0.3903002945370183,3.0448010252512434,1.165931305074007,0.3345671003565297,-0.10268895509898913
11.531635119,0.3245677180483686,0.7759808602777777,3.1120166847164006,0.8203244112508368,0.29374370977002084,-0.18375790648671703
11.731705748,0.8610064070262096,0.9799280176467248,2.943830654108932,0.3852995573969148,0.30961052685807006,-0.1892089127752081
11.931645089,1.4252570461587961,1.144557599755278,3.047686907798799,-0.04952041060480482,0.32644490967096795,-0.18517206518503276
12.131618957,1.8234515530056052,0.9987010027924362,3.078979620550495,-0.5556014956191095,0.3114709328172169,-0.17857612616706187
12.331620754,2.2062430751585955,0.7035432522191909,2.8474653333742386,-0.9156009189008385,0.2908498492387347,-0.18955160459779388
12.531641966,2.4525960246590968,0.2803144559978289,2.7835755150058925,-1.4800155445304728,0.3019013058166238,-0.19906687149649785
12.731624158,2.583999245349564,-0.38859976070905783,2.9094287391625224,-1.8677918431541123,0.2955256894828168,-0.19498440612937562
12.931621076,2.2097002235221757,-0.880111065018942,2.741163505154104,-2.2456777024118915,0.30121981864926867,-0.20290087376479982
13.131636458,1.6302801653148635,-1.244861219369249,2.684773090340301,-2.719590370305156,0.32424757748694844,-0.206838648409378
13.331620258,1.1607643264668643,-1.2164033609126257,2.6176884555315842,-3.1614097038491127,0.30540610953961367,-0.20639344008219707
13.531639323,0.7120642536828815,-1.0912588673268944,2.747788061879714,-3.756142644006478,0.32461873725825796,-0.20819802465287088
13.731702557,0.24780820922002522,-0.6233578603063085,2.821326356384284,-4.125867703188271,0.35796999769351645,-0.19816425622767914
13.931630358,0.047430399189417494,-0.2416488719820466,2.965151592731685,-4.577079734385731,0.34104790106849725,-0.031089648176046966
14.131624045,0.01832767963477795,0.43429729024476926,3.1000249759571,-4.365188241441042,0.2709116003744922,0.1727047196070863
14.331640912,-0.3514857675761652,0.8978480395032616,3.0072035545081692,-3.954039432122149,0.2742029995686231,0.23167846091495206
14.531618986,-0.7401333539456233,1.3201604619511993,3.0035017940017696,-3.4603350252576894,0.30506030106146664,0.20958489176384743
14.731677779,-1.5089954163995734,1.2138826154162627,2.972848308261574,-3.0115531121562857,0.3362496302634789,0.20766391260073502
14.931622909,-1.9473444521426528,1.1969151129820328,2.924114452925257,-2.6109175645499927,0.3382065887682413,0.21999704851635557
15.13161629,-2.3918765090250877,0.8467270816147724,2.924448887543384,-2.0774603696406615,0.3072249586239859,0.20146566325924153
15.331628332,-2.5171120043431086,0.22158668701822942,2.9869662795349816,-1.6098801725705996,0.30651672086055193,0.2100290423761824
15.531618727,-2.468988490741105,-0.3177400285132706,2.817053247131326,-1.3162410912994913,0.3215930253345856,0.22012639617535562
15.731623467,-2.1260695038491852,-0.7279542400762491,2.959225564767669,-0.8250786298167109,0.29504237741800565,0.2164384592295842
15.931621464,-1.5701748229712242,-1.157035805476006,2.934545607725681,-0.23404415914108367,0.3018251999488812,0.2110147380236245
16.131611762,-1.0687860105783595,-1.2738178964888403,2.87427062961617,0.24277170316297814,0.3187538953610966,0.21867472714143696
16.331633853,-0.5890120489329639,-0.8915156535684625,2.771218259440037,0.5106354352489405,0.3079666565596597,0.21265632398524736
16.531622648,-0.3515038651705388,-0.6004696140238511,2.8544753434227164,1.1272999433587034,0.3194787577614669,0.21654700809746663
16.731624734,-0.15672032001690006,-0.006649505217203292,2.9896081042901734,1.1988069046622116,0.3638466979831535,-0.015285360267027237
16.93163355,0.020115298535392095,0.6605719768093893,3.0738213101712097,1.3245455727756714,0.30609491444810316,-0.16523092398908207
17.131647318,0.5211616915000122,1.1010012567575196,2.872528683376527,0.5449106309635415,0.3052742929135669,-0.19404111123917608
17.331716472,1.135570783286226,1.2847576961163742,2.900880779182937,0.1577461324484715,0.332329368135057,-0.1862530952684967
17.531694992,1.607486687590446,1.128713006524058,2.9582261411129727,-0.3420475043622392,0.3200514571582614,-0.17259084704093403
17.731621188,2.155133365605091,0.8798690890563744,2.984221619975787,-0.6398355235405868,0.31229543061515075,-0.18128178278936585
17.931623628,2.474359273788692,0.3142400962512024,2.9416378355379607,-1.1222587443792638,0.30079868084393985,-0.17888785112737562
18.131627888,2.5861193184737603,-0.05969932615671997,2.998910621404372,-1.5184190550929513,0.2917443942753166,-0.19316003346000332
18.331635344,2.3569197391505963,-0.6044003082828179,2.8634920283047,-1.9809734040606857,0.3026593997490252,-0.19863685533230377
18.531626319,1.9375518051026261,-1.1236088644913083,2.726878480939682,-2.5606024838271075,0.29754502148056894,-0.19846657676192606
18.731666764,1.557794254545128,-1.3078357338466895,2.905717608952761,-2.9571553070709675,0.3026757683275363,-0.19914459935268197
18.931661794,0.8164179862406806,-1.0632526401478328,2.675976864425258,-3.507695782672518,0.335509832783138,-0.20102114786672212
19.131615591,0.48205527264514436,-0.8115723195926342,2.8220223824547186,-3.9918463706112775,0.32417269436855145,-0.19221403218954028
19.33162848,0.19052756541503485,-0.48743497429591187,2.9325827455673124,-4.50822103871935,0.34588171950488455,-0.12747185431509786
19.531624106,0.05045552729771587,0.1264796729477702,3.132134897238876,-4.497602369545616,0.31322703765963567,0.0889841964403985
19.731623585,-0.1257421762717145,0.7678063457308244,3.0239572869079496,-4.12376538029837,0.24385832860748544,0.20724075818853024
19.931622026,-0.5058125813618352,1.3026515607723521,3.0051777583672825,-3.6924189419027282,0.27263438116965705,0.24546602865531128
20.131658163,-1.0783900256183117,1.3272498054039632,2.78392299690186,-3.3268810997547886,0.323858501124331,0.22089597859706622
20.331631813,-1.6302959724218022,1.2403666340281654,2.9806062039160732,-2.7022173488631838,0.3536661257192137,0.20237551737880968
20.531638914,-2.2249500864395837,1.0749905331420897,3.058480648455379,-2.377251873292882,0.3498442289389204,0.21710218615152424
20.731626185,-2.4965293630556538,0.671825979769102,2.8375746108027133,-2.0380399708401056,0.3056149913140704,0.21163738805481053
20.931623566,-2.418126190153475,-0.0781991175666493,2.8771648215549246,-1.4400663353125847,0.31444735116105393,0.20605315760584947
21.131641293,-2.456791847907563,-0.5020418640979067,2.8925525113874757,-1.0946450973561788,0.3298111006960771,0.21428093112829105
21.331738042,-1.9893006864569152,-1.004526812417867,2.841013974928931,-0.5148294944773864,0.28429269753927,0.21700432549412438
21.531697712,-1.383608558391915,-1.0479980597669758,2.8069169398311504,-0.08432848159125542,0.3163993050821434,0.21968718012229696
21.731627082,-0.8326566311300684,-0.9961979732737766,2.8118797795733648,0.43136176247815683,0.30525104829698035,0.22061294710203314
21.931643925,-0.5316937461495119,-0.8600399489271321,2.796721167206546,0.8906539058734149,0.3077249369241179,0.22478267587930634
22.13169744,-0.10056095793877584,-0.2780290273480751,2.996545382639142,1.2631184475092667,0.34653361365095464,0.12072340609062775
22.331620435,0.0435119474048314,0.3395442121915906,2.971095254413099,1.2112800270035615,0.30963267987023696,-0.09791897106413794
22.531635751,0.26774323040383347,0.7447160339752601,3.0790917271444282,0.8335045794895434,0.2924279120597761,-0.18599908602550402
22.731652579,0.698256378182745,1.263851599562466,2.821629461308604,0.35959106319698975,0.33005729167748304,-0.1916645975541889
