time (sec),x position (m),y position (m),forward velocity (m/s),"heading angle (rad), from x-axis, positive is CCW",throttle (unitless; -1 to 1),steering angle (unitless; -1 to 1)
0.12533423800000001,-0.10794889229535003,-1.131531899834562,-0.042432042119101614,0.8332828885405592,0.75,0.36439552579620416
0.225351879,-0.010430001221449298,-0.8891074899562176,-0.005392237386358294,0.7999849533929654,0.75,0.13663079011123494
0.32543446200000004,-0.06407616587307702,-1.1452589898354237,0.07319509377306808,0.7342759004229643,0.75,0.16894957369432348
0.425356905,-0.19098515607175603,-1.047740779206291,0.5861181237188128,0.782872070485044,0.75,0.22309924159696107
0.525367337,-0.10525462048426998,-0.9487500567656346,1.6009785716391873,0.8454680044436026,0.75,0.2033858316069656
0.625350972,0.04066324238093596,-0.8873059290493499,2.0771699746293573,1.0259853960642287,0.75,0.11589731256812809
0.7253710830000001,0.1333864107051998,-0.6437948914647652,2.761131323227745,1.043147475073492,0.75,0.006443851997855285
0.825352606,0.2474415535651,-0.22230206292034022,3.216296617282084,1.1471839644590498,0.7251324277168926,-0.08681094326761636
0.9253694130000001,0.5025777871610496,0.04667172752928127,3.6145384322184255,1.012006861311236,0.5192584849123395,-0.1319044344844863
1.025346028,0.8023296098228389,0.21344011475293762,3.6152898992129354,0.7921730615169406,0.41241170914937086,-0.15496102220006938
1.125339672,1.0956271170574998,0.6044413861990114,3.5671193593212123,0.409158300499457,0.3523471019878397,-0.17251519324343756
1.225349501,1.2653066246127818,0.6027256040797984,3.439540877004955,0.32902175463656,0.29663657792926273,-0.18101940324301732
1.325344707,1.6422080447955585,0.7698623239611897,3.443642262410426,0.100356220117638,0.27823222756000704,-0.18664395506541254
1.425343182,1.93230102834697,0.9021650285289736,3.250650765122758,-0.1117493244404533,0.28994849578239174,-0.1982290519531421
1.525362306,2.287189170538974,0.7561908369738753,3.2214615447207895,-0.34360912202972826,0.28943402903677584,-0.20130808988773136
1.625348156,2.5999421429898244,0.5965589559506966,3.2324063122479596,-0.39045067176308723,0.3660471796481399,-0.22161412016847748
1.725344635,2.775784884854553,0.4123056314334331,3.1412568267260537,-0.8102061017886164,0.3767076489185953,-0.2342290150980938
1.825349835,2.9203010537975618,0.2198314637864192,3.1905716471286443,-1.1198182892131436,0.5078235626416868,-0.237053625079222
1.925364381,3.1368693041586697,-0.15705311547632467,3.0823313975808575,-1.2717881301489071,0.4516178327978617,-0.2383468346147468
2.025368856,3.2680125558275526,-0.4053628280515963,3.1259776057267206,-1.6829320169345634,0.47833092587732917,-0.22978542143521685
2.125346618,3.2422995179337195,-0.7638082897427729,3.286248018572337,-1.809846199510104,0.46963903121567996,-0.23340370353695697
2.225348164,3.0355664104995834,-0.9753082924606199,3.1615518422248483,-1.9638730650147929,0.47984564436677246,-0.2256098400212725
2.325350491,2.8378470178199113,-1.1459428392362134,3.3312875495285095,-2.3967716479076304,0.5255265080743399,-0.21960900687303947
2.425431453,2.57347589320787,-1.582347772633545,3.305300354757495,-2.4370400285634326,0.49799616489408494,-0.20964540539120402
2.525343301,2.6223622589513718,-1.7268919753404743,3.4395481623783146,-2.684011258127246,0.4780342472554318,-0.20757874580868774
2.625368249,2.2181458492998494,-1.7813569028890066,3.281281824347522,-2.8616818121778214,0.47050757739982285,-0.20366834555722765
2.7254374180000003,1.7575564676352482,-2.020256399828548,3.3255198608283933,-3.0966212092285716,0.44800171888553086,-0.19936439623600533
2.825363947,1.5411461900311931,-1.8836662317828803,3.46410315755732,-3.403382690705301,0.41954361022610587,-0.19640156845057094
2.925348725,1.119776564480037,-1.8017366878045522,3.372218003281245,-3.4279363124984377,0.4100418239492111,-0.19688407293755322
3.025400069,0.9459391829490394,-1.7844168271880316,3.3749728168758635,-3.795152929274617,0.4114689197450265,-0.19977048423810487
3.125337725,0.5317496514939563,-1.397961195476841,3.318406981887133,-4.085504910471443,0.408007381126923,-0.19374904225180745
3.225347343,0.3942931852495703,-1.273446438773217,3.3801299571855097,-4.150649036790477,0.4526171932306697,-0.17598202869230603
3.3253925840000003,0.3415572124817639,-0.9867890054601448,3.5053553053767335,-4.220998497098585,0.5468061108712177,-0.07317651233053779
3.425435713,0.10206780437382415,-0.5686570965128468,3.6342260345513515,-4.294429173906466,0.5136838124477746,0.010933267851656481
3.525349849,0.0025784440873981157,-0.32866149698155833,3.9269920517876042,-4.274597897583797,0.4160298196691082,0.06677952895598879
3.6254399409999998,-0.23056296800682274,0.0962566201734112,3.922250712262714,-4.1788819638987516,0.32975719014415933,0.10739875925694707
3.725354229,-0.33618662753113915,0.3812308957687598,3.870190264393617,-3.954610966180354,0.24235481421783742,0.13351316835251845
3.825348469,-0.7410984927244015,0.6496021557148217,3.6337324687476533,-3.777156708143519,0.18959659006324842,0.1545844458298949
3.925355695,-0.978767288386819,0.9743791026716377,3.6075552409968896,-3.5734162966895138,0.18370567077635788,0.16240718268404924
4.025434417,-1.3693634109431565,1.0768377656666408,3.417947577823238,-3.345580808848043,0.18938115997603458,0.15349854577520194
4.125340341,-1.695790084243879,1.0863108318023316,3.10377342013831,-3.0417389976845888,0.23633332842780527,0.15863031178989018
4.225424828,-1.9030256217855548,0.9368970678580381,2.981488333733815,-2.8804069178535348,0.3034293259492182,0.16239995958407227
4.325346752,-2.3271341290374448,1.136345427708919,2.7839129547406665,-2.603164593435225,0.07691107686225677,0.2625782641772394
4.42534603,-2.416613524569496,0.882042540241265,2.6875293343298527,-2.3499069543048017,0.30393942586261385,0.23750759277767525
4.525406746,-2.611933816871108,0.6564076538030631,2.7370429233873548,-2.2946367883208745,0.5307618982013599,0.1667698399184479
4.625373179,-2.842720379978684,0.3500583806635212,2.948391872412805,-1.9172143838740936,0.5042249052220648,0.1702045858371805
4.7253770280000005,-2.862499611809363,0.02453409244849858,3.048011033649734,-1.617220155688909,0.4388544497002824,0.17875725230726056
4.825360089,-2.9263213861478223,-0.2828140972876804,3.228254854342057,-1.6367538757205529,0.4250412643827846,0.19143177380843795
4.925363958,-2.7471166714596458,-0.6847093390741166,3.0364236975174443,-1.2363138372818303,0.39572007006931936,0.19693899808942722
5.025347911,-2.629682544963484,-0.8518375317532252,3.1311406627814478,-1.110155382808129,0.4103362522760604,0.19718076742352758
5.125336041,-2.544711767475491,-1.096383058192214,3.0918174832099408,-0.6828625486954033,0.43563663839993466,0.198141311439548
5.225348446,-2.334300275305951,-1.3917673397513792,3.253143862280611,-0.6709200808327762,0.4687306252725081,0.20011169847121266
5.325343866,-1.9634885981913004,-1.3070474129140428,3.134690027412235,-0.31108596219451345,0.45768212835773314,0.20300585305261643
5.425376721,-1.7009995706868517,-1.661970319133994,3.2848875054879616,-0.0819312018496527,0.4418962320520605,0.19862199221811516
5.52534805,-1.2209292014981017,-1.60900485055301,3.3497482353455084,0.21908703224183526,0.4597054986697994,0.19843545345328173
5.625436566,-1.0183202275658676,-1.3760574761226936,3.319549618786474,0.3322132263132994,0.427623879408626,0.19496406324038487
5.725392951,-0.7216818805534017,-1.3309423570638679,3.1925609561814854,0.5424501996228411,0.40289517271174385,0.18242654378080833
5.825453592,-0.406015938840243,-1.051276164179839,3.206734292344722,0.7304567815388603,0.410429490569025,0.17307556597894505
5.925360727,-0.307035869211236,-0.9367003164567865,3.1868247575889956,1.0942306684823802,0.4240448488587739,0.17398299061570519
6.025359367,-0.08082350916503298,-0.6910097300594082,3.320104137893253,1.2174081235760335,0.46917228096274544,0.11187938159744969
6.1253364359999996,0.0001325084805909177,-0.26143601943831307,3.4326482364184248,1.2496185163653228,0.5488219855899156,-0.018720937810906405
6.225368021,0.08549308726015824,0.015527913351966103,3.573602936996743,1.2691497868969404,0.4891347057947109,-0.09128515769291903
6.325409377,0.20815440864921791,0.3701764807768212,3.6835229966961367,1.1307759119448675,0.41919290493591815,-0.13365907937555757
6.425350911,0.4845692625060031,0.6036735473920463,3.550869715536206,0.9233601412943304,0.3907862399608567,-0.16190897587219524
6.525358968,0.6527992397231738,0.951141822146962,3.547636081208036,0.7188706230311419,0.32539638688114436,-0.16837773015460897
6.625347428,0.9119306061151533,1.1976781554202303,3.49566469385977,0.42047755183413127,0.313098745589285,-0.18723481861513802
6.725419938,1.228668297292024,1.2255563178929694,3.5670046390306926,0.3249854969491163,0.3308235710355378,-0.18226835048620232
6.825367107,1.7207638002925434,1.3863083557193159,3.2641345680154625,-0.0612673815677207,0.34274417052167083,-0.19084518065206924
6.925348033,1.852081489518228,1.4212175125741378,3.346724929140463,-0.15166273455632387,0.35562117931579895,-0.20177162619409064
7.02539689,2.1161049764304396,1.4050745456280678,3.2020297236982427,-0.3156491290540651,0.3801942282632516,-0.2054668376042941
7.125442078,2.5225177143002706,1.2675752751341212,3.242281064313454,-0.5529408285984191,0.4193679326105838,-0.21617871649590434
7.225356542,2.8181356868486027,0.8732808676762469,3.275055868967529,-0.8072153740663524,0.4182761298261404,-0.212241294459493
7.325364694,2.9150102191193312,0.7655649553701365,3.220336133769943,-1.1371722372018476,0.4445310323148104,-0.22444821052900218
7.425345786,3.125320533041859,0.5065312500000653,3.2367375055587813,-1.2609505708348805,0.4773057658173213,-0.22735083136915216
7.525355971,3.1997035319513416,0.11870767392024842,3.3042368434254095,-1.4960106026268372,0.45193416002478937,-0.215823440204868
7.625346116,3.133456403136503,-0.12923304223959392,3.195111967069679,-1.7021689866116931,0.47703712283926825,-0.2195721877858144
7.72543704,3.050738438050247,-0.5873541905614007,3.440535784640731,-2.0631077104347324,0.5048485757362247,-0.21450507284466136
7.825343878,3.0847724620872152,-0.8536103200031588,3.3585147570171205,-2.108513398378757,0.4776863716119,-0.20377143496740122
7.925368079,2.764642975622585,-0.9747474511268042,3.4525041189991375,-2.524638453269412,0.46531215549437344,-0.20280266662856888
8.025344362,2.5673578600546856,-1.1937340278771698,3.529359994026945,-2.664233692941758,0.47167437266219714,-0.19515755990159558
8.125336238,2.1970299622691947,-1.498359901338048,3.5150064865264494,-2.751149469004088,0.42796758956831604,-0.19986578029682128
8.225344648,1.9740050778082292,-1.5185937941137906,3.495114981743315,-3.1288122753980887,0.39432127060065514,-0.18887574401936816
8.325347076,1.7118674329475327,-1.4926373811632574,3.3446800606363554,-3.3662452119934723,0.38346440470128634,-0.1984796424723568
8.425345258,1.0927469884887138,-1.4142985507694201,3.4017219794685154,-3.4645304191343422,0.36331319853852795,-0.19754442426994676
8.525345537,0.8537016120353036,-1.2758997336805817,3.3518780555677146,-3.7059802379940354,0.36283913063849826,-0.20107891113434637
8.625344656,0.6458211462077432,-1.068306512974947,3.292674267914466,-3.8247761988535625,0.3831218242644202,-0.19162646485303997
8.725345397,0.3730753463814311,-0.9288946324139582,3.2751003517797503,-3.969481784139472,0.43996842312766954,-0.1705275280162496
8.825347028,0.24121730027027669,-0.6425629716976711,3.3946570401690654,-4.351311649486825,0.5031197394224014,-0.08628571256627565
8.925347327,0.053683054014305405,-0.17754808035206782,3.633941182902856,-4.392192001819176,0.48652153899169087,8.507574179937669e-5
9.025345803,-0.07045798861049732,0.09352897462948151,3.7669632511051825,-4.153207622598225,0.4208574289338953,0.06206168172902894
9.125337338,-0.28694676145699566,0.48365242756938737,3.7707914672975638,-4.072956939112376,0.31339814916557673,0.10099432245826216
9.225341947,-0.5181452383180374,0.6936182938090129,3.7022282210417563,-3.9723453186566124,0.23973745818432635,0.12438528991498327
9.325350649,-0.8266856103161946,1.040926887613489,3.6171523210722287,-3.8621807811350077,0.19847429790615542,0.15283112789748632
9.425389941,-1.0966199635933422,1.18329424685178,3.4275979629823974,-3.586864338597458,0.17948146581853963,0.16247371323085064
9.525348712,-1.2580261905227685,1.3601852968674295,3.3327476385600825,-3.4063481922132013,0.20571287946723169,0.1686417053904449
9.625354158,-1.5692133179875114,1.3478275121182095,3.0893484969533933,-3.1316732256232744,0.2646824185804638,0.1701808019595997
9.725450031,-1.9811171600928807,1.3122348462503959,3.088971544505209,-2.871581583832406,0.2998529227804492,0.16805713064048627
9.825345772,-2.393538898709269,1.1352381040802255,2.970986861355144,-2.67465374739463,0.3489309591586936,0.17834853345318946
9.92544117,-2.6610774160020005,1.068585295135656,3.069913699981134,-2.434059395765395,0.39915823341814566,0.18831466715806663
10.025424914,-2.805745992372751,0.8027166534940777,3.165051785387169,-2.197468515279285,0.40685726775364045,0.191563941386881
10.125335498,-3.0104104118749455,0.4702118038051316,3.0527350766153845,-1.8707478852730508,0.4164117177335039,0.19694486783658732
10.225348165,-3.0216870443233628,0.13586855365228911,3.173722016318847,-1.7926606957595808,0.4328355391551993,0.18965198691869434
10.325347023,-2.9828041490336874,-0.10242688039402581,3.063263737780069,-1.4962135290145084,0.4252132309904441,0.1920700609060708
10.425354569,-2.986987121498496,-0.39309496537157607,3.3304047957539327,-1.259487449539595,0.42203930038586346,0.19605275530162355
10.525352833,-2.934641880168835,-0.6619709501431911,3.1838536365088674,-0.9187414535897007,0.456641197961077,0.19349402851428907
10.625345007,-2.895596394288807,-0.8409136639897621,3.152671736074893,-0.8947374687195547,0.4593448628648334,0.2074249265773429
10.725343176,-2.4074227569774265,-1.180221590970054,3.2855782980543506,-0.6919922236301421,0.4427510235565995,0.20637313548541666
10.825344101,-2.1807580622147573,-1.231137446792354,3.3100722599639703,-0.36615646457548773,0.4553216458852015,0.21136033586024383
10.925371182,-1.874042656617674,-1.3109523973375024,3.295171603787351,-0.05323710933688157,0.4593510791160511,0.20779471296416363
11.025346965,-1.4567798137697956,-1.4804451207958578,3.309489111389173,0.17317910587873447,0.4356916632269237,0.19260047807032663
11.125333871,-1.114952032699912,-1.286065200977629,3.37269408225641,0.24391792613402646,0.4272584267917479,0.183031090705862
11.225343492,-0.8501585887559535,-1.3243710287530315,3.2456286306542954,0.5508299424503601,0.40779574303772775,0.18839166836414278
11.325358604,-0.6855262883490786,-1.129767448039104,3.305193070658216,0.7678752234569477,0.3947493654901807,0.1923462696773427
11.42542347,-0.46967834648013895,-0.8405586179352319,3.3394064147050635,1.0358562849391308,0.4243758122473044,0.1640974375664557
11.525423570000001,-0.3984338321767703,-0.5702133522413096,3.3549128637161107,1.2863181627513132,0.4780764661200076,0.09578680502660081
11.625406314,-0.05876053453255981,-0.2620998478120968,3.448862347944044,1.1190709734822173,0.5009855288513687,0.005657043019917783
11.725359794,0.12791935341378624,-0.06257827080157534,3.5003301143424075,1.2271120790111716,0.48873059575605654,-0.06558863161402954
11.825347163,0.1720371961061784,0.29499422022431077,3.6093731050879945,1.157434658827174,0.4175006529371391,-0.12453168654999115
11.925350008,0.33144247021155737,0.8549193569947431,3.7106599044954183,1.1121388183075582,0.3612162037456634,-0.15569836412328097
12.025370977,0.599732500318346,0.8989845639446018,3.5971362971566885,0.6531648663615475,0.3328921190042846,-0.17466547310156225
12.125336549,0.8715438728141307,1.3937495658350487,3.5784610464329063,0.43562813250489074,0.31842640132580646,-0.18674241796470806
12.22534992,1.1674450538539527,1.3787146330376636,3.4835862199491463,0.2657892836621781,0.3183092055486883,-0.19103186727999472
12.325346644,1.642610212542563,1.5200109169182698,3.361749959949053,0.14739783569365938,0.3375566778298475,-0.19752391618344034
12.425362747,1.8615369797781838,1.4732295357680885,3.383109552531046,-0.06830511662812652,0.35415371828697856,-0.20727899871253955
12.525343234,2.274199856471143,1.4583943249284066,3.29668635025312,-0.2639895826730233,0.36791181099905335,-0.20576338157007393
12.625346897,2.5412073928745977,1.3659664760032426,3.275814222426639,-0.6609615416140826,0.41461310023116,-0.22252732515872745
12.725406328,2.797774793829346,1.0190356876556592,3.2704851112223903,-0.7246021106832972,0.42802534248287316,-0.23092693339255882
12.825343359,3.001605094997174,0.9818681919964607,3.2048309054137967,-0.9491855894065855,0.4351183215363747,-0.23162615937718917
12.92535045,3.121323413770173,0.5301970471552033,3.4599968921271427,-1.3672254378291144,0.4572739573301832,-0.22813849289133747
13.025346891,3.1936037548593093,0.24455483402989314,3.3819151480135923,-1.5158819257008593,0.46852093957707025,-0.23421146965575107
13.12533656,3.1478770513174554,-0.17111923601920803,3.4797637572452995,-1.7300572828416765,0.48088402724186924,-0.22449878480977628
13.225360005,3.060938694574344,-0.4366754298194272,3.4435825297416924,-1.9432295071886092,0.4864435232723696,-0.22211096361912153
13.325361381,2.93912390927357,-0.663658716363372,3.3228907828015566,-2.234800761522018,0.48386263812548386,-0.22208352807318252
13.425432799,2.655594792686664,-1.1065290373849166,3.5298223672059947,-2.3434337214283123,0.4618876572151079,-0.2125262439346955
13.525353968,2.6221777471206877,-1.3809218949460578,3.3882565393123074,-2.5397880366735164,0.4481524159791996,-0.2071594323503275
13.625437682,2.21360361262616,-1.3397555354847552,3.3115637908288935,-2.8421464426123078,0.43550950927980814,-0.21114776856402437
13.72536184,1.827239427997537,-1.4476417955700358,3.4030426351158947,-2.967472645037685,0.3839162163190106,-0.1978590903065294
13.825454321,1.649596451209301,-1.4214680621697646,3.3213179097532888,-3.205655640037893,0.38386382705789845,-0.20458210156498463
13.925354456,1.3032766290847368,-1.3929869007564404,3.3119876404953756,-3.4431383008049905,0.3626081946860977,-0.2010409391658533
14.025392534,0.960373751325166,-1.2936384683814797,3.2743066607745646,-3.7360987112723127,0.3564864633958186,-0.21027531776462044
14.125337307,0.5501423534688423,-1.064940434157158,3.3029051034489774,-4.003468512425108,0.37416066705507545,-0.20300344457330366
14.225349485,0.31857440493826183,-0.8707339692336651,3.3201451624421527,-4.065799677556118,0.4221545508020002,-0.1797488472840549
14.325435159,0.27146263294519607,-0.47705998403202554,3.5023695056475384,-4.293926189365093,0.488530477021798,-0.10153097527493532
14.425356278,0.0701860752053555,-0.41153520586256354,3.6198580639648332,-4.226713362415049,0.508651254873295,-0.0032368384105547774
14.525356115,-0.14011442747291028,0.05557229610470086,3.8350347915140937,-4.208287369479664,0.4212597068408661,0.05360345125921796
14.625365005,-0.259559403664763,0.45869673331111577,3.6744842456939053,-4.010891715598444,0.3213684488016878,0.09209486991867377
14.725341735,-0.47241737328013644,0.7792693274279633,3.801671080954189,-3.957865852991566,0.24804620002329283,0.11893577114887374
14.825348958,-0.8136644915000548,0.9741892682978424,3.805099246819542,-3.787350452861498,0.19607328743431426,0.14364677706938012
14.925347644,-1.001004779108709,1.1274229019659254,3.529588461477748,-3.535055410992486,0.17320207521659706,0.15897188265174805
15.02534328,-1.3426655739097053,1.1638439009278536,3.334614381668975,-3.280685013062098,0.20288263529228606,0.1523382878983241
15.125340508,-1.650931001353276,1.105118629134673,3.1221739646580913,-3.086157558587008,0.25800868100140173,0.1546888143241777
15.225359202,-2.0475977292617604,1.2887167278877214,3.064124720066786,-2.96972410116474,0.2995049585046937,0.16507175939781438
15.325358607,-2.3724293950868267,1.1617838374477827,3.171415897548281,-2.747643445037054,0.330792790977565,0.18254341886406375
15.425371903,-2.481400573020862,1.034497918800155,3.0809373756960508,-2.534311539096828,0.3825266141871819,0.17779712676042833
