time (sec),x position (m),y position (m),forward velocity (m/s),"heading angle (rad), from x-axis, positive is CCW",throttle (unitless; -1 to 1),steering angle (unitless; -1 to 1)
0.135317859,-0.2133469368073538,-0.3712026999509508,0.034000031875413284,1.1518550232020517,0.15533655361332382,0.023344747517293644
0.33532018,-0.1653314364778798,-0.2715506142926192,1.0210662988068961,1.202111570959324,0.65,0.05923406455425209
0.535319618,-0.039292475139559156,0.02147666175431518,2.0297242192344074,1.204378500729653,0.65,-0.09852326694155016
0.735297737,0.20543970403737946,0.4552355949731326,2.920663889529782,1.0086602773578037,0.5913139988162632,-0.19809163867738894
0.9352967790000001,0.654698656654752,0.9275316814651059,3.094510202905938,0.5893265074067955,0.3783206603369852,-0.24481427730633598
1.135299298,1.1956614011154745,1.134709021075262,3.0098513292327986,0.16428995174123898,0.34512113915958886,-0.2511379010759108
1.33529865,1.787389043433542,1.1053120516478825,2.960304335893407,-0.3212433743935569,0.3780318866977476,-0.24652316549445952
1.5352958970000001,2.2938726896653914,0.7935879176794184,2.946840742706278,-0.7737988547613691,0.3633049267106672,-0.24370548819189103
1.7352960290000001,2.6097888590521974,0.25953305259835013,2.908200144331451,-1.2798202393224976,0.3583775406221674,-0.2533216297224284
1.935312046,2.6361963255516176,-0.29040688861036285,2.880161552395473,-1.6864910506407205,0.3603878672388878,-0.2503612297642636
2.135299056,2.4398111430568696,-0.8158765889663059,2.8713720406370125,-2.1627638076229188,0.3379072003095585,-0.2536912068118315
2.3353225760000003,1.9930705364020862,-1.1979856850306656,2.8733658398974433,-2.6398423432239193,0.34800060175797987,-0.25367161359335844
2.53529438,1.4544751080807392,-1.3304197204631336,2.878506534310291,-3.102453410122773,0.3769580237712011,-0.2690242963601679
2.735298465,0.8953054153690665,-1.1979319585459205,2.8833260673328294,-3.6055391944995523,0.3129126499635611,-0.26217210894788834
2.93538787,0.4797120286415422,-0.8580819805309106,2.83005339081003,-4.107282265606713,0.47977905338128907,-0.24332332904696602
3.135298475,0.18963779493605942,-0.30540053478445445,3.207140480860924,-4.305826064398116,0.49092237453367854,-0.04016208402292331
3.335296945,-0.08072200087225372,0.283976102927365,3.442379777217273,-4.1903781419272335,0.3491403524503881,0.10068144457830565
3.5352988080000003,-0.4598491436228824,0.8215367422619891,3.3828499604535267,-3.8993432187106802,0.28630686078179324,0.16571741320858974
3.735294177,-1.031833717922678,1.1879637741055198,3.1764161598704144,-3.4144819987032884,0.2623281820542757,0.18857079161857576
3.9353165050000003,-1.6402954625558053,1.2825820218722976,3.0142632755647107,-2.9862545748559897,0.3187916341255658,0.18442377127341
4.1352993829999996,-2.170980593140113,1.0650067398129397,2.943905395937527,-2.551082396779273,0.3386015596650279,0.1963819360982307
4.335295026,-2.590633712870363,0.6642819968141301,2.9192281224636227,-2.1056612029463286,0.34250298939800455,0.20917184266222277
4.535362264,-2.8000947711858672,0.08474207412094407,2.9196225742386868,-1.6355391221385873,0.3644220813695527,0.22989155824673743
4.735394699,-2.748978631402172,-0.46873342076096763,2.9243725968220193,-1.2179206900511896,0.3921232162954069,0.22074777159049594
4.935297144,-2.434968959993619,-0.961660715594065,2.9063468774703343,-0.7347326742768973,0.382556881583129,0.22341002201682714
5.135411258,-1.961653705437908,-1.2639139204648981,2.9455937170018864,-0.29539790382103925,0.3861447466446314,0.22132248439452598
5.335300645,-1.3916694780675063,-1.3192716273468839,2.9429307419099437,0.12616764102336445,0.3724634320221211,0.21963793029192322
5.535438258,-0.8322842588350049,-1.1307315459894653,2.9225142083989115,0.6177914600024649,0.3706653527698769,0.2097038927309787
5.735407316,-0.4125037461531967,-0.7143280287546354,2.936221783900452,1.0490445273336577,0.3962254800980972,0.21942031396082268
5.93531084,-0.18307005255259684,-0.15772382035065885,3.154978796946972,1.2472607208909152,0.44851793944140916,-0.0319821168072309
6.135430663,0.05937069991408515,0.4596601022694346,3.3254736579124153,1.134112135803864,0.3579267868488284,-0.1598110250496209
6.335402727,0.4436020523476172,0.9765818794976788,3.2405368966794783,0.7302574910789669,0.303447683935316,-0.2053278858909716
6.535295991,0.9546889973056428,1.3190129999360891,3.076497426065002,0.2785840325620634,0.31353205197468664,-0.22342738210430527
6.7353992510000005,1.5901181384104903,1.3338148384080983,3.018500926731337,-0.17749407348210947,0.3579902827051742,-0.216364468075179
6.9353029930000005,2.1309399171643806,1.1429724436325561,3.031967466612232,-0.6160083615753117,0.39804454547938245,-0.23875280230799503
7.135325592,2.5197176342174448,0.7027221474533376,2.9976430495589934,-1.0611749056368007,0.36950748616898876,-0.2348886137022192
7.335307244,2.7090493438179086,0.12833266385724593,2.963265108071603,-1.5164536044602932,0.3663301716214378,-0.24533187162393094
7.535300343,2.5949320189799763,-0.4553973254736192,2.9463493205402083,-1.9869315709772066,0.3776667800401847,-0.23885333949358584
7.735310968,2.261626366605906,-0.9240958379167772,2.9104955015919454,-2.448846561624064,0.34039118934501555,-0.2406804660470144
7.935394121,1.8603554556922086,-1.1531625049755825,2.8648450297915806,-2.7952067627471626,0.3542417166562292,-0.2530679236956535
8.135419169,1.1834917939604117,-1.1848448713442925,2.878036540854264,-3.3461644417904073,0.39398695427259045,-0.25523096325642386
8.335307688,0.6741105019018571,-0.9545219782990858,2.9029495886930325,-3.846859676520666,0.41880679567222434,-0.24733764014376788
8.535313998,0.30253512842791713,-0.46729402799904934,3.05600063079837,-4.2756829714979165,0.46941816357518584,-0.15591031540130545
8.735299651,0.06189290927666442,0.09847457146547421,3.3517107977754677,-4.268134869644382,0.39006204109970166,0.04374189672312443
8.935297035,-0.31375427090298513,0.725731461486984,3.421089368484853,-4.027847813607415,0.29734502499585735,0.14987661896379684
9.135369356,-0.7973502800155646,1.175963686203692,3.3104407521278367,-3.658528461870849,0.262206495274427,0.19605556129395182
9.335312819,-1.3637450315705772,1.3785244719618506,3.0921402583596374,-3.2350300450078486,0.29207222240216874,0.2005244361756003
9.535396649,-1.9728529453966723,1.3375380810740072,3.01985627919133,-2.820401590266542,0.32327298481537164,0.20125871124796446
9.735301196,-2.5006517392214094,1.0100107461519359,2.9696489823831764,-2.3162839334586667,0.3487595440234356,0.22782008071076199
9.935331416,-2.785973689334256,0.5764631988219443,2.9152703167165472,-1.8947973713238728,0.394569477880935,0.22740969905382855
10.13530049,-2.8565918126206196,-0.024648868515318632,2.918590040998833,-1.4128876689657017,0.39565460749880904,0.22114287620476672
10.335409673000001,-2.6624298864578733,-0.596521904516583,2.9712348829963426,-0.9913535577329363,0.40154263764644904,0.2270638692270235
10.535404871,-2.2746041764665548,-1.0061949165052246,2.9718235222457037,-0.565216896183028,0.38743948583842847,0.21419411774856623
10.735303372,-1.6982384370793202,-1.2061374143722405,2.9898432857404393,-0.09635951038867968,0.36272540962099775,0.21679495647583547
10.935313374,-1.1213627680318907,-1.174487165101897,2.8849895864362125,0.3753738267744304,0.3489242993656043,0.2169372691237264
11.135296562,-0.6490800024496571,-0.8607554506620742,2.891714248153433,0.8048419319307059,0.3813984646376825,0.20873167963379263
11.335297107,-0.3368942514290018,-0.37848342145430564,2.9902912006862072,1.2121185900925382,0.43666069958380377,0.09925753584011061
11.535298533,-0.07398316020005412,0.19533649955594487,3.2694449816206483,1.1860106650565718,0.43910887742312543,-0.10046369930650073
11.7353027,0.21008276305594423,0.8093252463691245,3.2768229924033045,0.9172031984078955,0.31201390810354496,-0.19370209996761448
11.935299001,0.6867075553862417,1.2229778225476113,3.1552730470445836,0.4836521836262868,0.2973927551992871,-0.20761880928697338
12.135422081,1.2566177914029726,1.3897228796791137,3.079880310556942,0.08742722270612392,0.3555096134944185,-0.23425742945609218
12.335294953,1.8579255280528708,1.31109609401283,3.0709529138777527,-0.38271704399918394,0.3653082497306787,-0.23280664617749822
12.53532975,2.3741271601753833,0.973372032474369,3.0756543323183934,-0.8314000035782493,0.36467412360470713,-0.24366451271740255
12.735396638,2.701318299541444,0.4327096084849062,3.0240460202164496,-1.2675637806610112,0.3733189103801758,-0.2473108526743352
12.93529697,2.730299994152851,-0.18112808526195873,3.0118165866640534,-1.7315032337736154,0.34298067836359986,-0.2498252653855063
13.135401818,2.5322630386807132,-0.7009702546329925,2.9513018372158455,-2.214868485674272,0.34096941241916745,-0.25196990276891224
13.335372285,2.10787122084163,-1.0668580034061055,2.92599444649975,-2.6662559488246496,0.35563770308286063,-0.24597954005405198
13.535300609,1.5316937654056093,-1.2275740159836819,2.915275415132114,-3.1382489340086757,0.3621181315993714,-0.2570959650829942
13.735295409,0.946054562836104,-1.0771225483866658,2.933691678604496,-3.641606127103877,0.4046566917507082,-0.2557496516865264
13.935300608,0.5304055553839354,-0.7367255281018781,2.9957777205028395,-4.085473956195658,0.43398788454655746,-0.21369542313948198
14.135297339,0.23318903186783055,-0.18074970398105977,3.2226961033019887,-4.285623386739321,0.4461852079972957,-0.05000479761089713
14.33544046,-0.0592679042538839,0.40615345537916003,3.4306441790152173,-4.194440918778073,0.352146288663052,0.10210332526982956
14.535389733,-0.440095103927781,0.9743487751507088,3.382916787291489,-3.8955131290638274,0.2694543132751481,0.1735539380455964
14.735298319,-1.0241518049358316,1.3472548694176187,3.169787479951925,-3.4233664933551844,0.2667912409523388,0.20558234648563442
14.935301304,-1.6356659994823293,1.409758886041989,3.044097823456211,-2.966956180683113,0.32346659252885607,0.1982879256826404
15.135298472,-2.1779739803281575,1.2410331616869517,2.9770430179896965,-2.5858099228550797,0.34717238112391113,0.19737534076239344
15.335299296,-2.601782982592898,0.8199927670436671,2.955979513324606,-2.134648989077456,0.33589634690624626,0.22774589057346495
15.53531182,-2.804923091214449,0.2943652430324987,2.9643309339104955,-1.689429100320634,0.38345146686198744,0.22843060931555126
15.735303477,-2.777273503866923,-0.3467751955762577,2.9734200689684616,-1.228460176915043,0.39196347167848733,0.22624586660063833
15.935296483,-2.4849025018818556,-0.8345082862238699,2.982343086335702,-0.7912891454517849,0.3764341149566071,0.2279958473104854
16.13531222,-1.9688764677385886,-1.144794680013971,2.9508742653887525,-0.32697664945040755,0.3887327910788194,0.2271510281437972
16.335302478,-1.4033393717837803,-1.2362332529458029,2.9469127603387433,0.12121627368762597,0.35121212955115066,0.22734367016904589
16.535304727,-0.8589600339606678,-1.0561776219739334,2.9170111572714785,0.5802921436014385,0.3580356971639041,0.2223269303440571
16.735371276,-0.43557025371338726,-0.6632110581420786,2.914964072876677,1.0250988508024494,0.3851070247245263,0.22526923950779304
16.935368205,-0.19036671981520203,-0.07079620333666042,3.1674594886726335,1.20828765642232,0.45403221551500933,-0.015218950595420316
17.135301475,0.058122384302673094,0.48260787298732655,3.3425931057100264,1.1371353608656494,0.3471196087524003,-0.15352588912096107
17.335319481,0.4253145550945493,1.0062299021548162,3.273573577088674,0.7695090195115986,0.2917894562008889,-0.21525301620073783
17.535298753,0.9872851899052291,1.3632274365325154,3.1152180136505145,0.3083966327862261,0.3048065598265698,-0.22853828820535751
17.735295871,1.5939198080278305,1.398041467288743,3.0618807478870567,-0.13810933351572507,0.3564625004408563,-0.24195754028600383
17.935379835,2.1534656104827503,1.219523256829886,3.0496187382538884,-0.5769212259985352,0.37604291615410923,-0.2443737380924088
18.135297696,2.5890143961243197,0.76237394481522,3.0638223511733504,-1.0127443798475102,0.35960668255590966,-0.2402384015988375
18.335330556,2.7912718691398073,0.17843993314215528,3.015538280493096,-1.4779546514939121,0.3523888223312426,-0.24667377257676737
18.535321932,2.7016770347596712,-0.41242433473384654,2.9763656303020505,-1.940559993292739,0.3472456833017273,-0.25743728058618287
18.735313059,2.351266164027411,-0.8998489928944248,2.9393266374104456,-2.4153916401216526,0.3378750877994488,-0.25662078003492933
18.935299398,1.855018307527069,-1.1356365905367554,2.9378640411884316,-2.879687218840877,0.3628606267095967,-0.2639337248318391
19.135302975,1.273458133707331,-1.1823659096522117,2.924980729885372,-3.3408392850006057,0.37232332656091316,-0.2528563356227569
19.335298868,0.7462103861699517,-0.9323980247907221,2.934881168903174,-3.815454529544398,0.4067597136508434,-0.25359476500584405
19.535306178,0.41561978809884526,-0.49888046581336903,3.092598735892399,-4.233559365370764,0.45613059222897984,-0.1860623205875436
19.735294176,0.10123501424018887,0.129432586409179,3.39683683317255,-4.2451746288632375,0.38461309380923797,0.033748342541802846
19.935352109,-0.261728799445045,0.7037703596841896,3.435725804988419,-4.016588864350699,0.2838332036542332,0.1336974675689599
20.135299421,-0.7329454640693496,1.1547518906692777,3.2994399852499656,-3.638744997657483,0.2804495305104713,0.179043370611172
20.335296521,-1.347001338612389,1.3618680822589004,3.1157119422342023,-3.2061604484851363,0.2766452918722415,0.1877833926053951
20.535300619,-1.9663378304710695,1.2839448444194894,3.0496163857434038,-2.789350784097757,0.31874220380142954,0.1968653847309012
20.735390713,-2.4745212837549206,0.9835244806814275,2.9750757174197804,-2.3458234663677877,0.3353550948658613,0.21689972519267378
20.935296746,-2.780981717445612,0.5028038288248815,2.929962784438491,-1.8806302171304672,0.36424330805999977,0.21633610878197573
21.135294565,-2.8403568510591923,-0.11422815012291083,2.9654886857711817,-1.4410059021516832,0.37985328247526895,0.2206218601323466
21.335299346,-2.6762074771911255,-0.6482619798012123,2.970451004892613,-1.0058723921880148,0.3902099214781876,0.22734558834560165
21.5352969,-2.271703943460026,-1.0692528881053605,2.9791093708799776,-0.5730191022353485,0.3697438121773255,0.22285611909815842
21.735295768,-1.6932014483253184,-1.2925510127595992,3.0033242166035654,-0.13224957345491314,0.36530305334388735,0.22610053592423748
21.935335952,-1.1487179461061454,-1.243655316466762,2.949882063302533,0.3323766268233954,0.35700658084702885,0.23026201006606434
22.135314323,-0.6288576106798648,-0.960256506654854,2.9286649630997426,0.7799447017719354,0.3674252812410069,0.22899199442132867
22.335367035,-0.28611972715539996,-0.49615008497656576,3.0191883560195043,1.1721449824252745,0.4654973697914199,0.10307570559024154
22.535323221,-0.07689877674353153,0.03847128227533057,3.2766275790415267,1.2118568804636958,0.41262091411654717,-0.09100631383908214
22.735302794,0.23679877374157804,0.6960869543551372,3.3466866648780424,0.970153765968294,0.3044638118989909,-0.1939485761022664
22.935299391,0.7065212095241696,1.1296859161437844,3.206144509932378,0.5556779435834203,0.28203787967907823,-0.22831839182861227
