time (sec),x position (m),y position (m),forward velocity (m/s),"heading angle (rad), from x-axis, positive is CCW",throttle (unitless; -1 to 1),steering angle (unitless; -1 to 1)
0.134488867,-2.630223605203555,-1.3678207984545827,0.03290885794376872,-0.7925095900058553,0.16334161974754316,0.28066630085817096
0.23447410600000002,-2.6321189069531634,-1.3413276244856083,0.07507230549267466,-0.7977979557656959,0.75,0.18742899700378982
0.33448170600000005,-2.591322674287011,-1.374225491810248,0.872707984685984,-0.7305088404437734,0.75,0.22573256703847677
0.434481065,-2.4840986666984164,-1.491713659936298,1.726562597727365,-0.6171907703653219,0.75,0.29212614214224586
0.534475959,-2.316754344633979,-1.5870958799826629,2.3893465978037582,-0.3662867621032123,0.75,0.30951833012401064
0.6344859820000001,-2.0719854748998516,-1.616529196195493,2.8769869229985114,-0.06374133634060075,0.75,0.2743369081569291
0.7344775880000001,-1.7429296593442618,-1.6126416902396132,3.129379023617712,0.20108706033101956,0.6219008124590443,0.23307188021756728
0.8344849160000001,-1.4537393595204446,-1.5314129803878982,3.2268282667269985,0.36422850283006936,0.5378283191514338,0.20929130333746251
0.934475334,-1.174181171388215,-1.3513958124321113,3.33357236194394,0.6021488471165183,0.4742858512224406,0.20419615762421625
1.034478027,-0.8751703094533897,-1.1296222316671822,3.386628403093266,0.8586454929300352,0.44087613175241097,0.19199517675226638
1.134478233,-0.6643543043417045,-0.8896196323538088,3.3544673133020333,1.0635993925757763,0.4334306081350438,0.16081386640487985
1.234479946,-0.5295062828517991,-0.5304922110136459,3.400483779037448,1.2234987073154167,0.4807484003410168,0.05231688309289368
1.334479607,-0.4001036778595978,-0.2438892618461623,3.5551057759315534,1.2565713737151143,0.49592608536572763,-0.04904925671431717
1.43447829,-0.2842139275098872,0.06350628372870022,3.657016351494963,1.136517575987125,0.466758933336406,-0.112919779496463
1.534476425,-0.12354595097526523,0.4177173477231543,3.702309714010683,0.9656444295772441,0.3940919868329039,-0.145343004410812
1.6344851930000002,0.2019983672348192,0.7125948354969056,3.6162178049821394,0.7081596914360507,0.36941495569787514,-0.1509011573063309
1.734481636,0.4016969004969053,0.9016316798004688,3.5560714369895003,0.5092095079087664,0.38461332201124154,-0.1544008415432576
1.8344702380000002,0.7460630827731562,1.0818225640296273,3.4820221666160838,0.2905353974362834,0.36541962407275375,-0.1543367778820611
1.934475476,1.0856695353637233,1.144759266011788,3.5369815332746897,0.08599586620428898,0.35570751842304704,-0.1539798587429598
2.034480825,1.4059098965350796,1.1640702947999748,3.4086463825388966,-0.11293573975534114,0.37865898196432746,-0.1639844864893847
2.134491298,1.7235817751709932,1.1101179066360187,3.374156922686865,-0.35226261584989293,0.3403076405754395,-0.1695753439059257
2.234476789,2.0982743263465027,0.9957910445656936,3.3587193950735608,-0.5349028153748526,0.3393735109509772,-0.17388456412619385
2.334502493,2.315514296353419,0.7781025994932901,3.2650507620301124,-0.7752716320175101,0.35000559002358395,-0.17054544772860006
2.434483111,2.5786495304755115,0.5731769948714115,3.2462959591648284,-1.0004223971158255,0.3578004781193185,-0.1801409698237137
2.5344804930000002,2.716554726638621,0.3074558874346312,3.2195500055069375,-1.1788491332641207,0.3588070446818826,-0.17845752186770644
2.634478154,2.8379314096275348,-0.04234521402382849,3.1889793311554993,-1.4663747960928042,0.3907766463322239,-0.19033535811617128
2.734484609,2.8278742408819126,-0.3299306143885724,3.203955521269761,-1.62098716795283,0.3678871109656073,-0.19324857454864913
2.834473897,2.795031647029866,-0.6291391926309421,3.1347397369761225,-1.9036692986641122,0.3747306058665884,-0.19349234453222394
2.934475543,2.661786714346674,-0.9861287583244784,3.1439024658164,-2.1448693325012314,0.41616209685817496,-0.1965493324518438
3.034477274,2.5022176013778266,-1.1864007631925226,3.173615332945083,-2.3255100216570157,0.41374247003628534,-0.1900067082150238
3.134476454,2.2279261166546402,-1.379572172448013,3.1757778245399786,-2.5850937673078693,0.4215937905233529,-0.1908747459497836
3.234477459,1.9470267468901632,-1.5434090853462608,3.212641028184265,-2.8534062639481124,0.43281939908874645,-0.19045786201113868
3.334482853,1.6560320932967418,-1.5930552122342727,3.1608883307113307,-3.0446945594819517,0.4153086854170062,-0.1880254170877194
3.434469202,1.2965399235100394,-1.6463946079988705,3.21067686343169,-3.237791544792648,0.3940500031691224,-0.17856306357481982
3.534485178,1.002445452375018,-1.5649703721115515,3.2077354522325074,-3.503821407410451,0.27121603249686127,-0.2122665150650214
3.634475137,0.6868475292334172,-1.4142147073175588,2.951766972615075,-3.8116037562916354,0.14772132319155004,-0.27571362337932726
3.7344837980000003,0.48324874383782,-1.2411624539699395,2.861485108515966,-4.011216644132509,0.3867141268237983,-0.2055411029035935
3.834534801,0.3315988782532834,-1.0156163181031284,3.019099561804607,-4.188508051680149,0.5273297884144061,-0.14607568792512582
3.93447218,0.2073537935709998,-0.7268012006333447,3.2666175902445134,-4.3608421555457175,0.5568921576261381,-0.08008466652269086
4.034474832,0.0827177970600516,-0.3937138577100316,3.4500463776063475,-4.399330714303678,0.5046846655046611,0.006915836436225302
4.134473726,-0.029541623106095732,-0.038800563185637904,3.6309423336820927,-4.396346627328502,0.43542210887290983,0.07710301987867893
4.23447852,-0.169208691354872,0.2503663383667894,3.7096653269434943,-4.2673679813222405,0.3660580705803836,0.12809907470475757
4.334477459,-0.35936580182744554,0.5914416578384836,3.7226728056551264,-4.139924681773443,0.2696553921321327,0.16007319717269786
4.434504516,-0.6118254526470793,0.8787571080457222,3.605415331180951,-3.872828602219405,0.2372648528237304,0.17321545345996378
4.534485463,-0.8296778613058466,1.065256909735279,3.4754278932896203,-3.6748802162604206,0.2371048101189124,0.1844925505261819
4.634477871,-1.1231317989922602,1.208934083885038,3.337141367639884,-3.479349007899577,0.24853838268307082,0.18120985636890474
4.734479766,-1.4398194143615202,1.3394888610812097,3.1970428959077712,-3.201322672737122,0.2934485500905246,0.17345096732085794
4.834488298,-1.739263688922831,1.337059280609642,3.1481324662001087,-3.031856841365519,0.3388854906384112,0.17982569407225785
4.934486891,-2.0981306477012116,1.2447569322990661,3.139330044802843,-2.7409423688064307,0.3400296805318508,0.1836945979474165
5.034478738,-2.405135547414114,1.101939089344027,3.083018268524446,-2.521818634822679,0.34106609242979424,0.19412821310765097
5.134478905,-2.608513897327773,0.926783798366184,3.091597898209635,-2.2832678313037236,0.3606088593364624,0.19869541811016123
5.234475184,-2.8094838823439456,0.6678416327848328,3.071427939795499,-2.107437017095466,0.3508057419616294,0.20269364670311005
5.3344857900000004,-2.977040785297738,0.3868940569486626,3.0780450287267054,-1.8261020432060608,0.3557263050024185,0.19855286520388457
5.434480382,-2.995123212582429,0.1088972214463557,3.074654550337776,-1.6514192749699736,0.38151960741708607,0.20805689359096674
5.53448431,-2.9843407168841196,-0.2046773153179959,3.123848789290958,-1.4042960092184924,0.3443216219192289,0.2123633151648511
5.634478055,-2.878055756094031,-0.5240393285714793,3.0641296018989945,-1.1458653044502267,0.39248988890570347,0.22044452013849944
5.734481875,-2.7685052054577666,-0.7880131249951867,3.0655149926727248,-0.9605136305197397,0.4208014882801674,0.22251566621284025
5.834480752,-2.518548088617077,-1.053919007730167,3.1039414094409423,-0.6906446977240732,0.4476196142616145,0.22190727584240424
5.934471618,-2.2624812884149135,-1.185247002451098,3.1441301990607697,-0.475257364754384,0.45087389506578374,0.2227049020857875
6.034478934,-1.9982043466793853,-1.318122653234074,3.2052945291294876,-0.2485433840884589,0.4560504734548669,0.22193757256264873
6.134472047,-1.7241224343467816,-1.39402466802469,3.225090409695432,-0.03943914583119871,0.4658140591158492,0.22123035994405085
6.234506952,-1.382631507755827,-1.3439346337536526,3.2386155411714266,0.1827708445055553,0.4352277358672491,0.2122723462922958
6.33447686,-1.0350180703469551,-1.2676153144771167,3.207995850912309,0.4164029167327969,0.4290522239147108,0.20440587180500647
6.4344767560000005,-0.7928637102349865,-1.1195854035172916,3.209011730413711,0.6433049371420734,0.4168823388987458,0.19731116989440378
6.53447727,-0.561443622887831,-0.8924667149420354,3.2077529775916633,0.884571328151312,0.3939989742597494,0.19072077014988245
6.634484599,-0.34110237320663683,-0.6104448718603737,3.2067167503859553,1.0756827436579057,0.4250192143229777,0.1515554189242869
6.734477787,-0.20598198365650144,-0.29765390009857484,3.3267634117303544,1.2613233434558742,0.5031055080116658,0.04026252322157642
6.834478334,-0.12681324055328813,0.037385918457926326,3.4715529921400905,1.231243686976769,0.48812337356517865,-0.06211972738315287
6.934483623,0.008835687853211384,0.3631768431402568,3.530959477831905,1.113945409801446,0.4310611106756522,-0.12123116174062312
7.034484567,0.1674638109546701,0.6333303443648812,3.5319761405720143,0.9775589320699699,0.38077075205172156,-0.15584905326367735
7.13448004,0.3865551221775787,0.8905739916687733,3.5122951102057285,0.7609386733443703,0.3617412123554633,-0.1679787766248376
7.234474982,0.6828362198878671,1.1404247667016911,3.4726622475615083,0.5228866855908061,0.3512595128054241,-0.16864267761288507
7.334477931,0.9515103996731549,1.284987403423288,3.416512126414168,0.2697292552724749,0.3712146431727189,-0.1657535354934653
7.43447322,1.3107917893855194,1.3818922522225745,3.3690366370483775,0.11765064837748015,0.3774323178621396,-0.17092347702116198
7.534476575,1.6587466603357246,1.4081559570469915,3.3651535464655327,-0.12513169622567935,0.36510646972943245,-0.17581686243023736
7.634478202,1.961262620432236,1.3604937036741231,3.308669952563415,-0.2873394658488613,0.41148685000011126,-0.18082849010211352
7.73452169,2.282498394371229,1.2139386464771709,3.232661646560912,-0.574731746118653,0.39721498924089044,-0.18899192975280316
7.834483253,2.528128672501063,1.0371889412774393,3.3003625003074366,-0.7743877323085205,0.3714919807663365,-0.18863063067609662
7.934475946,2.7234529844570052,0.7478854326991342,3.259123654945662,-0.9879025861317557,0.38638366796577345,-0.1790560474880193
8.034483307,2.9217149633280703,0.4978486973419752,3.2176819924231723,-1.1790568353404436,0.40339405764700376,-0.1917399474668719
8.134480675,2.9961412868556963,0.18462463669679607,3.206414869647212,-1.4227623525063684,0.38830611199058535,-0.19459195118652542
8.23447719,3.0138334155947555,-0.13895529833697623,3.2294430768519162,-1.6770288100452027,0.39878478052335564,-0.18624603544718402
8.334487294,2.9817945840054447,-0.4632509058095174,3.2216053221490073,-1.8839441176066438,0.4255745333898077,-0.19377805169209297
8.434520455,2.8224615676600684,-0.7916533629409499,3.171427973040038,-2.163534168476675,0.41992646669341654,-0.1935408752194058
8.534478677,2.644667083259728,-1.0328016168103435,3.210105058834329,-2.3547304184567324,0.41664179246673,-0.19441484472313048
8.634523181,2.3907445453807217,-1.2432738695099832,3.2325023217734294,-2.5865200465703313,0.43569772097968484,-0.18280375886854575
8.734490785,2.117215908162686,-1.401177407681886,3.2917262156048843,-2.7993976292034337,0.4194085877937471,-0.18640119505865554
8.834493881,1.7907049868063476,-1.4855656162663788,3.2985835935250356,-3.01934864496636,0.3959414495160279,-0.18527586085210707
8.934525429,1.480079395696469,-1.4861517837502223,3.236020238203278,-3.2602707917868363,0.38889626659069937,-0.18985728283586772
9.034482251,1.1622086774106564,-1.4691446540142732,3.27644503640202,-3.4452750361292135,0.3706016691676825,-0.18791189483299206
9.134477949,0.8526104414206488,-1.3473263249183738,3.2063237387332815,-3.6924936290397348,0.3633699834734078,-0.1845634932294703
9.234473675,0.6032861943143528,-1.1449406707332226,3.1919515181125577,-3.891076992452442,0.36495488819185695,-0.1913668009297119
9.334472548,0.36142663524892904,-0.9127051562504961,3.1283805795356665,-4.1399462874475645,0.37360454337852694,-0.19356867861661778
9.434481943,0.1899726156818917,-0.6381915779455074,3.211809665826221,-4.342284224679339,0.4551472848472163,-0.11348984591420326
9.534474563,0.06124405027876211,-0.30292269998700116,3.4239059737002577,-4.397887024601423,0.49391125587253,-0.006211812172838701
9.634473135,0.016911550241543345,0.0019657110300606143,3.583556362870067,-4.3203749634398205,0.46140558546541965,0.07588692715555284
9.734480534,-0.20592457814216839,0.36534095580191533,3.642862860061182,-4.21329813776913,0.34040571927761865,0.11731709067787363
9.834477328,-0.3922224710456269,0.6769192984138603,3.661065795817024,-4.046173961417039,0.28913724701679916,0.1479979386790798
9.934475588,-0.6118130819596156,0.9077810609927819,3.641709795136257,-3.89673737651191,0.25378513584165185,0.1772247178356364
10.034483415,-0.8580813400926353,1.1792771117241743,3.46746619364068,-3.655121314292722,0.22648997517919567,0.18594274930683002
10.134538746,-1.2181649969244284,1.2997609021996035,3.2972020981407595,-3.4151718264624464,0.24169834606040652,0.18147050989740354
10.23448037,-1.5207586450416086,1.4234639986231967,3.2161939217357345,-3.195760845473375,0.2951402599580189,0.17899978255293322
10.334483686,-1.78115668680178,1.377950329468755,3.1191322258791256,-2.9492032931444667,0.32608975553563807,0.17394763689667536
10.434476608,-2.135127270886137,1.2975027636680947,3.011078625303523,-2.76068562537454,0.16524187517236624,0.22502900875677764
10.534478162,-2.3803916119391486,1.2010244937208712,2.830953353730775,-2.5001512131486625,0.11305003292016076,0.3131494147002356
10.634482588000001,-2.5681542127088384,0.9886153719235593,2.797822179912605,-2.226395473532454,0.3957727373719257,0.20393599617833605
10.734476474000001,-2.7478017707643922,0.6354169339253203,2.876380275299041,-1.9745362800630861,0.4710454238884474,0.1656258837792193
10.834472171,-2.811166603606704,0.43955690256109503,3.0486903984856437,-1.8018396346654804,0.46864197784594136,0.17138384318217587
10.934480776000001,-2.881679881621698,0.15166651923346194,3.1472452673667246,-1.6156934381142654,0.3963409553195502,0.18592865566189962
11.034471899,-2.884312501578282,-0.2256437277077213,3.1792348963793278,-1.411424515915715,0.3592058152560359,0.20097236224799286
11.134478265,-2.805332899272676,-0.4724726084767026,3.1505362605626206,-1.1590336000929389,0.36464629936242526,0.21778336271734028
11.234484703,-2.6741962511379924,-0.8019788927030336,3.1038084374348887,-0.9136085904069117,0.356410006870373,0.21988028089792286
11.334485168,-2.4460725965423165,-1.026424843836294,3.101628199972202,-0.7134515982991911,0.38813088124192835,0.21804797151642236
11.434473249,-2.168932963676332,-1.20138932840463,3.1124255375839422,-0.5099182589686833,0.4623408720450788,0.2187160071176903
11.534476502,-1.9004595289898374,-1.3197529950265652,3.1716703221292897,-0.23478260130375955,0.44405554353095256,0.22068854994526718
11.634475083,-1.5913706014876123,-1.3348772710334098,3.198990037441247,-0.017271110095050352,0.43873710778074954,0.2237466196946363
11.734545349,-1.2125860711903444,-1.3157720512189062,3.2357243726920846,0.2498803384588607,0.43394431944012035,0.2139608213994956
11.834519975,-0.9180498455039993,-1.2218794333487863,3.1502893036585573,0.481205057510401,0.42566167305585884,0.20793699953964276
11.934514243,-0.6629798590210262,-1.0847049480893878,3.21041934392321,0.6603175865552954,0.4038423789134344,0.20192874073941489
12.034471953,-0.422675718453646,-0.8761970168889645,3.2516388246289947,0.8866109238639783,0.43357291955022703,0.19866565940751202
12.134472996,-0.26133778698350096,-0.608491937891112,3.2879122711663413,1.0770551590629678,0.43014803627645526,0.15517056568286133
12.234474702,-0.07952076203075657,-0.29912542431037514,3.3145055360281077,1.2164575589477669,0.45550975399970245,0.05865877398266535
12.334480204,0.00725578459801857,-0.00590922243876043,3.464662071961298,1.206960194679821,0.4679604546131549,-0.04590601158463427
12.434481004,0.12916839988113007,0.300389063720358,3.552309136645329,1.1073073172620178,0.4254254766835094,-0.11376208745271295
12.534483336000001,0.36021113100651403,0.6935295395708841,3.590127317122724,0.9567661768279389,0.363159615888079,-0.14560467551579276
12.634489378,0.5222393991934484,0.9184662004864408,3.533561006905773,0.7274760174903239,0.3368601139182253,-0.16263946603184942
12.734464667,0.8515454600094317,1.1865779484816676,3.423837967535271,0.5136130022959035,0.33093558512558674,-0.174800801655963
12.834478723,1.0787228653139955,1.3033082512796543,3.400473768666138,0.3692064853539967,0.3298117783063814,-0.1671987725218649
12.934474438,1.4618720706005932,1.405841001190504,3.3528044938751256,0.09864539235300737,0.3494862040072689,-0.17579997539844078
13.034476505,1.7722336567127217,1.4158788947101257,3.3078848680460506,-0.11914631145070073,0.3697059878812417,-0.18205777623527794
13.134478373,2.065374996128036,1.3701420995513678,3.2427535196109805,-0.31090568821649184,0.3592859621325835,-0.18559241303279103
13.234470919,2.4008381696184826,1.1991432664627208,3.247725794168446,-0.5630749682286007,0.3738432775277913,-0.1926806316271995
13.334472586,2.627294653577691,1.0409349799813412,3.22183027787522,-0.7205547211137445,0.3989182835863199,-0.19532954064140373
13.434490623,2.847659369411364,0.7961211920094908,3.2213330672615226,-0.9981730120656734,0.39476392214367917,-0.19469548560897845
13.534474661,2.985937176445304,0.5043380783517799,3.230999281864693,-1.230391631474568,0.3972155615761954,-0.1986019594223619
13.634480094,3.111255121575129,0.2059249955946474,3.246094230338033,-1.4449171588160226,0.42664732749112066,-0.19890944985280043
13.734478713,3.095611358088072,-0.15864337489172192,3.205037067909114,-1.6441471492597302,0.4213539558812363,-0.18460465140099247
13.834475583,3.0486453596361933,-0.48966847836316746,3.289302510263106,-1.90628847658546,0.41709532379887354,-0.19364828192639785
13.93448216,2.8960755821959276,-0.7766408361685061,3.2721661361029044,-2.1276963185296074,0.43233680770820837,-0.20142590593521204
14.034502681,2.7279087001131863,-0.980810083442575,3.238667280610172,-2.3267323551330596,0.4189570765049604,-0.19868893348893887
14.134472667,2.4287365067817577,-1.1932355969253008,3.2818637229986822,-2.5583646859238565,0.4222928674568084,-0.19109282699996832
14.234480408,2.2255587509085957,-1.362904249116253,3.2831404447897876,-2.7776975416834255,0.44725141542138014,-0.1913222236325688
14.334487961,1.8906245388787826,-1.4487855141495236,3.306827944548033,-2.9548983159760387,0.40807892554128533,-0.18762737138349606
14.434485411,1.6019524093024866,-1.4935436187060125,3.2949778702105443,-3.206153710099973,0.396889068128848,-0.18552445758775316
14.534478846,1.2222955411369025,-1.4487738411765092,3.231075063739884,-3.411717031555343,0.39344557025148885,-0.18845471322706514
14.634481064,0.965022929739771,-1.3589347244092689,3.097404364225897,-3.6728981447397357,0.1314540418837361,-0.2640369803257593
14.734482311,0.7174433227696771,-1.1555505422682595,2.8496004127669163,-3.9846143097843045,0.3161820269864351,-0.22647227887964427
14.834478859,0.5541212884488321,-0.9740999926528824,2.6989898638966725,-4.254614613634741,0.4993164558025704,-0.16457701640738254
14.934482462,0.44970158140554806,-0.7177021719300823,2.8387921394965376,-4.444142886160384,0.6509046070899552,-0.05944622053195882
15.034482213,0.38252741306573823,-0.37666723835441995,3.1935830121181925,-4.610436909931442,0.6317927386339834,0.050316567402645354
15.134488897,0.38646990542281745,-0.08210075636781355,3.540267443923488,-4.650984470704518,0.5475921080644657,0.1476179302147116
15.234476822,0.3298868625973077,0.3187999977855688,3.731085197584835,-4.571596791179614,0.3998482242223076,0.22090796028590204
15.334478697,0.2663752594982808,0.6949763840846066,3.8126720920363235,-4.397999462403758,0.2588124805752605,0.26992698482983446
