time (sec),x position (m),y position (m),forward velocity (m/s),"heading angle (rad), from x-axis, positive is CCW",throttle (unitless; -1 to 1),steering angle (unitless; -1 to 1)
0.131497477,0.18500829295838847,0.20902432637403973,-0.019197615947826832,1.587095406986158,0.1062760303844173,0.0398550629357316
0.231568137,0.17170483198035114,0.21278316966415875,-9.837454871050632e-5,1.5578410015542283,0.75,-0.13870923789609335
0.33150054300000004,0.22127719878735266,0.22743428608785968,0.13619357516427114,1.5852110935364725,0.75,-0.18851410097031604
0.43150121700000005,0.19230478174118568,0.2592073986168183,0.925011696128962,1.5092928608509573,0.75,-0.2533144524029073
0.531501985,0.22427810008349755,0.3795965716763976,1.7106069260900978,1.3145239450868467,0.75,-0.32252764637729486
0.631506275,0.335648793637203,0.5558100338139601,2.358293985164229,1.0465452087528866,0.75,-0.32209242676046534
0.731496699,0.4565799598600531,0.7942495512029579,2.7341422432748606,0.8011881686703186,0.7390745229627521,-0.2981549707122249
0.8314965870000001,0.678979631704655,0.9495934782628508,2.9675195309971216,0.5503215180769575,0.5835650172013261,-0.2689873035566467
0.931554882,0.9647447619274125,1.0779014461496557,3.051513057971404,0.333212408285796,0.4824557268395444,-0.24567321512214982
1.031499642,1.2490098833609389,1.149302962649019,2.991504010030742,0.0700798385783182,0.4347791607433256,-0.22897004387840164
1.13149689,1.5748858037711602,1.1438534046607045,2.946674968751681,-0.15556129425594453,0.39373672253660036,-0.2255464073270236
1.231559138,1.837397745322045,1.0806653373347488,2.943590945901106,-0.40578187719122066,0.3679904909474143,-0.22361306102346218
1.3314966830000001,2.104154567915719,0.9318037752305854,2.8942564979467895,-0.6391322159608317,0.34785650884443164,-0.22492974229356782
1.431494669,2.308870778877415,0.723535942506109,2.843816052641011,-0.8836099336098114,0.37003167847959406,-0.23279532256858332
1.531544656,2.4774232674966905,0.5001512891600766,2.816058077662994,-1.134782014708182,0.3709604448240245,-0.23785066596040483
1.6314966960000001,2.5506895738698177,0.23679723474340802,2.790068450520289,-1.3459056212907008,0.3972737828242054,-0.23840191311209413
1.731503295,2.5636498488766972,-0.09400003319683388,2.820896340184899,-1.5798806374231453,0.43116173966061994,-0.2406863464420359
1.831499326,2.5058765932371863,-0.35037812670849694,2.8453815451631295,-1.8474505546718774,0.42551649152536736,-0.2387574978309534
1.93149719,2.432001870034938,-0.6506925588329996,2.814179993320737,-2.0728181893769664,0.43328274131249245,-0.23790899072652286
2.031498697,2.2684225516333667,-0.8251640258795901,2.854759417538021,-2.3097296933883795,0.4497737536508275,-0.2304781694368295
2.131548244,2.0329895713439163,-1.0236205459598087,2.900894270210263,-2.5351462799722104,0.4495633809211332,-0.23034195066417057
2.231500371,1.7940599388102245,-1.1655296833183628,2.9090091455879636,-2.7880819033642927,0.4255415724195766,-0.22214750811834486
2.331504805,1.5215093530476995,-1.1892835344445645,2.929427726432152,-2.985927214368091,0.41150849842660797,-0.22785110150626983
2.431499603,1.1903344272120848,-1.2364118033782536,2.902455176329746,-3.2205541727974336,0.40824202818478644,-0.22529578635668254
2.531505852,0.9453985385916458,-1.225697242750236,2.875535901388503,-3.4907511524802755,0.38099339171045915,-0.2242449146558935
2.631507016,0.6525377696080433,-1.0924085783025064,2.904621002743587,-3.6905518944494298,0.39118813715388634,-0.21526201583987972
2.731500769,0.4279803513502106,-0.895310081736039,2.8675167105090917,-3.897927899544576,0.39648798105773714,-0.2263669921410659
2.831496301,0.2819546390755626,-0.6492053655235211,2.876473757905966,-4.158380877619769,0.45062321360530094,-0.18406302094243326
2.931500578,0.10145154264577697,-0.4323668931545362,3.0333604918564414,-4.283456650337773,0.4920326920801045,-0.10383585622815272
3.031506264,-0.003278351880935549,-0.17962032523416085,3.218335315932793,-4.292798738281746,0.5051841273886286,0.009948263750502954
3.1315014310000002,-0.15292023403766672,0.18750116811897716,3.3586132873098644,-4.285675278717121,0.43108809166608164,0.07753679619189287
3.231499552,-0.3473489168366738,0.46186576075591707,3.403213161622206,-4.148336579789247,0.3542058449778605,0.12622308129117585
3.331495094,-0.5387307034080132,0.7068041243449432,3.3827859736398502,-4.0015365805947125,0.32331546717827997,0.15991105883345713
3.431496746,-0.804376298901277,0.9533813298379386,3.344699778088375,-3.751565773534524,0.2915850548337051,0.17904624898022928
3.531575902,-1.0006740078935197,1.1440014244615428,3.2253028436726496,-3.536504118258221,0.3050419771900653,0.18384572928075882
3.631498996,-1.3458834419738852,1.2167641045787148,3.2032173173486354,-3.3109173799114338,0.34638237687668694,0.18027915187483248
3.731508893,-1.7025717861805125,1.2101054855028597,3.16092428982969,-3.0878795421764584,0.3887897774093224,0.18030731659194923
3.831499289,-1.9986597409892313,1.218602349248755,3.1688388630962283,-2.870061533636688,0.3917681959735385,0.17857968544753933
3.931505144,-2.256917841991742,1.1385260346712265,3.1617030586424404,-2.622560526089146,0.4015130821337925,0.17289875432183996
4.031496016,-2.614685456686442,0.8985852175329403,3.1671123801942027,-2.447917426343982,0.39839331329088656,0.18163689060780427
4.131500047,-2.763880336295516,0.703796196944446,3.1973120549310514,-2.2315336173104705,0.37251490054177516,0.18606632269894302
4.231497364,-2.9206784944034037,0.46674658494612326,3.1349102588038398,-2.0296456729066903,0.3606625368638305,0.19051118502792708
4.331497491,-3.053951193215595,0.1354228419284954,3.1025794757318526,-1.7769228220522415,0.34711001160162636,0.18727390590833023
4.431557377,-3.0932356142372237,-0.173548266815277,3.1156186083362147,-1.5253935780871908,0.3306160456527593,0.19107801018094137
4.531548559,-3.0615565835393554,-0.5146479646414613,3.061714993039317,-1.3412955498685002,0.28620454026772835,0.19308881069399553
4.631505731,-2.905570761238545,-0.7434951519761503,2.971382747512519,-1.07796668022546,0.3141589605220679,0.19598722608359206
4.731498229,-2.83681000004804,-0.9969416330978235,2.9323338318652428,-0.842792116800986,0.31023960724471206,0.2067442510752218
4.831503651,-2.577121980795571,-1.2033568409936146,2.8839866962088463,-0.597829352057579,0.33114360975365004,0.21801971340995666
4.931503333,-2.3528345706979694,-1.358948834464535,2.910778791528392,-0.40902015852718243,0.3915293997742236,0.23129136111832144
5.031504221,-2.0434039614557427,-1.4516053010725893,2.8823387723765452,-0.17565592500011862,0.42257960209408335,0.22952434415819503
5.131503496,-1.7757099358392792,-1.4743387286397822,2.991626693337049,0.0876604957676968,0.4458182774975265,0.22500745607340444
5.23150451,-1.447090307928466,-1.4140196293277705,3.0794757823800216,0.31294389002213596,0.4704194848784658,0.2209887553140674
5.331501677,-1.162911897621822,-1.267026462666069,3.1282001726601387,0.5644063635538746,0.4782949841484495,0.21297988946507973
5.43150142,-0.9534252160046813,-1.0915663935958737,3.1454352047951617,0.7678386269437403,0.45116156605419794,0.2006665130261691
5.531504202,-0.696646258390792,-0.8599994029552864,3.1895443986505674,0.9876546405466109,0.462764362289579,0.17745322954014478
5.631496846,-0.5200595704071255,-0.5835781275870502,3.3154166549970743,1.175148452685459,0.4886314331432545,0.11193472435196576
5.731498913,-0.45108679666157786,-0.2784168580632599,3.4497067803055677,1.225737183071269,0.49000522330827456,0.004153548100440909
5.831502256,-0.2851557522776674,0.07705230584938452,3.610854969289562,1.2052922456780353,0.4654392112410264,-0.07564886600577295
5.931505036,-0.13593507765829155,0.4094031427766273,3.609502982229623,1.079936241227878,0.43337790762075756,-0.12953792064338499
6.031519758,0.058168477404473,0.6740582078125754,3.6469265586431034,0.9101338096837155,0.37641487894899833,-0.15715755701637732
6.1315397,0.294156986120824,0.9821912749880625,3.578386175918512,0.6844857060814076,0.3603743296351816,-0.16574441769766646
6.231542725,0.5758124259643381,1.1817933688214983,3.4752377544058697,0.5286155711736272,0.3708994900615082,-0.16429231139394948
6.33149558,0.8913911867986379,1.3592028956375666,3.3513237467902424,0.26959998859608125,0.3601833176281051,-0.16676549382286776
6.431502607,1.2019203379398589,1.4199046637553765,3.3173980290059912,0.11351710044961302,0.34105664396253244,-0.16974593305114666
6.531538598,1.5253488649049756,1.4112470173607063,3.211565320705284,-0.05404625086513315,0.3514049659516943,-0.1648710123371927
6.631497922,1.8635730116527087,1.3422011863923924,3.139902820195866,-0.2768115737480704,0.321097722652324,-0.18127627727153478
6.731497387,2.1493686010609276,1.2194189536119857,3.0425927903387473,-0.47428349710038864,0.3165482479801226,-0.19744229450219114
6.831498828,2.3788394114125375,1.059472142023172,2.9864960262723845,-0.7477025340668311,0.3488832287754891,-0.2117871080040959
6.931500382,2.5763941215759285,0.8859912814079273,2.9196389524314017,-0.9709544737874691,0.35158117031309594,-0.21604467917335146
7.031504185,2.73380147955086,0.6227302429455489,2.8705490352256966,-1.1794311069735535,0.4439261169873809,-0.23213890618303162
7.131501546,2.8111365045953747,0.3235856937513388,2.992151631645805,-1.4122126764080114,0.47969972602767497,-0.23824254206461387
7.231557478,2.84018832270618,0.041468034807835105,2.9419145390757837,-1.6707641734107388,0.4283732137085053,-0.22731283906978997
7.331496513,2.7814782994040854,-0.2432495708527285,2.9061622819980184,-1.9364586828580803,0.42859685182017504,-0.23669544695471803
7.4315572,2.6456497449414798,-0.49581350902472227,2.906403238115737,-2.129495134279987,0.47238183053499355,-0.22434673348849077
7.531560251,2.486254513773983,-0.7192013455658232,3.0089240365491787,-2.3482719701764396,0.4532701938795682,-0.2167608735746918
7.631514727,2.293611713913173,-0.9168640104169157,2.9930881516976457,-2.573350244407238,0.4456382775322314,-0.22102031672862688
7.731505338,1.993234613885028,-1.0712798733840048,2.9924033873147207,-2.829235729612677,0.436967381539359,-0.2173484118627532
7.831499125,1.669011762119882,-1.1252171355694591,2.995804627992074,-2.9932292193733834,0.410516157193916,-0.21703078354009817
7.931499318,1.4226176566742978,-1.1256249330309855,2.9725711499372554,-3.2525975535358107,0.39663365261103173,-0.2105325110464403
8.031496017,1.1446297194624198,-1.0760987424121338,2.920807023674362,-3.4726523441472312,0.3039719060310068,-0.24129663526448147
8.131501094,0.8799575077676456,-0.998589825317261,2.7706992600570097,-3.7276225196085986,0.3001885895789887,-0.31741272976364654
8.23150431,0.6892403776350102,-0.8079060104361623,2.736942400053096,-4.020913824625106,0.40907136870331623,-0.2432719217372528
8.331502313,0.49950989168069426,-0.6049137004357528,2.816239452653603,-4.231537953578691,0.46348311179762575,-0.18226310774049373
8.431501086,0.3973797432206753,-0.3335983480644921,3.0209413058647265,-4.296019954720298,0.5400308076761944,-0.06363080494154665
8.531503297,0.24403075862772425,-0.0322063794714519,3.2189733450395734,-4.3102483706266606,0.499013380318953,0.024217045612113342
8.631500766,0.09185180603332499,0.29256315553047285,3.3309720513498084,-4.291276154171232,0.4345658676118929,0.08667969154069276
8.731502027,-0.030009552044094705,0.5771995255382198,3.418055185317182,-4.143701297256495,0.37572935357581555,0.13482738407792946
8.831498624,-0.280439522461445,0.8775538828376406,3.3633520107777053,-3.9712718921626102,0.3238892781439209,0.16358137163950154
8.931548142,-0.4878722628504186,1.0576679458235103,3.335492750662242,-3.7780255677627084,0.31849937513446563,0.183913567148453
9.031509807,-0.761499404273835,1.2426218794591992,3.2696249648724858,-3.538174156272379,0.338795037382814,0.1928656362796094
9.131573186,-1.0650324802045779,1.3638775944598975,3.19888838124352,-3.284352644559985,0.3654655515636162,0.18284167119134667
9.231502457,-1.4575806179337074,1.3943366516300988,3.2063216467245796,-3.099261886098014,0.42214538919603267,0.1733651411335993
9.331495067,-1.718843910980047,1.3694444716352654,3.2472668576569643,-2.906647441838008,0.4304928826915475,0.18289533491899784
9.431497674,-2.0348580804622354,1.2522931148385252,3.303573123784455,-2.6571344745953303,0.4105724128014129,0.18561702244927505
9.531546159,-2.3435278451807458,1.0886524000108804,3.228059558151276,-2.4524399745464374,0.3929848952254401,0.1866894891682575
9.631494743,-2.5664032038962925,0.8135235468952542,3.2180401343603777,-2.2257826626534056,0.38486855047720847,0.18412108031259494
9.731498999,-2.7002741437030027,0.5796837647604518,3.17542409512563,-1.9897650680073906,0.3642769244226053,0.18102605500356392
9.831503945,-2.878816961357912,0.2717802956569315,3.1728447458222853,-1.7833014134928886,0.35334371122562763,0.17971126586579828
9.931503206,-2.931373675156542,-0.030083490810758035,3.179666489164226,-1.5730084243125528,0.3393410229240465,0.18163940068706114
10.031504466,-2.840941133347983,-0.3349051018267275,3.1165658339803786,-1.3805857053841846,0.29494004805923574,0.19016553304933867
10.131497833,-2.760109626656417,-0.6305465128477902,3.0041076595116,-1.1123967409459863,0.28868402121619796,0.1946672500294853
10.231502345,-2.622833306095045,-0.8896226320522781,2.951993625691695,-0.9033547317959333,0.30203514159734923,0.20528271519432498
10.331502512,-2.4129532136047502,-1.0827466978318756,2.8391910107061835,-0.660853432435373,0.305944317068672,0.2156248200252945
10.43150634,-2.2080340748029963,-1.2193142109747606,2.8506018204509878,-0.4459818892276481,0.358509247863849,0.2257751646378681
10.531515759,-1.892158420241255,-1.3395777843523333,2.854771937825572,-0.18775885559867753,0.41881326883128245,0.2339895233633936
10.631499598,-1.5860160977147517,-1.3514203870698664,2.9473693727376675,0.0603025587939489,0.434478662041559,0.23061979414465494
10.731507811,-1.3350648206534217,-1.3261715966065941,2.9934829764504944,0.304023862708781,0.4634842476964262,0.22315186967106682
10.831503226,-1.050749380628489,-1.1756518450868407,3.058986434979528,0.5555160933917603,0.48773593781641267,0.21977797598719567
10.93150019,-0.7836900190745689,-1.0651039936321736,3.129500136436183,0.7052265777991613,0.4618840864073055,0.20735106871034387
11.031496633,-0.5643846197403378,-0.7817859812131174,3.1993959274021684,0.9582744813576229,0.474742031344711,0.17749183236161742
11.131512986,-0.4177447721623909,-0.5346891411478819,3.2668794732051523,1.1590765594028927,0.48517348838231183,0.13494744606990736
11.231506676,-0.29039922176792754,-0.23839337688495676,3.3753907830170946,1.2416511692287135,0.4984625607960669,0.011991984280876167
11.33155486,-0.13862311169686037,0.13914625800613473,3.504234559512189,1.2078185302142934,0.4696846568365826,-0.07537434191751215
11.43149578,-0.03224615771158396,0.43916544206763414,3.5571262048521595,1.0912794705002338,0.4358822513550575,-0.13827687635129607
11.531502737,0.16501426110030484,0.7178247948160799,3.5495316928941167,0.8973218432707851,0.3816295728413179,-0.16312700002339278
11.631504131,0.4227812349526936,1.0091344800423108,3.4843083751775614,0.6918571857708056,0.3649558600348737,-0.1604042355462458
11.731574878,0.6931352262514783,1.1644558516528845,3.4069411525981286,0.4847451570433221,0.3988200198637233,-0.1610345477798002
11.831499047,1.0100276733624556,1.3631334819515495,3.3324389806715513,0.2604342334364414,0.36916919256520797,-0.15813608406251206
11.931498113,1.3295214753072162,1.3907003970683829,3.263379797251639,0.08792384618355856,0.3516295073572703,-0.16170907156419115
12.031507927,1.5908081965024399,1.4422058113767307,3.1715090007949596,-0.1284200257343441,0.3464753984557184,-0.16745490304214666
12.13150327,1.9253956755628838,1.326615688173567,3.101084842321799,-0.30755813037185453,0.32553467698308464,-0.18107622888426467
12.231504169,2.2153647378878816,1.2313802916631562,3.0668926787507034,-0.57125087055318,0.32779230655120106,-0.19245179421962574
12.331500562,2.4459383175267346,1.053385081957124,2.951617827306049,-0.7456466686415604,0.3498807173198139,-0.20353554599156493
12.431500254,2.6602996918812303,0.8579204752077282,2.884981020973745,-0.9574087925072681,0.3534119959397298,-0.21397751712847238
12.531564924,2.778283536954661,0.57801364602364,2.8855047050027727,-1.1743182386290512,0.3850503078158781,-0.22173606950457742
12.631496809,2.858069991434252,0.31900413364723523,2.864414618556476,-1.432443402196856,0.4171477369892509,-0.2232857561386229
12.731497919,2.876965345466784,0.006978595033158876,2.838500521538601,-1.6608926480785666,0.4532161721799427,-0.2232836724716835
12.831498909,2.854517671899612,-0.2724908034566042,2.8714414325554225,-1.9139388196438238,0.4540595040940469,-0.22192299107673175
12.9315054,2.691411539849832,-0.5376140790152659,2.9288143061816156,-2.1340939934883334,0.47383760020164517,-0.2085363446479752
13.031501414,2.490924925720602,-0.7095064697959002,2.9197551741589263,-2.3536624825011874,0.4636918944412794,-0.2166696725057364
13.131500959,2.2695237423849886,-0.9350440901280267,2.976845195463267,-2.60549726484178,0.43963997434423735,-0.2122921506245711
13.231557929,2.0242280810492708,-1.0979880976519594,2.9961845551951742,-2.8002528529371733,0.44271749786573134,-0.2063172817575385
13.331507306,1.7100344517746946,-1.1349795856694187,2.980463863913461,-3.0466756566138002,0.4125299713648468,-0.20752822067058146
13.431500068,1.3978374888340146,-1.135284492159314,2.9643807599407954,-3.321963545951645,0.3951792434366941,-0.20437677349234784
13.531500384,1.1276891797175188,-1.0706651288600033,2.924206185039153,-3.491426573919186,0.375445101767793,-0.20512275260378657
13.631509205,0.8906226409923691,-0.9633346238592261,2.876924583101243,-3.741027724960114,0.38173236758598283,-0.20708796089892417
13.731506393,0.6257206515090563,-0.7496619788518883,2.8367100262158234,-3.9440782653059676,0.37018764661994424,-0.21088156179590298
13.831548543,0.49077809559664226,-0.5474682127333076,2.917716103780085,-4.186726628839738,0.42390390185349236,-0.17948594079058894
13.931508038,0.2786011598137926,-0.2856110772322247,3.052041897095053,-4.248867602571137,0.5103696804603306,-0.07868267242103937
14.031506469,0.16432596482563258,0.011617239232108442,3.237928737626541,-4.261922013164879,0.48697797935791637,0.014995748394173086
14.131502478,0.05654384857694757,0.3256423834501171,3.3339725576610095,-4.242329556400144,0.42352738824714875,0.07598777722416426
14.231502834,-0.12745674588805497,0.5854188521478413,3.426729353023055,-4.142540940225282,0.38702166501402574,0.1306907678266728
14.331498937,-0.3033721356452174,0.8489410524716359,3.4221043167059966,-3.9869149546556764,0.3243689998625467,0.16844316548295854
14.431504274,-0.5580820567758412,1.094880242705899,3.3827160205795734,-3.7572417473429565,0.3049231165615714,0.18556158567694128
14.531497977,-0.8318510307136174,1.2606887933131279,3.2994565728476313,-3.5470772025130195,0.3488751922266647,0.19256254619628313
14.631506605,-1.142680835969121,1.3691528375398359,3.2080317437582244,-3.295916224226222,0.3678303952944955,0.18416845489352437
14.731516068,-1.475371130914942,1.4057366636119395,3.222358025217673,-3.16699774517955,0.4079057761933769,0.1851395871434307
14.831502538,-1.7968717727666657,1.3744798915099505,3.22095030507782,-2.8910000950181347,0.4390507398290903,0.19174109087680408
14.931496806,-2.056852671466395,1.2691569504801081,3.3188548395662507,-2.7058202946584187,0.4060487480473266,0.19175143191243119
15.031502429,-2.3649809276896745,1.1319165113733618,3.244857181193725,-2.4557345503047334,0.38219471689851625,0.1953023550705783
15.131552637,-2.5558787847223634,0.8322937637056965,3.2741075785498945,-2.258050461933785,0.38262289651796744,0.1904839073000789
15.231562486,-2.832960400753688,0.5971055592315957,3.21402201360597,-2.0097101510611726,0.3752726671027398,0.18516345612447727
15.331499344000001,-2.900049240197378,0.3062278204592653,3.146133735122822,-1.7932838110126137,0.35499855321492385,0.17985465758681682
15.431499918,-2.949893121800427,-0.02104269017065116,3.1102223037441323,-1.590297056755545,0.3337330257448933,0.18570046270073431
