time (sec),x position (m),y position (m),forward velocity (m/s),"heading angle (rad), from x-axis, positive is CCW",throttle (unitless; -1 to 1),steering angle (unitless; -1 to 1)
0.135317859,-0.18319643387045131,-0.33625226595076785,0.047057122577175856,1.0514562974585828,0.15533655361332382,0.023344747517293644
0.33532018,-0.09877299321453727,-0.2482513120825764,0.9440411069194607,1.2261890552267611,0.65,0.05923406455425209
0.535319618,-0.06333524562569778,-0.02785433381308411,2.0628461396864752,1.1516928867755634,0.65,-0.09852326694155016
0.735297737,0.14535519079405712,0.44376305849828973,2.953461540399392,1.0069434865041873,0.5913139988162632,-0.19809163867738894
0.9352967790000001,0.6530069247751656,0.9489755269411657,3.1188297045590305,0.5664288996909024,0.3783206603369852,-0.24481427730633598
1.135299298,1.3225694812341713,1.0857583482725477,3.0412284274299375,0.08679702954834215,0.34512113915958886,-0.2511379010759108
1.33529865,1.7036425367677948,1.033187788256687,2.8984264056496327,-0.21085778757575807,0.3780318866977476,-0.24652316549445952
1.5352958970000001,2.3017065249939415,0.7491565354917876,3.165998556779335,-0.7515549487605835,0.3633049267106672,-0.24370548819189103
1.7352960290000001,2.522254490129674,0.2603035393557681,3.003983591154784,-1.2693406377062473,0.3583775406221674,-0.2533216297224284
1.935312046,2.68379355783208,-0.27286561516570745,2.887601582741652,-1.6322176780375266,0.3603878672388878,-0.2503612297642636
2.135299056,2.390019215733836,-0.7727373879335221,2.9311859186281133,-2.183625787160902,0.3379072003095585,-0.2536912068118315
2.3353225760000003,1.950587507035325,-1.2084464467567506,2.916978511637775,-2.6682995796623707,0.34800060175797987,-0.25367161359335844
2.53529438,1.3754685727974387,-1.3762195924300586,2.8542867558734755,-3.1632265462997817,0.3769580237712011,-0.2690242963601679
2.735298465,0.857251973396928,-1.0769095152022865,2.8370313383259136,-3.5262918085028834,0.3129126499635611,-0.26217210894788834
2.93538787,0.4976496117957389,-1.0001621128500617,2.723149717537161,-4.111120205632778,0.47977905338128907,-0.24332332904696602
3.135298475,0.2444032937112836,-0.37639961558705903,3.1893411090016737,-4.239853731725915,0.49092237453367854,-0.04016208402292331
3.335296945,-0.015850268994399036,0.34972764688126673,3.292620890682644,-4.3038743040163965,0.3491403524503881,0.10068144457830565
3.5352988080000003,-0.44256974754621037,0.7933293356367415,3.3404247913326386,-3.807053161040523,0.28630686078179324,0.16571741320858974
3.735294177,-1.0865925639858431,1.195546333725433,3.099792360196376,-3.500329759399514,0.2623281820542757,0.18857079161857576
3.9353165050000003,-1.6226387155118625,1.2501890483016829,3.069150622394306,-2.9432028191459945,0.3187916341255658,0.18442377127341
4.1352993829999996,-2.0999148113330413,1.0402453622085146,2.827066476219036,-2.58843741099524,0.3386015596650279,0.1963819360982307
4.335295026,-2.624419564258272,0.5746494388743772,2.911571605708878,-2.1687839086966356,0.34250298939800455,0.20917184266222277
4.535362264,-2.792150311422472,0.08037009945775106,2.922706482552298,-1.6468597930265871,0.3644220813695527,0.22989155824673743
4.735394699,-2.7787294777894185,-0.49260960783605023,2.910021421668192,-1.188672047230598,0.3921232162954069,0.22074777159049594
4.935297144,-2.46612586381592,-0.9962491758510308,2.847934450910685,-0.7891066487364364,0.382556881583129,0.22341002201682714
5.135411258,-1.9925285301070332,-1.2196328213950498,2.95595732523037,-0.3260134945540152,0.3861447466446314,0.22132248439452598
5.335300645,-1.4368980890227931,-1.311844062592699,2.8484776217103915,0.2327785859805348,0.3724634320221211,0.21963793029192322
5.535438258,-0.759434393440744,-1.1550954414354602,2.9032403686510735,0.6006026311049423,0.3706653527698769,0.2097038927309787
5.735407316,-0.303234608036587,-0.749534965519457,2.863958056153854,1.0967524479534643,0.3962254800980972,0.21942031396082268
5.93531084,-0.23062956375964655,-0.17934448610213508,3.152112970102809,1.238493793999037,0.44851793944140916,-0.0319821168072309
6.135430663,-0.05250546922653768,0.5592008078532315,3.281705514903736,1.0016902013326834,0.3579267868488284,-0.1598110250496209
6.335402727,0.40854996255847636,0.9444153455921552,3.2104199641693234,0.7642816481766502,0.303447683935316,-0.2053278858909716
6.535295991,1.0426895458948966,1.2600138528932516,3.0779728488199707,0.24610416711923194,0.31353205197468664,-0.22342738210430527
6.7353992510000005,1.6443207667457185,1.2874271065731404,3.0600851347660596,-0.15143861017384133,0.3579902827051742,-0.216364468075179
6.9353029930000005,2.1861833853058603,1.0142283973044366,3.035092455100545,-0.5856422334979947,0.39804454547938245,-0.23875280230799503
7.135325592,2.5136840508718032,0.701815553953036,2.980998100153657,-1.0746521665024065,0.36950748616898876,-0.2348886137022192
7.335307244,2.7178960597021833,0.21507659282801203,2.9274500858510013,-1.5129386412325685,0.3663301716214378,-0.24533187162393094
7.535300343,2.6631995892351985,-0.5342598854196426,2.9625671238847047,-2.0792033707295174,0.3776667800401847,-0.23885333949358584
7.735310968,2.271851166669827,-0.8594505868718831,2.950648328180211,-2.383519420463137,0.34039118934501555,-0.2406804660470144
7.935394121,1.827799473025114,-1.176583848592601,2.9007203378708066,-2.9065775765104864,0.3542417166562292,-0.2530679236956535
8.135419169,1.1104590299861632,-1.2062699060852848,2.9002953020661146,-3.3905904142992442,0.39398695427259045,-0.25523096325642386
8.335307688,0.6477023136694391,-1.0321790803925,2.8268106471797356,-3.869921816462731,0.41880679567222434,-0.24733764014376788
8.535313998,0.2195703724341817,-0.5022168088441736,2.918048428867244,-4.241774044205459,0.46941816357518584,-0.15591031540130545
8.735299651,0.07237484738607745,0.010348896947771427,3.403135175754088,-4.312281451982161,0.39006204109970166,0.04374189672312443
8.935297035,-0.33024422603786424,0.7274232741110577,3.537375712228865,-4.058350222275073,0.29734502499585735,0.14987661896379684
9.135369356,-0.7229153610572596,1.2259955544163301,3.2731890493823297,-3.6736197752156223,0.262206495274427,0.19605556129395182
9.335312819,-1.3047506628416266,1.375738338720374,3.0488416640468636,-3.293495610443869,0.29207222240216874,0.2005244361756003
9.535396649,-2.0788794536175295,1.3419147066345842,3.048737659403077,-2.8155419938084156,0.32327298481537164,0.20125871124796446
9.735301196,-2.454667029351594,1.0940135268948774,2.9852074373625754,-2.2625881490656456,0.3487595440234356,0.22782008071076199
9.935331416,-2.855380084878832,0.6250650000393426,2.9008650673730845,-1.8524824939877993,0.394569477880935,0.22740969905382855
10.13530049,-2.802922865499376,-0.011407261378122778,2.857798005367115,-1.3353253820734357,0.39565460749880904,0.22114287620476672
10.335409673000001,-2.7415841597595842,-0.6501146526812938,2.976235194591806,-0.9781311232745895,0.40154263764644904,0.2270638692270235
10.535404871,-2.266725823398034,-0.9679553545162098,2.9610711822249827,-0.5701117749692584,0.38743948583842847,0.21419411774856623
10.735303372,-1.7667663014171064,-1.2347423517843537,2.9617666614409117,-0.09651127984060981,0.36272540962099775,0.21679495647583547
10.935313374,-1.0313608127594438,-1.117621760310595,2.8982240882894184,0.3334575809568765,0.3489242993656043,0.2169372691237264
11.135296562,-0.6624136159144762,-0.9039251357925813,2.9029980989685304,0.7888391981588357,0.3813984646376825,0.20873167963379263
11.335297107,-0.3364327479460294,-0.4205580691034286,2.86824056613922,1.121441568660502,0.43666069958380377,0.09925753584011061
11.535298533,-0.11123765722534477,0.19867983169594544,3.262057237356453,1.2745472804215183,0.43910887742312543,-0.10046369930650073
11.7353027,0.24375550417981945,0.8128226929577096,3.2582618656356406,0.8311439780083218,0.31201390810354496,-0.19370209996761448
11.935299001,0.7507084152215232,1.137322992447385,3.1598977748141457,0.5464925871593118,0.2973927551992871,-0.20761880928697338
12.135422081,1.2725753486344589,1.4704461504550175,3.1112466564004455,0.07490232972489907,0.3555096134944185,-0.23425742945609218
12.335294953,1.8270562144517897,1.320239534188831,3.0551897705840214,-0.30599409010029793,0.3653082497306787,-0.23280664617749822
12.53532975,2.4853324853236742,0.9458881102507981,3.1410889017802033,-0.8665976232781871,0.36467412360470713,-0.24366451271740255
12.735396638,2.6817713146356827,0.561350070432047,3.0464179409550134,-1.2471071358207795,0.3733189103801758,-0.2473108526743352
12.93529697,2.676558930512121,-0.24862239616387954,2.9279698762218738,-1.6558985948842229,0.34298067836359986,-0.2498252653855063
13.135401818,2.5327602564935026,-0.7613756816096369,2.9284189461042396,-2.1735955087055046,0.34096941241916745,-0.25196990276891224
13.335372285,2.0041676602734384,-1.1036799788487275,2.9656791622783776,-2.697906967394336,0.35563770308286063,-0.24597954005405198
13.535300609,1.5656352080794618,-1.2052228073299487,2.8578070673571454,-3.190756559634297,0.3621181315993714,-0.2570959650829942
13.735295409,1.0435437349945356,-1.1329123017023983,2.9577909769635773,-3.5822788348318593,0.4046566917507082,-0.2557496516865264
13.935300608,0.5046055651814431,-0.6838517320731897,2.9287375829146045,-4.099937098404809,0.43398788454655746,-0.21369542313948198
14.135297339,0.2257848468307105,-0.1182776062367413,3.254522497037888,-4.352321593078461,0.4461852079972957,-0.05000479761089713
14.33544046,0.019336757038326845,0.3644892201883733,3.396699880113133,-4.239424246728989,0.352146288663052,0.10210332526982956
14.535389733,-0.4748563550216918,0.9692663289914288,3.3994426139665466,-3.930322094008168,0.2694543132751481,0.1735539380455964
14.735298319,-1.0065732286055111,1.4365086943400274,3.2719291674253155,-3.4550856362580755,0.2667912409523388,0.20558234648563442
14.935301304,-1.6524491543694333,1.3875453924338208,3.133636536355424,-3.0271627839258373,0.32346659252885607,0.1982879256826404
15.135298472,-2.1941470727499723,1.1105541530157113,2.935710857953676,-2.561346279445554,0.34717238112391113,0.19737534076239344
15.335299296,-2.5354884612665365,0.7690614764569427,2.993480311191367,-2.061340701936096,0.33589634690624626,0.22774589057346495
15.53531182,-2.860784739143188,0.17538592442547238,2.914586275808165,-1.6245690368109846,0.38345146686198744,0.22843060931555126
15.735303477,-2.7634444735968295,-0.3255230134115751,3.041735234577135,-1.1037504056744936,0.39196347167848733,0.22624586660063833
15.935296483,-2.501860262951052,-0.8387870244027055,2.9834771397075337,-0.7433550792812796,0.3764341149566071,0.2279958473104854
16.13531222,-1.9787322059236585,-1.176603467077317,2.9156455092863967,-0.3866451262782765,0.3887327910788194,0.2271510281437972
16.335302478,-1.4380688604988192,-1.1839256006746008,2.960098557526019,0.17376327681216794,0.35121212955115066,0.22734367016904589
16.535304727,-0.9342231951731566,-1.1347557627671536,2.9165560472232026,0.6288688216742017,0.3580356971639041,0.2223269303440571
16.735371276,-0.35236387471796027,-0.7589702904621526,2.8706747330088427,1.06116190529607,0.3851070247245263,0.22526923950779304
16.935368205,-0.040082071729033025,-0.0983544071641835,3.2350372046615825,1.310659881688953,0.45403221551500933,-0.015218950595420316
17.135301475,0.08266094412788678,0.5559206151701455,3.3665126625643884,1.1309874574941867,0.3471196087524003,-0.15352588912096107
17.335319481,0.4841199921184988,0.9610907280990169,3.3335325545748864,0.8003315508339421,0.2917894562008889,-0.21525301620073783
17.535298753,0.9216770605185272,1.3459003929011029,3.186381803869316,0.3356478783147798,0.3048065598265698,-0.22853828820535751
17.735295871,1.5050661174196354,1.3622448140908154,3.082870937895756,-0.11343212365722538,0.3564625004408563,-0.24195754028600383
17.935379835,2.1456574659186796,1.244052286141324,3.0660491609914415,-0.63447768074596,0.37604291615410923,-0.2443737380924088
18.135297696,2.6131742158025184,0.7879750257541946,3.002894948224394,-0.9627150995969296,0.35960668255590966,-0.2402384015988375
18.335330556,2.743592900050643,-0.0018725153948258577,3.020594548907569,-1.485584640455675,0.3523888223312426,-0.24667377257676737
18.535321932,2.6473375419024956,-0.3384313323941589,2.953039476953253,-1.8865752911380498,0.3472456833017273,-0.25743728058618287
18.735313059,2.316554441847303,-0.9532991943832752,2.963128669765828,-2.3457755130110387,0.3378750877994488,-0.25662078003492933
18.935299398,1.8519017938874203,-1.2127259087702087,3.003791916515592,-2.9141089527680846,0.3628606267095967,-0.2639337248318391
19.135302975,1.1927532999999082,-1.126036424056521,2.893842578389882,-3.308633115865867,0.37232332656091316,-0.2528563356227569
19.335298868,0.8130156017928715,-0.9319619317530445,2.9907321252122636,-3.7306043497171144,0.4067597136508434,-0.25359476500584405
19.535306178,0.3585559250544856,-0.5769048839181293,3.0138341702307327,-4.196050364103929,0.45613059222897984,-0.1860623205875436
19.735294176,0.06336892273697069,0.05676024294139102,3.3692273346007555,-4.272028231167569,0.38461309380923797,0.033748342541802846
19.935352109,-0.300226187345045,0.676458899231029,3.4509416402305884,-3.9770950039094126,0.2838332036542332,0.1336974675689599
20.135299421,-0.7269370633718684,1.243217245732756,3.2569928127258994,-3.6621658399138877,0.2804495305104713,0.179043370611172
20.335296521,-1.3267674911348903,1.3325484396708456,3.136046730338157,-3.1244002213703306,0.2766452918722415,0.1877833926053951
20.535300619,-2.057624931673927,1.3180520453916758,3.048677911945845,-2.7793861388986096,0.31874220380142954,0.1968653847309012
20.735390713,-2.422558942644149,1.0213282845391372,3.0061508695805874,-2.346345421790663,0.3353550948658613,0.21689972519267378
20.935296746,-2.9179806237909105,0.40893607162791884,2.9280575736915435,-1.8556015465259281,0.36424330805999977,0.21633610878197573
21.135294565,-2.8848170106115245,-0.15066948325391596,2.9988074614610096,-1.4837053263343263,0.37985328247526895,0.2206218601323466
21.335299346,-2.6325014467362347,-0.5477061760773416,2.9879646917524614,-0.872053120486664,0.3902099214781876,0.22734558834560165
21.5352969,-2.190790378574772,-1.157124748709496,2.9782269374744503,-0.5426599229740376,0.3697438121773255,0.22285611909815842
21.735295768,-1.6395848436106089,-1.2390083007846497,3.1032963021570774,-0.07057021946117764,0.36530305334388735,0.22610053592423748
21.935335952,-1.1998808203839106,-1.1780853634250854,2.985220741006018,0.2291202444237318,0.35700658084702885,0.23026201006606434
22.135314323,-0.6621851370062957,-0.9908935806802198,2.9438309796411057,0.7809491296630028,0.3674252812410069,0.22899199442132867
22.335367035,-0.31103263866312897,-0.5165164500889848,2.9980783518344514,1.1929335760340096,0.4654973697914199,0.10307570559024154
22.535323221,-0.1803337575159645,-0.06792382914867034,3.220342953283326,1.164564778686609,0.41262091411654717,-0.09100631383908214
22.735302794,0.2633678351350005,0.7465910759705885,3.334954053472427,0.8878797648403197,0.3044638118989909,-0.1939485761022664
22.935299391,0.660754459022928,1.0633304849727168,3.2583682272374785,0.6507878941625558,0.28203787967907823,-0.22831839182861227
