time (sec),x position (m),y position (m),forward velocity (m/s),"heading angle (rad), from x-axis, positive is CCW",throttle (unitless; -1 to 1),steering angle (unitless; -1 to 1)
1.006163203,0.22745951563845024,-0.2188580514814559,3.2046111413486753,2.0151425468216577,0.407121246356944,0.01581006319652727
1.02616601,0.1997355167078455,-0.160504691623358,3.2406129485925743,2.023100979767298,0.3735607726301787,0.031726457518763095
1.046158422,0.17118632858749985,-0.10200400399722298,3.2558366152858413,2.034854693514931,0.3719883338110657,0.04569249944078877
1.066123585,0.14188361512705372,-0.04366841023097222,3.2681083461908216,2.0516845891861295,0.35651784767026506,0.059504173256338916
1.086075669,0.11161001379991116,0.014551569326790163,3.287503826136731,2.0676915888601144,0.35003649691411687,0.0728302209552343
1.106081218,0.07971212416778267,0.072201166926069,3.2953153967675846,2.09049523923317,0.34318448176050365,0.08598510264366162
1.126076887,0.04695446220333529,0.12948135849951603,3.302490881368527,2.112647518829716,0.34195166583009695,0.09852371234282971
1.146078255,0.02976352733383337,0.1578243666955474,3.3148972160351486,2.1216998235570315,0.3365263883133928,0.10959184308276872
1.166075865,-0.023133862644825837,0.24185307760258345,3.316214111306498,2.1562202813367173,0.3187641891916844,0.10822118807269107
1.18607613,-0.05984310066289144,0.29700947555073814,3.3086871245075824,2.1809188484348483,0.30452084871238816,0.11800939734872361
1.206075884,-0.09808778273789463,0.35115029986202956,3.3084846251981763,2.2071080729134023,0.2905804609496806,0.1283709220377788
1.226090264,-0.158344236983867,0.4302228593581746,3.314657524155282,2.2496265983498676,0.2836046708812272,0.13661980492441847
1.246073864,-0.1788135508998236,0.45599678997892745,3.291334549743243,2.2648563075586288,0.27989145136121313,0.14526082360408366
1.266076685,-0.22139669931764092,0.5068855365187935,3.2964865514586252,2.2945173103060132,0.28206852370127716,0.15797053441877543
1.2860809880000001,-0.26534312827666495,0.556363283779545,3.3110277446720158,2.3275450771318145,0.2818847113589384,0.16297329677783223
1.30607829,-0.26534312827666495,0.556363283779545,3.3110277446720158,2.3275450771318145,0.2730011094456428,0.17075855131386297
1.326076402,-0.3574821547521152,0.6503062821511763,3.2741545102359004,2.4020580917357726,0.26459258947628367,0.17625252051043971
1.346070993,-0.4304803699860383,0.7158499112594635,3.261026745585571,2.4648546871854347,0.2517310358355965,0.17693104602175042
1.36608623,-0.45541796063304135,0.736703772612373,3.2507952267158657,2.4853488124934873,0.26075423686604465,0.18595919027268937
1.386086132,-0.5062343617585804,0.7770153946100158,3.249828904798949,2.527771308515657,0.25765025879702436,0.1907489076169111
1.406087403,-0.5584952772971716,0.8148252064702175,3.220083585483508,2.5731590631873424,0.2537673149504896,0.1944259411165364
1.426095642,-0.6119420381644866,0.8503043567979505,3.202687368414829,2.6214935257470184,0.26611441784622136,0.20814251890963298
1.446086136,-0.6662744868357308,0.8834650620747031,3.184923950804328,2.6664275606955083,0.26422089563394624,0.19628917644825108
1.46607859,-0.7216816547605579,0.9141528361639742,3.156824993661305,2.7142757298157987,0.25476483545646655,0.1908737932364171
1.486089491,-0.7778307217294037,0.942293478874744,3.1330325564909067,2.7638539299703937,0.2555427876022623,0.19905101966757213
1.506100156,-0.8349098643716582,0.9676800660635281,3.1183440400686413,2.81040650423115,0.2515231587625064,0.2004634129726903
1.5260728270000001,-0.8928328724827651,0.9897495353080146,3.0940411798491514,2.8586316817998205,0.26039717820501007,0.20094403830353685
1.546154024,-0.9510250696246032,1.0096317744048517,3.0673415613114416,2.9068545212044175,0.2677734533989827,0.20044784617216926
1.566079983,-1.009796407452597,1.0268218807807319,3.0626713687981977,2.950761719907722,0.2781723990366202,0.20110704436822416
1.586166769,-1.0689918754391876,1.04110671784074,3.039035323748962,2.9948958574598836,0.29507243349159806,0.20066120036187501
1.606100088,-1.128543644713561,1.052228471965905,3.0309261653643396,3.0378876627436044,0.2853168300897146,0.19485358064842914
1.6260914990000002,-1.1880759167876134,1.0605994855153493,3.00484847254626,3.0817713531802586,0.2825695874420102,0.195145190832091
1.646093577,-1.2476199940422674,1.0661846401138264,2.9839750484657466,3.125671713304078,0.2860030843095095,0.19499275837085503
1.666078187,-1.3072040413689079,1.068827038568948,2.97821534523281,-3.114108129152132,0.293298098584232,0.19506872189585397
1.686074175,-1.366721055013119,1.0690291408897938,2.960068884999636,-3.0726660456516175,0.29573959318113435,0.19659387002733597
1.706121693,-1.4258397234380762,1.0662617276894557,2.9609812506715594,-3.0295578118663133,0.3079274009343597,0.1981416059419809
1.726077816,-1.4846179887042628,1.0608185492751254,2.947869868676926,-2.9875147655540557,0.31752020207847614,0.19986781264059908
1.746091827,-1.5428371671045582,1.0528644775975646,2.9348713592209186,-2.94498380997946,0.31672195052041197,0.19394132244204298
1.7660842730000001,-1.6005342011893375,1.042508354437113,2.9233996780968265,-2.9010021278984683,0.3147172073897146,0.1954742199968908
1.786091896,-1.6575583769400561,1.0294877423873674,2.9248560160208883,-2.8576279491192333,0.3102665521113121,0.1973999973172819
1.806138088,-1.7137766465143596,1.0140910621153507,2.9123630509278193,-2.8164567566895005,0.31319845013993525,0.2002043950809466
1.826079499,-1.769347807182012,0.9963855928737946,2.911729848354194,-2.774987149362322,0.31249100198614027,0.20254767934611986
1.846157175,-1.8236298863424476,0.9761657350521536,2.8843832480879796,-2.732138678945018,0.31979842059770197,0.20520892698120388
1.866085795,-1.877093924347239,0.953705538241308,2.90565861567141,-2.6918854808229935,0.33025595669617525,0.2076846704325506
1.886086609,-1.9296279307676902,0.9288336760416303,2.905670822070039,-2.650961654805191,0.32851983451916444,0.20628067770482544
1.90607829,-1.9807975135444864,0.9020064904537642,2.888297603632396,-2.609537695131654,0.31943734270099106,0.2074669793276522
1.926096007,-2.0305185681371998,0.8727407966439045,2.8836561560270693,-2.5689752633646328,0.31798235840322486,0.2096761325334622
1.946105121,-2.0788377953106454,0.8416291697178118,2.8763697305996287,-2.5278184621769992,0.3150727964233234,0.21186557837481695
1.9661481470000002,-2.125877418467981,0.808344254512886,2.8738596137026007,-2.4862550582883847,0.32447161271108127,0.21374914992160252
1.986076739,-2.171433398303494,0.773051567398146,2.8941923236251106,-2.442718913191311,0.3194863219241753,0.21645719862462276
2.006073984,-2.2151539747974693,0.7360845770728869,2.864366034227742,-2.3977178250184545,0.3248951254354942,0.21893775126170076
2.026082955,-2.2365870558826777,0.7167228166887554,2.8883468108550274,-2.378398320168526,0.33937722346448507,0.2211122089062037
2.046079035,-2.298092409791821,0.656348894556615,2.8770241975072652,-2.3103859646121263,0.3257714012535407,0.21620883551341166
2.066078599,-2.3553851599200213,0.5923606647830717,2.8682447224752856,-2.2449011926594684,0.321053591379375,0.21916714176594412
2.086074571,-2.373627972830807,0.5701491567310815,2.8742848029406467,-2.2228615801886074,0.3176416030626019,0.2222212867292843
2.10607463,-2.408391681430947,0.5247125211464133,2.8560466328823573,-2.1772890801935008,0.3092048222876985,0.22462045592254204
2.126073842,-2.4407969319684693,0.4779792032367584,2.8403899359134948,-2.129312866191255,0.3217250417473072,0.2266014176589809
2.14607621,-2.471060841597459,0.42963928449964545,2.8482009821296006,-2.0828592373578156,0.32190445501070764,0.23683260412519466
2.166075866,-2.499219188009435,0.380571464054768,2.8453747693591005,-2.035272417251318,0.3306786597903621,0.23134191600096723
2.186078273,-2.5367180921131807,0.3044508908012267,2.8248002168736583,-1.9665810661099148,0.31895308379865955,0.222691814725208
2.206078832,-2.54805251405231,0.2785239546093621,2.8296203649804914,-1.9442170570693607,0.3144776565000731,0.23097788357802257
2.226075257,-2.5687893315786963,0.2261231221135655,2.810321068049614,-1.9003128254525254,0.317778969762744,0.23191423549649198
2.246077261,-2.586817473596398,0.17283083423465812,2.810157041626865,-1.8556701101067083,0.323000996717675,0.2320897946193576
2.266076316,-2.602451626401535,0.11894834965449069,2.8046679787902913,-1.809054002726958,0.32272661299531574,0.23282659826287425
2.286077249,-2.6093406583030356,0.09188749663692664,2.8058485744444615,-1.7861892517357378,0.32919026791208694,0.23311463201879873
2.306074093,-2.6263143083947615,0.009576910689297786,2.7940855226294903,-1.7183766620831953,0.34128693249997355,0.22661162694558984
2.326073762,-2.6344781848318046,-0.04568735241997327,2.78719961143823,-1.6727941830579707,0.3396921879516994,0.22644019546549404
2.346073958,-2.6402125112908696,-0.10130400071060659,2.801804899838722,-1.628302637772425,0.33916966265420584,0.22841685041807097
2.366170227,-2.6419668338015483,-0.12914166285782977,2.789288585454033,-1.6048704958001814,0.33481939879863715,0.23033739646052992
2.386159504,-2.6431164736505406,-0.15715618170585463,2.80380979752324,-1.5817001484240556,0.335443588076523,0.23169713090557
2.406113736,-2.6415816681281483,-0.2685211641585857,2.7928538576827138,-1.4876416935479102,0.3402658813068156,0.2406701669321291
2.42607374,-2.637109824990569,-0.32399114586283106,2.796203062853252,-1.4426495321239936,0.3459709259330273,0.23538177368837276
2.446076802,-2.6302989035499404,-0.37930058723860627,2.7811774257460806,-1.3961778968941339,0.35655505474042143,0.23700804487672936
2.466078176,-2.614939304086982,-0.4615535594462682,2.802329133702512,-1.3272257517688515,0.3626703137048943,0.23882771179695703
2.486082271,-2.60845185658175,-0.4887568384965811,2.802329133702512,-1.3045412354686163,0.35239965695740655,0.24286608067791343
2.506072772,-2.5939557625162064,-0.5425140409115261,2.790109249206897,-1.2562607904155132,0.3470930884245089,0.25058777463011783
2.526073202,-2.5770773385067574,-0.5955993781069634,2.7820442640109806,-1.209792578525539,0.3435418735756465,0.2359018991843572
2.5460714810000002,-2.5576582302615862,-0.6478465598574572,2.800146799120617,-1.1637641567543162,0.3443875963294496,0.23688554570325543
2.566071607,-2.535913760988414,-0.699071105636449,2.7774602350145763,-1.1187203962420171,0.3545807850146216,0.23736019604517444
2.586097528,-2.511688258276828,-0.7490591950651693,2.776416819092902,-1.0743400032789194,0.3512747812007687,0.23060412550854217
2.606076797,-2.4850853104521993,-0.7980317639281236,2.789430594213054,-1.0277101328453493,0.3651099666353343,0.23837731272468038
2.62608333,-2.471037855781401,-0.8220841545401707,2.7854056740134467,-1.0055830875291922,0.3584431355742563,0.22960561190283232
2.646073354,-2.4258170375161803,-0.8922525288367591,2.774624770829389,-0.9387539245124,0.35599907745190956,0.23062331943210274
2.666074476,-2.3927612192667813,-0.9371009347697729,2.787124392511087,-0.8971157952431679,0.34722265397757895,0.23194741058833346
2.686074311,-2.3574640387409085,-0.9803963003921192,2.7911422822403633,-0.854012255723671,0.35598761376494154,0.23369600922263659
2.706074343,-2.3204542626259363,-1.0221741308041323,2.800351058866221,-0.8106898798122564,0.3601577004364168,0.23568934773314335
2.726074375,-2.2820622824272703,-1.06241231255575,2.7803608777461615,-0.7667166570449443,0.36238945167356346,0.23678768662566577
2.746073266,-2.2415275789246443,-1.1009885999900115,2.801030893450781,-0.7233038056393352,0.37718073975776933,0.24555891762357188
2.766080701,-2.1994796129663845,-1.1377443989878173,2.7956505373073903,-0.678815927389796,0.3907422738827105,0.23998955772772956
2.7860761910000003,-2.155934322924614,-1.1725779258955609,2.795411362709727,-0.6348701345433361,0.3663421952244024,0.22896214368311005
2.806127547,-2.087384680467359,-1.2210662964180619,2.803183143827536,-0.5669911778505152,0.3597498876378262,0.23170780044460426
2.826073145,-2.0637350205379756,-1.2360777608972686,2.801161331637235,-0.5448399056074703,0.3545709554909037,0.23454446908103405
2.84607869,-2.015382761603172,-1.2647616137200524,2.812504633226458,-0.49903649942000616,0.3631257892985366,0.2372392157675281
2.866075819,-1.9659767247252071,-1.2914443697320168,2.8179180067373264,-0.4510982261576152,0.36052794097730345,0.2401191079754426
2.886162527,-1.9153160617633516,-1.3156946717154703,2.7947530622328505,-0.4036743172584593,0.3705735974456759,0.2425336475463232
2.9060987000000003,-1.86338770430978,-1.337461453374817,2.8206410552583527,-0.3574171110393966,0.3821539538042287,0.2449409119384402
2.9260756480000003,-1.810736141042298,-1.356896769678324,2.7979103006424983,-0.3086138286101278,0.363649668352444,0.23472085362713987
2.946073772,-1.7568879206352221,-1.3741224320518324,2.8283464848969055,-0.2593676446955267,0.36387663884911997,0.24240151839869942
2.966072617,-1.7023968642831846,-1.3883183200213949,2.810374128041266,-0.21347589269442074,0.35855671695919483,0.24278225568497735
2.986075091,-1.6473677565648253,-1.400297101235672,2.8188161463133716,-0.1676892822766327,0.35806590187955534,0.24247791595972634
3.006075595,-1.5917955414360427,-1.4096621386650068,2.8240766492080307,-0.12112583188997504,0.3704688336787393,0.24240314676569533
3.026073755,-1.5357309880600125,-1.4161977900106257,2.826257602434058,-0.0769495708329285,0.3680795938897542,0.24254417751746188
3.046074765,-1.4795248901847093,-1.420201797458148,2.802855289662792,-0.03258036551258673,0.3857272969727601,0.241692576801459
3.066074624,-1.4231133267436367,-1.4218673438195444,2.8225421779058633,0.012536133306061776,0.3684757521759928,0.23542222290826798
3.086074669,-1.3663890106518637,-1.420837671254764,2.8323472165181536,0.0587830090084384,0.370254501892509,0.2358158049130369
3.106075346,-1.3098543198474728,-1.41719783266665,2.834761611857692,0.10411819240045785,0.3654242943319102,0.23639368342412403
3.126077823,-1.2537316591722207,-1.4110781380626807,2.817995832705132,0.15411642338396905,0.36448448559144375,0.23677055526572177
3.146099202,-1.197736796401294,-1.402361162402358,2.834339946221049,0.20448471980621735,0.3674092785347493,0.23796951417217413
3.166197524,-1.1420491342073826,-1.3907998075014734,2.841346339089587,0.2527302822335455,0.38225173251595085,0.23903955081965533
3.186167322,-1.0871956504959213,-1.3768163628898158,2.832428821442982,0.3004850860161875,0.3846769116322197,0.23972940912447416
3.206155264,-1.0331228484701025,-1.3603686655272282,2.8327728367649194,0.34994647931522954,0.3933768630194359,0.23983860261830697
3.226081125,-0.9535885572267346,-1.330887666776716,2.8216761054117976,0.42300728448045016,0.3746215956769691,0.23071678635380988
3.246086266,-0.927545465212946,-1.319658648354844,2.836077390265295,0.44757719419928155,0.37648766177605836,0.23030265235129413
3.266084476,-0.8761827807614332,-1.2955806962214589,2.8381968532733532,0.49467680301517386,0.3695984330781009,0.22991175914396175
3.286087438,-0.8261124402454006,-1.2693015599315094,2.8287182536640025,0.5412459067248399,0.36904343388958855,0.23036905632662985
3.306086183,-0.7772778206428023,-1.240876935270371,2.83108636576086,0.5859780839621889,0.3771741993107824,0.23087307960615921
3.326077568,-0.7297049721418215,-1.2100074052090566,2.842352107310422,0.6292447279978114,0.38512838571774,0.23070724856441727
3.346091208,-0.6836180439857718,-1.1769230635423822,2.8340475598646893,0.6721124402471242,0.3966457761690023,0.22289608466196908
3.366093761,-0.6389015856354477,-1.1419229682988061,2.8361984698981746,0.7151742437067916,0.38072738723136684,0.2284541258700487
3.386105877,-0.5958730513245805,-1.1049621833987078,2.8456077355797382,0.7600014372586436,0.37709373242869254,0.22765100377550507
3.406074974,-0.554534663513418,-1.0661352509236413,2.8347020176404705,0.8048068011890679,0.380052698447085,0.22712152634432003
3.426077009,-0.5147522959775271,-1.0251880233621593,2.847112136232427,0.8498235787104739,0.38135229867737114,0.2272593402641816
3.446078112,-0.47681884963626303,-0.9827718408883307,2.84490260797361,0.8959934115557076,0.38200011340537554,0.2278760056681659
3.466077208,-0.4408206240277489,-0.9384940761301244,2.8718544631048157,0.9390701726909725,0.39211420338664627,0.22856609213136167
3.486077366,-0.40660820986684,-0.8928663867789997,2.849091793575147,0.9839561682463059,0.40109275528870786,0.2290564320045778
3.506079995,-0.3745455696376311,-0.8453250899735638,2.874990632227993,1.0283377753290655,0.40135577842061826,0.209330604872986
3.526074973,-0.34412612498988293,-0.7965285227358934,2.884106552270189,1.0680294258985037,0.41105302929438176,0.19150635138717303
3.546071465,-0.31561036337891807,-0.7462999686232881,2.8874816885717784,1.1048064736435022,0.4123648800051096,0.17351264010287698
3.5660715510000003,-0.2887048301370033,-0.6947646733935657,2.915297141724752,1.1361196259850854,0.4187627803003389,0.1550261987874486
3.586072352,-0.2635317450887803,-0.6420800062071246,2.9230327427282004,1.1635801885555666,0.4147642622454104,0.1375027813917411
3.606071359,-0.2397259218269409,-0.5883999831304735,2.934631376000378,1.1866161957808246,0.4282613435457674,0.11926496305121025
3.626119847,-0.2172772601184849,-0.5334387583857536,2.973466370004426,1.2062885858028283,0.42451281123449214,0.10109085818290321
3.646121652,-0.19589655857287047,-0.4776814087518114,2.9967289137092794,1.2219026689354384,0.41826959766346095,0.07931271019143254
3.66607854,-0.1753258880515997,-0.42114993924047217,3.0143173031403863,1.232241836036723,0.41563343862330615,0.053960965398376824
3.686089892,-0.16519286781321527,-0.3926579204261925,3.02402585184845,1.2361432012506226,0.4062371444179687,0.03027703051287079
3.706083388,-0.13496055861553444,-0.3061291151780313,3.0674570560859347,1.2461609234479807,0.40586390828210384,0.007738832568846303
3.7260785160000003,-0.11483642178779162,-0.2479503015952183,3.0852859550004452,1.2491764332210649,0.4061690135906427,-0.013403331686413288
3.7460933880000002,-0.09450137746628155,-0.18922595066342587,3.1048678249563375,1.2504137358728749,0.39899767801693403,-0.03351402146216978
3.766093754,-0.07387402457525737,-0.13016262277241863,3.1312550212670405,1.2495796058106972,0.39944283553416443,-0.05223280685931531
3.786100098,-0.06354240558321456,-0.1006134238661786,3.1303314632755384,1.2478741428545064,0.4040328046121725,-0.06909286912497468
3.80615689,-0.04248281912402637,-0.04100094088478917,3.162504518594739,1.242725998183981,0.3843066969448146,-0.0765438860921149
3.826086198,-0.009764069331649021,0.048766610349862516,3.1841093594208925,1.229845355095131,0.35867796010460185,-0.09480158829231661
3.846102207,0.012814187514513657,0.10839539119203957,3.2009886101501,1.216393153760749,0.3492735381531511,-0.1106196426901728
3.866120493,0.03604908103933982,0.167730138662041,3.2000044957327662,1.199851248303093,0.3418120581297939,-0.12602122291268078
3.886125325,0.060634921580110863,0.22706362755080406,3.206420366914189,1.1792506770531022,0.3345960210039128,-0.14082075407737943
3.9061123120000003,0.08639119601980313,0.2857879576914869,3.194428366093312,1.1547975847885408,0.34424165111855864,-0.1548735311627912
3.926089196,0.11385364740878273,0.3438649506218117,3.20172881337026,1.124274310969678,0.3404169919394859,-0.1682561865726979
3.946133066,0.14275609534029468,0.4010592514764549,3.2011198115869663,1.0918062886762432,0.31865244232455286,-0.1674773225370722
3.966078002,0.17314851299665984,0.4573527563941512,3.196220856131399,1.0572475704685724,0.302306360006738,-0.1786779725846954
3.986075657,0.20526395904433795,0.5125154980611242,3.1912233922947144,1.0210621555391097,0.2951632463030268,-0.18913741778940088
4.006077561,0.25712240747438175,0.5925283818666599,3.178231079266804,0.9624232921987594,0.2883500102102761,-0.19844323742309802
4.026096193,0.25712240747438175,0.5925283818666599,3.178231079266804,0.9624232921987594,0.2910831467720062,-0.20658251332726252
4.046090972,0.2940500144181125,0.6439919429169205,3.1636520060798707,0.9220886604158088,0.290121830639201,-0.21271482338430464
