time (sec),x position (m),y position (m),forward velocity (m/s),"heading angle (rad), from x-axis, positive is CCW",throttle (unitless; -1 to 1),steering angle (unitless; -1 to 1)
1.011545699,1.203183859807608,1.1416474248466104,3.0378012067050926,0.11397162227228977,0.44800607718249574,-0.23168863689296668
1.031499642,1.2632519146747443,1.1482400001950481,3.0149370802750166,0.06785034721766232,0.4347791607433256,-0.22897004387840164
1.051499156,1.3232270634182184,1.1519237760570356,2.997323936669464,0.021501574982136475,0.41931067397860783,-0.22750396722117858
1.071539174,1.3833537632333979,1.1526639464647066,3.013503851706956,-0.02727865502060633,0.4127006286480113,-0.2262684016474862
1.091567584,1.4430493283520318,1.1503651998570374,2.9759991911701986,-0.07557518224748397,0.40723751573048406,-0.2257300264684429
1.111543033,1.50236750136594,1.1455455600066546,2.957741844904619,-0.12486572269745672,0.39958422583790565,-0.22559994461075128
1.13149689,1.5611709075702302,1.1375604710387102,2.967909962580165,-0.17431133990469144,0.39373672253660036,-0.2255464073270236
1.151527196,1.6192656741688307,1.1266384026913052,2.9441611126856397,-0.22359762198730218,0.39003810704548464,-0.22733881814993545
1.171543783,1.6768318661927883,1.1131437036682859,2.949441829966569,-0.27148662225320047,0.38183867443464437,-0.22657163312477716
1.191527614,1.7333118551183726,1.0968883048015496,2.947298951221778,-0.3194726626036204,0.3638029056250311,-0.22533893584055198
1.211549243,1.7887970700356028,1.0779549448466328,2.9435936048406965,-0.3672319309792503,0.3680140894960624,-0.22454156905234848
1.231559138,1.8431618335725015,1.0563424873224745,2.927063050702586,-0.4128880251480979,0.3679904909474143,-0.22361306102346218
1.251508083,1.8963938443593975,1.0323415841451509,2.9145612748925163,-0.46061497307063587,0.36037424026440296,-0.2227852079264783
1.271497305,1.948364470866224,1.0058284715516905,2.9130008489686756,-0.5053354907046885,0.36802888947469614,-0.22218033176183405
1.291490942,1.998955156204129,0.9769282088648812,2.908011665913874,-0.5492912181220106,0.3662304310519719,-0.22460418967097023
1.311560403,2.047556468780725,0.9458709906084684,2.88928887080412,-0.5974049579044461,0.35526834376480354,-0.22456187804792271
1.3314966830000001,2.094568822889696,0.9126449185907481,2.879068795655348,-0.6450710035202577,0.34785650884443164,-0.22492974229356782
1.35150673,2.1400016736615255,0.8772228167987918,2.872516035456692,-0.6901268784202631,0.3482525901373863,-0.22624605691404828
1.3714988670000001,2.1833902154964115,0.8400091875797225,2.855012720402513,-0.7370776115388515,0.3503412504278881,-0.22698768695819974
1.391492442,2.224814018988824,0.8007325563814868,2.8462389148005967,-0.7832563037693286,0.35163710962419403,-0.2288841072037567
1.411523871,2.2640636307145043,0.7596820790185815,2.8485664023724686,-0.8304434582046379,0.35748342268503985,-0.23106568365425895
1.431494669,2.3012840618899633,0.7168883501664942,2.842466822750638,-0.8784649768118554,0.37003167847959406,-0.23279532256858332
1.451500535,2.3363386754185806,0.6722296481122845,2.8401600956141535,-0.9249574635867038,0.36470671990614634,-0.2330488166681429
1.471569887,2.3692887509706493,0.6263572248139028,2.821521289597805,-0.9724011407900452,0.36104964340379336,-0.23450202685771374
1.491504964,2.4000045430513155,0.5788523387404034,2.8290584065398354,-1.0187170305809932,0.3646617960418495,-0.2354699173785637
1.511535176,2.4281369180759964,0.5302124995751937,2.7998807215635035,-1.067718040385086,0.36822503045298444,-0.23680607455370228
1.531544656,2.453922183610737,0.48009807396884674,2.819129270527635,-1.1157272343569573,0.3709604448240245,-0.23785066596040483
1.5514985920000002,2.4774297825746165,0.4289976106014653,2.8142846038727702,-1.1648855375343288,0.3800808105854847,-0.2385157930873814
1.571538694,2.4985636548327292,0.3767756042121351,2.8160769685684395,-1.2130052004537306,0.3910639048632186,-0.2396013252769944
1.591500084,2.517012362614312,0.32377317237341796,2.8096303332731667,-1.2599259584288955,0.3966163759720102,-0.2361407731595466
1.611515394,2.5326815762020525,0.2700640874753349,2.7740894700438368,-1.3099360801156035,0.38832961704152286,-0.23761111179452166
1.6314966960000001,2.545634672832555,0.2155601444311942,2.8125751006140955,-1.3594405556699907,0.3972737828242054,-0.23840191311209413
1.6514965,2.556114793141082,0.16057544128363058,2.7939851605618595,-1.40971817666402,0.39148736177691806,-0.23960796358804753
1.671551921,2.5640079166285297,0.10510733583582713,2.7902660425211403,-1.458112878916148,0.39826488748924577,-0.24038766837654157
1.691508602,2.5690855287148326,0.049371150452063924,2.788527994787452,-1.5072241598880192,0.40614609002224555,-0.2415151589669182
1.7115275269999999,2.5711393815024017,-0.006572887322436379,2.794031669618554,-1.556373233634376,0.4205953634441614,-0.24281600881724144
1.731503295,2.570613221002849,-0.06255118356620055,2.790410896312908,-1.6048660821182295,0.43116173966061994,-0.2406863464420359
1.751498271,2.5675101376339566,-0.11850208176338535,2.8028153967508236,-1.652043355642556,0.4109202467815309,-0.24001937527725498
1.7714964100000001,2.5617976901719386,-0.17416477859812476,2.7886440198133795,-1.700234859792403,0.41520992500217535,-0.23926908611028136
1.7914969470000002,2.5534182993019288,-0.22969796062961997,2.80996770588714,-1.7491990939970112,0.4169763236231526,-0.23930235452863918
1.8115323600000002,2.542539388545152,-0.2846082981288806,2.797167874602299,-1.7954404540291307,0.4210496366881116,-0.23903912726144674
1.831499326,2.5289173036041994,-0.33924047859363005,2.8138617168396527,-1.8432293899299252,0.42551649152536736,-0.2387574978309534
1.851498604,2.5125214165858876,-0.3931663065015786,2.827881515570851,-1.8914900344317702,0.43653485948924853,-0.23855864785958097
1.871502567,2.493583144459877,-0.44635546923124186,2.8160796147593157,-1.9393703616737896,0.4343114160882916,-0.23963314168588717
1.891495189,2.4724115797586244,-0.4985149451917006,2.8297965870917032,-1.9890020494844334,0.4358073185786347,-0.23881886312314926
1.9115301420000002,2.4486877771693045,-0.5495744266479923,2.809140207504312,-2.038518759737863,0.426652559543384,-0.23786105401435326
1.93149719,2.4222111808526363,-0.5996093159588867,2.8311548152911086,-2.08600179282602,0.43328274131249245,-0.23790899072652286
1.951498859,2.393407742789177,-0.6482784846909567,2.8288271931506737,-2.1335582587155355,0.43155739380479335,-0.23737980472621975
1.971502186,2.3624934295394895,-0.6958107821252197,2.8490573156027272,-2.1811211748699777,0.43372128965319257,-0.23664163752394468
1.991549031,2.3291008312386188,-0.7416670442015623,2.8530267597909518,-2.227492840600227,0.44852533316564525,-0.23591282631162241
2.01150375,2.2935501152611546,-0.7862891513331338,2.8509196386588114,-2.2720391581272734,0.447568689284088,-0.23164281722433444
2.031498697,2.2559934750133745,-0.829354737305144,2.85694753609655,-2.3164647674020444,0.4497737536508275,-0.2304781694368295
2.051496938,2.2160110108922217,-0.8704412531760513,2.873438024390358,-2.363771998688622,0.43864650862359067,-0.23010677725304626
2.071541822,2.1745957701928775,-0.9099399124575953,2.8770968480052175,-2.4100179135220627,0.43965017275875024,-0.22982236534531308
2.091541796,2.131205725992206,-0.9476583195577143,2.8834477086067096,-2.454662196163098,0.4351226958418284,-0.22957614376380048
2.111570837,2.086194276089273,-0.9835311500744546,2.8863119237218138,-2.4996793516460243,0.43973464355423947,-0.22972313257834936
2.131548244,2.0393236130510695,-1.0174723904359602,2.8824091680591066,-2.544242016365658,0.4495633809211332,-0.23034195066417057
2.151499712,1.9907960113631882,-1.0493913906889654,2.9011717823341048,-2.5886791444572292,0.45935654888852673,-0.23087787696720466
2.171583863,1.941019425704653,-1.0793147117911868,2.902057661146626,-2.63263552905125,0.44783168490442715,-0.2182492406444693
2.191537788,1.8896752519184858,-1.1070711319700337,2.916208228009824,-2.6777080340341457,0.4373799091120024,-0.2190250690360082
2.2114972010000002,1.8371752034161328,-1.1325883487256103,2.924993757137853,-2.7227035955128867,0.4291241339381514,-0.22055289632221375
2.231500371,1.7835947172328823,-1.155550364048892,2.9155178981800165,-2.767967462030256,0.4255415724195766,-0.22214750811834486
2.251498202,1.7294061431332213,-1.1761540820558576,2.9194352017358316,-2.8146475707808536,0.42786109622784485,-0.22395474847475302
2.271525788,1.67410758187852,-1.1945315247129693,2.9125858271213123,-2.8606395336090498,0.42506080636763915,-0.22580540123495987
2.291549956,1.6177938010139823,-1.2100215875587708,2.9135328786503325,-2.907935278873895,0.43261824108591845,-0.22786895924509212
2.3115466749999998,1.5607995030243682,-1.223105949723294,2.915113891203372,-2.9546279889319367,0.4240521242346554,-0.22834728334789425
2.331504805,1.5032589181942164,-1.2336047459815123,2.9360517668855697,-2.9998876780991908,0.41150849842660797,-0.22785110150626983
2.351505822,1.4452396627476256,-1.2413046464382969,2.9282140286746143,-3.0459546959435517,0.40832866635687043,-0.22749667622399394
2.3715006560000003,1.3871503951979118,-1.2462132415598566,2.9167849391593057,-3.0916541713664145,0.40278846966140136,-0.2268147303011464
2.39154181,1.3290726720135837,-1.248565196335224,2.909182421124827,-3.138065091528187,0.40394462889366706,-0.2265116238683152
2.411561944,1.2706889712110059,-1.248330038157668,2.9136107040092214,3.100011367144365,0.40483750529293155,-0.2258070495003943
2.431499603,1.2124412109141438,-1.2452805112474294,2.916543830557359,3.053986268372314,0.40824202818478644,-0.22529578635668254
2.4515018570000002,1.1547132941752725,-1.2398306453142038,2.8976540347232587,3.007389311072748,0.40712376806063605,-0.2251915675380903
2.471505257,1.0973325926674102,-1.231555540691756,2.904025839075972,2.9601215304090656,0.39455017300441325,-0.22249414844443186
2.491550342,1.0405616407904932,-1.2205621468755876,2.891563140196567,2.9103564395867436,0.3895298981875549,-0.22286004756698427
2.5115267340000003,0.9845072250899987,-1.2070593498933593,2.882206948183568,2.8618549491700995,0.386022002228228,-0.22324731165284806
2.531505852,0.9290129093381216,-1.1911713845231187,2.8895205428266926,2.814770245738096,0.38099339171045915,-0.2242449146558935
2.55150478,0.8746884533607058,-1.1724939168391584,2.8710620283709263,2.767290209353384,0.3795496534920218,-0.2249655124059817
2.571519985,0.821424702391995,-1.1511841301934085,2.8755180474714845,2.7186849083103115,0.3894614979877259,-0.22557303282334146
2.59158113,0.7691202021511707,-1.127827992451895,2.870527447277976,2.672583166902945,0.39306787720743785,-0.22591046010068247
2.6115341880000003,0.7181892706276481,-1.1019820933219733,2.845998735878201,2.627190368670696,0.4069051507296945,-0.22531038761895839
2.631507016,0.6685646275999437,-1.0734153329918914,2.8645130360453197,2.581972960977075,0.39118813715388634,-0.21526201583987972
2.651499994,0.620288210415417,-1.0429683597863084,2.850885996621046,2.537979803348681,0.3792895648123487,-0.2170801653106722
2.671496314,0.5735312588020819,-1.0103139064425548,2.8511271352733067,2.494905097475603,0.3806251017813593,-0.21902811590443566
2.691550134,0.5285386782411715,-0.9756837005735598,2.838132766730887,2.4502081338273083,0.3772461341582908,-0.2207736935526852
2.711527079,0.48500919970128076,-0.9389526651044654,2.8467883174161086,2.406626023742871,0.3813189742891167,-0.22350904736565078
2.731500769,0.4430909051121853,-0.9003515137487145,2.849891335077016,2.364400705639865,0.39648798105773714,-0.2263669921410659
2.751503898,0.4033184619087711,-0.8597407431674369,2.8367373443555044,2.319081414940683,0.3995574701935463,-0.22917752381282158
2.771560393,0.3652798424994687,-0.8175487976643747,2.83769810749376,2.2732990673468048,0.4141015303880421,-0.22215562582978632
2.79149771,0.328986949806965,-0.7735142032446026,2.8541283153002377,2.2301468424760365,0.42576791981085393,-0.20981527655771426
2.811562045,0.2944970039212348,-0.7277094400876123,2.86474478352088,2.186725550505928,0.4422770458786241,-0.19680265701972596
2.831496301,0.2615811372308864,-0.6804503532063753,2.8947133780127072,2.1466565396800794,0.45062321360530094,-0.18406302094243326
2.851503663,0.23011727582042582,-0.6314874578627905,2.9176917860838527,2.1124753996942442,0.46091993782602064,-0.17168361026727486
2.871545125,0.20011371125915878,-0.5815351431838172,2.9327244257236,2.0772660530969813,0.47713277958221034,-0.15812034887743287
2.8915598950000003,0.1716520262928001,-0.5298017132110742,2.9543804455227525,2.0442212559401782,0.4881560244778946,-0.14429976092654384
2.911556329,0.14406627720252876,-0.4766254551963148,3.0042964621289654,2.0203992921405853,0.4878911654829459,-0.1300398515021781
2.931500578,0.11711990580341243,-0.42236500464617915,3.036231371490574,2.0032780043419187,0.4920326920801045,-0.10383585622815272
2.951507542,0.09077610166376877,-0.3670028169207189,3.073608947175069,1.9892349706502732,0.4905732504756876,-0.0787986460927959
2.971515286,0.06500542186034262,-0.31067774964862616,3.111474380812642,1.9790320797777285,0.49329391009049794,-0.05570164283133939
2.991559678,0.03914002203355815,-0.25339777731447144,3.1553486589387334,1.9732025319053916,0.5006694933793426,-0.032229582609106876
3.011519225,0.013457346477751002,-0.19544120738169488,3.180096768702676,1.971032858342772,0.5072477916141085,-0.009524155944095837
3.031506264,-0.012688614754552711,-0.13680408021931278,3.219098738580968,1.9713321602854035,0.5051841273886286,0.009948263750502954
3.051501197,-0.03927175588996858,-0.07767269925544261,3.246806758683173,1.97287155422873,0.48822928656381837,0.021712465362952692
3.071495227,-0.06629045426640442,-0.01825102572750364,3.2649063077801728,1.9767973995638337,0.47113421467742783,0.037484765633027106
3.091497256,-0.09415236958044963,0.04178445403392152,3.3086990652458197,1.9853558188726288,0.4553748974107266,0.05212110048005273
3.111538685,-0.12275811830253523,0.10171864916080996,3.3365433569899725,1.9977397312601513,0.43898074912460283,0.0654186250340869
3.1315014310000002,-0.15239338796567517,0.16161950281092394,3.346097396099302,2.0115792015406595,0.43108809166608164,0.07753679619189287
3.15152713,-0.18319253270924257,0.2214560550780014,3.374283128537122,2.0300398309227945,0.41967437184830064,0.08890377616319058
3.17154348,-0.21518696804113946,0.28062894864934257,3.3664988732709844,2.0514301846012066,0.41402710031307266,0.09990323763763109
3.191556509,-0.24840736772213007,0.3398143521133692,3.3801969898618203,2.0736202130580907,0.4135868498182533,0.1101080812924051
3.211497128,-0.2830359176988384,0.3982617069587904,3.397042534691041,2.0989138644416765,0.37275371683123154,0.11728794267192812
3.231499552,-0.31915861867807616,0.4558027045758806,3.382999003450305,2.1257345232840743,0.3542058449778605,0.12622308129117585
3.251497905,-0.3568671623043672,0.512421650541349,3.4029436268735687,2.1555728925038022,0.3443726286838399,0.13483881099554712
3.271494729,-0.39642641509482407,0.5680529298570971,3.4130950972965426,2.189402940748214,0.330062804425071,0.14210506876090898
3.291557439,-0.43718718218599617,0.6222591082142463,3.393259623834216,2.2246007210796943,0.331018598809008,0.14850029466740347
3.311497028,-0.47961674525410275,0.6754405623447548,3.3975459796273237,2.2603005820410527,0.32655927799237794,0.15473500101463705
3.331495094,-0.5237774165795432,0.7267782368937069,3.3825734782951304,2.298780749971917,0.32331546717827997,0.15991105883345713
3.351542524,-0.5695348408159236,0.7768513812865633,3.377921266505051,2.337850481937033,0.3117097400384427,0.16511670034708106
3.371498188,-0.6168291152374689,0.8246998366117076,3.3582698557050064,2.380879742200932,0.2967911648431096,0.16963436813797875
3.39150148,-0.6657120696154262,0.8708881453487856,3.3519361956064295,2.424224668350347,0.28798915406756187,0.1729998011009987
3.411496891,-0.7158181397334524,0.9149318464446309,3.3368366508839067,2.4700953493783118,0.2927669071564087,0.17609793621624784
3.431496746,-0.7678297904523088,0.9568413405195019,3.329918684019224,2.517985369278305,0.2915850548337051,0.17904624898022928
3.451496386,-0.8213114990380601,0.9958964166941946,3.29887995251996,2.5655007577817694,0.30015167357798767,0.18111339214897543
3.471495471,-0.8760568322685278,1.0325544135257196,3.2916557402766067,2.615284334269079,0.3078724337790983,0.1830034139718889
3.491499387,-0.9318371806030257,1.067108211117738,3.278431274021289,2.6659334770221723,0.3059931727607853,0.18290121607163815
3.511493896,-0.9889320008396271,1.0990308916049933,3.2661016356619155,2.7113990484931545,0.30245127810142863,0.1837245714156418
3.531575902,-1.0469326563468557,1.1280732407682097,3.2380143259645116,2.7580153776101266,0.3050419771900653,0.18384572928075882
3.551499904,-1.106069735866393,1.1539263917715044,3.218135518871736,2.804758676434302,0.3076188491422622,0.18338361938024997
3.571555613,-1.1662799371580805,1.1768746542292812,3.21924715108074,2.8522814551038125,0.32187472679497786,0.18305869600583505
3.591580287,-1.2269663160317767,1.197527991499798,3.208253932415599,2.898342748305975,0.3306336986114114,0.18193363475311888
3.6115067,-1.2882685513744836,1.2148315026302818,3.1816673530487347,2.9423252078028304,0.34462825431206723,0.18043403076817033
3.631498996,-1.3502252994613566,1.2291568526140422,3.166586047092583,2.9860296806971367,0.34638237687668694,0.18027915187483248
3.651496704,-1.4126196229137118,1.2404456587158121,3.1682552926390524,3.0294058040380105,0.35299767556193035,0.1801226399730888
3.67153055,-1.4753168592098034,1.248931032116652,3.1717266139704963,3.0743438417739766,0.35951269103144584,0.17989959630735639
3.69155618,-1.5381251637270374,1.2544195888708443,3.1567858180570885,3.118258134125491,0.36148294550103405,0.17954923175599782
3.711503637,-1.6011906698299005,1.2570472632477696,3.159775531672704,-3.12335646806231,0.37087671568092556,0.17966351116958532
3.731508893,-1.6643816008794898,1.2567122197882945,3.171075720852231,-3.0808812122041136,0.3887897774093224,0.18030731659194923
3.751501249,-1.7274800782321453,1.2531397717739319,3.1652062948997775,-3.0378680386785675,0.4055844321162815,0.18094896889354467
3.771555308,-1.7902975514039343,1.2472440206052906,3.1441799741998913,-2.994988592869779,0.4007786784945879,0.1750539341277198
3.791567487,-1.8530424850233493,1.238544379259591,3.162464466580187,-2.9522772919945353,0.3924471495928871,0.17560239804698646
3.811497523,-1.9153406682947278,1.2267843399140936,3.174673636619801,-2.909346829789521,0.39380822918053526,0.17666504340105676
3.831499289,-1.9768398846065565,1.2124905185551809,3.159985210728592,-2.866584587049976,0.3917681959735385,0.17857968544753933
3.851507024,-2.037919284278986,1.195625900418118,3.1614927726305555,-2.8229524761245015,0.3898908132438651,0.18029572800079757
3.871497775,-2.0981804098502947,1.175704525851744,3.1827553252068683,-2.7778597689612696,0.3973500725763395,0.18180903869268847
3.891576923,-2.1577016957733677,1.1535113436508584,3.1649596095022803,-2.735064460774202,0.4135943172386928,0.18335468917613998
3.911506931,-2.2158942335282226,1.1287181312353443,3.14838623331358,-2.690386574864751,0.4188074825343778,0.1847970037298047
3.931505144,-2.273331326048677,1.1014799968078757,3.1714402964551742,-2.6485960178988806,0.4015130821337925,0.17289875432183996
3.951507209,-2.3295910954170744,1.0718784186731087,3.1771632855201046,-2.6065412077260337,0.39760083093068715,0.1746324583323165
3.97149198,-2.3844690544075116,1.0398973011121777,3.171453186223863,-2.566118784168109,0.39109952671042053,0.17633454140687982
3.9915654,-2.4375555325167624,1.005447113054038,3.173800324325684,-2.5245523475138136,0.38078360628534397,0.1777073411927497
4.011535135,-2.4894337616816555,0.9686365870198735,3.177202368298073,-2.479505224685499,0.38809051525700516,0.18002999478547146
4.031496016,-2.5398777704456643,0.9300325763343865,3.161203799423887,-2.437762278828199,0.39839331329088656,0.18163689060780427
4.051511906,-2.5886358495932975,0.8890277777170318,3.1860558865523037,-2.3941802501651774,0.3979211072239045,0.1842239095824227
