time (sec),x position (m),y position (m),forward velocity (m/s),"heading angle (rad), from x-axis, positive is CCW",throttle (unitless; -1 to 1),steering angle (unitless; -1 to 1)
1.005392644,1.5074456004460828,1.4625232163556166,3.1112881915257447,-0.030117760254376475,0.4321947944125197,-0.17688534385873195
1.025490058,1.5696136029226415,1.4608808696093598,3.10485007345816,-0.07333915758627013,0.4091759919752881,-0.1697980261060469
1.045411232,1.6313589092992302,1.4571000409026906,3.087386122592872,-0.11726727426554576,0.39623444703938887,-0.169972457130176
1.065404312,1.6928875539499375,1.450047864145004,3.0901542932511323,-0.15905343758056106,0.38463178202994197,-0.17090899927997888
1.085398533,1.7538565448607357,1.4403125207680547,3.086071142557678,-0.20151820211769414,0.375279466015678,-0.17218446931285414
1.105448862,1.8143069657827207,1.4279661064235414,3.090420222550613,-0.24344017760189232,0.36641390407241625,-0.1743905955683905
1.1254747090000001,1.873877608042148,1.413066196345984,3.0648474303581694,-0.28782388353691124,0.3699050148573615,-0.1764107586382356
1.145397925,1.9327589725203351,1.3955520409289002,3.071246982626309,-0.3301405442640564,0.3739505953582815,-0.17910343879688784
1.16539871,1.990643744699121,1.3757848731738167,3.0569506880045254,-0.3723042499451101,0.37741135668988834,-0.17823971992732052
1.185446101,2.047412006790099,1.3530902360496089,3.0500446599695388,-0.41554386535707377,0.3627300305116955,-0.18047330801485792
1.205439162,2.103198813191552,1.3281781539819468,3.054716597242733,-0.4560060790378837,0.353866212517483,-0.1828340453899139
1.2253935550000001,2.1575241136060193,1.301223980018936,3.027869943782282,-0.4984883684188967,0.3453186366627492,-0.18571632595352366
1.245396551,2.2102250944410304,1.2716054719481715,3.0220965818676424,-0.54441647830098,0.3513407944998588,-0.18797137387289362
1.265408616,2.2613073771193526,1.2398716170204684,3.011319508820065,-0.5895847279937771,0.34913594716382335,-0.19098037664323023
1.285452001,2.310994877333653,1.205756854629244,3.0130296292557284,-0.6348757570443584,0.3582748512295032,-0.19416215155852612
1.305438644,2.3585748858248095,1.1696581947704427,2.98906642528372,-0.6840436613516148,0.36910821582306763,-0.19992429759891742
1.325478524,2.404499777161293,1.1313234900337932,2.993964848764434,-0.7302756435879911,0.3590368844439554,-0.20232646251490974
1.345409907,2.4483202418895083,1.0910723268467961,2.977551502997846,-0.7781205494436644,0.3639256182611259,-0.2042481099466297
1.3654069930000001,2.490039691802651,1.049031922390308,2.9537379735546083,-0.8270001879008548,0.3641187092257802,-0.20519624305184367
1.385401398,2.5298400809414985,1.0053382132762791,2.9582863738389453,-0.8738129287722821,0.3694864420784169,-0.20649636545835393
1.405426789,2.5677036284430206,0.9597505958451913,2.9738073165905434,-0.9178041445760831,0.37348051908597896,-0.207802770915788
1.42540945,2.60304521201437,0.9125771787501543,2.9427630888756418,-0.9638846074003367,0.3903943702835675,-0.2076955983124835
1.445403342,2.6361514627096008,0.863951923349091,2.9528882282394036,-1.009549993639582,0.3998499448870384,-0.20848910684485691
1.465399506,2.6671940489459502,0.813768393745895,2.950621131455866,-1.0530737395804637,0.40883877050838363,-0.2110809139983899
1.485395536,2.695885202855924,0.7623593150467783,2.9462259910196376,-1.098249305840928,0.4164630545019489,-0.21067271782347377
1.505452115,2.7219087323783158,0.7100296671944437,2.93667233357252,-1.1457993432722615,0.4165394432063775,-0.21103811022557686
1.525437577,2.745817388832516,0.6562741620876563,2.941051320478851,-1.1919782667238,0.4156712178809211,-0.21238979515087192
1.545398335,2.7670445957313117,0.6014660722215046,2.9380829548492637,-1.238806097449779,0.4356928692763517,-0.21293324906837174
1.565398138,2.7854280730684944,0.545569867706734,2.9379128521343474,-1.2886843650737325,0.4433461633485486,-0.21349700298256039
1.585420863,2.801379795520423,0.4889037618610242,2.946631581929694,-1.3369481724100227,0.45889201888406983,-0.21460017839632545
1.605457941,2.8148072115832914,0.4312388526808103,2.959611803760735,-1.3844588019162984,0.46539876298053934,-0.20692699072814025
1.625437657,2.825525708097871,0.37318596504518753,2.969815513139209,-1.434510911518275,0.4626246597992301,-0.20754207514254952
1.645403025,2.8331631177719516,0.3145848477810405,2.9638282346435405,-1.485624435374875,0.45800671583882685,-0.20876866599032357
1.665399909,2.83852271978759,0.2552726300811733,2.978443526090808,-1.5307219719152176,0.4598078631562074,-0.20986633382350853
1.685448693,2.8408083585064032,0.19564655578694548,2.9874735089591016,-1.5769335533805167,0.46418468054014356,-0.20999555317215088
1.7054637750000001,2.8405327988401967,0.1360843812574265,2.9740885404929167,-1.6241114980420472,0.46889248280105955,-0.21065131418644292
1.725478144,2.8373830425359894,0.07645594916926506,2.98291841694874,-1.6692508847619902,0.47565439325138065,-0.2114601205890064
1.7454054490000002,2.831449672430903,0.01677862828015318,2.9920084672571496,-1.714399761090227,0.4800956711381245,-0.21315754092721045
1.765408786,2.8226994889836194,-0.04257003034385659,3.0050625903441146,-1.7609504936632299,0.47777659158498437,-0.210654456432331
1.7854008170000002,2.8113009345429587,-0.10161877109125847,3.0133919713007336,-1.8062529711873776,0.4702549302136042,-0.21034730407362365
1.805393665,2.797091593785079,-0.1600696785206522,3.009125515269202,-1.8532338766419536,0.4676992290141705,-0.20976247223994546
1.825398126,2.780424601752385,-0.21802846742257476,3.0098153669326937,-1.8996817103296917,0.4767044197862835,-0.20884893129386833
1.84539954,2.760928143461376,-0.27527294741440633,3.022835427006513,-1.9467696063975264,0.47999240257835435,-0.20858685284836745
1.865400865,2.738927365389523,-0.3318879603861003,3.0379464429175735,-1.9925536724257717,0.48596397003709635,-0.20817836357533215
1.885396304,2.7143722530354997,-0.3872168722040575,3.0286866228410916,-2.0413376840023556,0.493350698578714,-0.20720466963319661
1.905393592,2.686861230770882,-0.4415696044407576,3.0444211160074226,-2.0878275566020097,0.4831019043023476,-0.2047521731205776
1.9255105000000001,2.656965368672001,-0.49489085426554685,3.0615450721951287,-2.1339383541363826,0.4806251948584731,-0.20397442446798592
1.9454642780000002,2.6247880930194643,-0.5468134726833815,3.0511868255862287,-2.179486830305317,0.47919956409784287,-0.20350644956246577
1.965448982,2.5900992406957397,-0.5969672701884372,3.04886160423297,-2.2264979404030947,0.4759747113828636,-0.2028748182081885
1.985448756,2.552913718191704,-0.645524900395031,3.0667327208455406,-2.274428080806108,0.4749802373266534,-0.20269542990918266
2.005401027,2.5134517536399272,-0.6925295721688942,3.072616792716384,-2.3201346927278004,0.48652090946286747,-0.20143214426143516
2.025451918,2.4720097845007243,-0.7378644205353662,3.069423049164076,-2.365815922818957,0.49136174535672333,-0.20083133221098695
2.045405234,2.4281928006077744,-0.7811312538653168,3.0710952225703636,-2.413248699726324,0.4988555929531541,-0.2002820566271496
2.065397328,2.382362060447316,-0.8226697506296397,3.093931355908962,-2.4537182285428187,0.47885193092532163,-0.19216720860354705
2.085420532,2.3348780704965293,-0.8625154030327403,3.096876633871292,-2.495508592383506,0.4731933377298428,-0.19185410755063906
2.105430878,2.2853759739581867,-0.9003693498040579,3.1106416367303495,-2.5364948957552325,0.4628690210577792,-0.19139746222918624
2.125444009,2.2342916652537577,-0.9359626364762065,3.1082918046098302,-2.5785291011505374,0.460399550449353,-0.19176446309376427
2.145401871,2.1817093394994878,-0.9695134280261756,3.1223108588819835,-2.6201094385582784,0.4648310737948811,-0.19225544145675202
2.165400323,2.127718635448557,-1.0007838308595185,3.1274751750016567,-2.6641536915624466,0.47060617837504154,-0.19204554904444704
2.185397396,2.072149463220918,-1.0298187793090101,3.1342027072151533,-2.7064082008702486,0.4715529873104686,-0.1941425390696155
2.20543701,2.0153916598016988,-1.0564655975102335,3.1307035761267086,-2.7495118077951224,0.4493904877481073,-0.19420800827660437
2.225460629,1.9574031261298124,-1.0805479369151414,3.1339674427991824,-2.793988669995426,0.4354234603828823,-0.19476271305825815
2.245398876,1.8987983843153513,-1.1021988656939115,3.130015406528604,-2.839788719918118,0.4303063915290623,-0.19514157012830607
2.265396488,1.8395359850066353,-1.1213139300293966,3.107719545026493,-2.8856606316802647,0.4215736980713701,-0.19578062015734082
2.285396004,1.7791741844497062,-1.137707358986718,3.1302110129623886,-2.9327222053940347,0.41903206590997566,-0.1956986472170912
2.305410241,1.7183105286759741,-1.1512504403731036,3.110123684307674,-2.9798256003835535,0.4186570657669228,-0.19626657955276888
2.325401902,1.6570773329200186,-1.1619260189875162,3.1102074453044692,-3.0265041414047884,0.42510681729274274,-0.1965614615801357
2.345429423,1.5954514401686604,-1.1699867956595522,3.1066951849509894,-3.073094606279785,0.40026006464435043,-0.19837555748320823
2.365397751,1.5338018245543261,-1.1751279821092762,3.0927177952143747,-3.11878146710083,0.390912128562741,-0.19711132865154662
2.385395204,1.4722703290098915,-1.1774082365645617,3.0829554778716024,3.118946706570596,0.3911160849240619,-0.19608067084215852
2.405393013,1.4106919500056005,-1.1769196018384949,3.083363386432406,3.0738877292056,0.37665771335702586,-0.19482596866545498
2.425493354,1.3494988541047965,-1.1734483539550808,3.063164226154357,3.0287894610338637,0.38118476894351183,-0.1936911794488485
2.4453951050000002,1.2884626759651652,-1.167332585789058,3.0676169664491897,2.9850821326760477,0.38068044801731676,-0.19276025685384077
2.465394624,1.22815020897585,-1.1585175162468662,3.0469254442097964,2.9396610330944757,0.38432401872255895,-0.19191824020932227
2.485395422,1.1686665052025709,-1.1466673749782994,3.0266178907690686,2.891681934727284,0.3756412877070318,-0.18870588359730897
2.505400696,1.1098248016307104,-1.13237923687595,3.0246313090967214,2.8471034742715453,0.3658483886265665,-0.18939001033718872
2.525479591,1.0518397192123892,-1.1154909239964053,3.023022308579504,2.8005063708759312,0.3553273464009504,-0.1905288051104603
2.545402364,0.9950143277451275,-1.0960774558238193,3.002951604083916,2.7542831715588574,0.3559379768980911,-0.1919775962845955
2.565401874,0.9393075906658528,-1.0741179948455577,2.9985514480407853,2.708317897362085,0.3505093276164495,-0.19394083244980695
2.585394211,0.8851135494069156,-1.049627903981871,2.978495456599737,2.6613239752450006,0.35815281762331,-0.19550280128284575
2.605403448,0.83258410380107,-1.022699503176314,2.952997459482338,2.6130414816674143,0.3691480974210596,-0.19621374149702495
2.6253996820000003,0.7809392349447224,-0.9935473552714138,2.9511821924600334,2.5670499818705186,0.37673817860892034,-0.19804835582296967
2.645473561,0.7312040412815995,-0.9619419590499164,2.944545109580062,2.5201504926909077,0.35344235467156,-0.19627069098099062
2.6654015490000003,0.683342515592625,-0.9281970376143661,2.919764334034769,2.4749786923851254,0.3527276447661147,-0.19737715892232097
2.6854403600000003,0.6371420134517523,-0.8925677706036149,2.9226835085598304,2.4286983550000083,0.34947936311778927,-0.19885188342905344
2.705562297,0.592812327108882,-0.8549013887545103,2.910443280388875,2.3833823508706247,0.3555884529830753,-0.20010644680481388
2.7254495160000003,0.5503789768821464,-0.8151785466830775,2.904639363550544,2.338041599699999,0.36728721279509075,-0.20098968348666893
2.745422467,0.5104898955348496,-0.7734324969749583,2.883700481153075,2.29051173700594,0.3735995419746827,-0.2026465897837804
2.765398124,0.4722500052608771,-0.730126785424621,2.8990263920817645,2.2451416091666103,0.3853553065731125,-0.20393950168693797
2.785450477,0.43603840681153494,-0.68490142208514,2.886664003033007,2.199469053984286,0.4092334179590449,-0.1938364715778741
2.805404654,0.40188851715430407,-0.6381030258883021,2.902740715119876,2.1558235920753965,0.42499848373484356,-0.17891037358788267
2.825462973,0.3693568291099295,-0.5896886658833936,2.9210814712266817,2.1185696955894575,0.4463816325016921,-0.16419563527490177
2.845396814,0.3379674181638877,-0.539783203008448,2.9405009360233745,2.0830715652545484,0.4649847923103079,-0.1493664420425982
2.865400113,0.3087892927062233,-0.4880516267121399,2.974177480167613,2.049851706002218,0.4892329730051448,-0.13366242649746
2.885437775,0.2807510415913218,-0.4351765679397089,2.9923056215943027,2.019660683824094,0.5000222777560104,-0.11860205719460777
2.905396585,0.2538467820196539,-0.3806525948091924,3.0394224873797375,1.9947199322017137,0.5210784566747578,-0.10333349794308164
2.92544249,0.22789427709719265,-0.32482620156041525,3.08040312019868,1.9730795800004381,0.5314608192851048,-0.08865775072970733
2.945403531,0.20276457406298964,-0.2675323779192998,3.1349401297298156,1.9560632552397188,0.5164811616773983,-0.07109980308808353
2.965398268,0.17808743421396467,-0.20919687011479354,3.181675952756267,1.9441083110867916,0.5187367275364291,-0.0487758114912367
2.985448073,0.1535511741612236,-0.1498634507786528,3.2246173164270164,1.936422495640945,0.5172622516295905,-0.02711385298026074
3.005401398,0.12908487544589464,-0.08973560719851606,3.261597496235892,1.934182229257182,0.5229638933899605,-0.006450860616492164
3.025477003,0.10417050196105453,-0.028791310648947094,3.2873480683379808,1.9362891309925612,0.5194528933284636,0.012389805383131315
3.045395675,0.07929085304998719,0.03301953474381273,3.3248778544700164,1.939408020453117,0.5197787662500931,0.03012500440192742
3.065399107,0.053792292297601726,0.09505230708710867,3.3549842834210977,1.9433389722107999,0.5165407746638089,0.04619893625419676
3.085399201,0.02773507021462635,0.1573720482993685,3.3668538915080073,1.9482668564994772,0.47212573595225704,0.05610428705333356
3.105394237,0.0009040600904766924,0.21987533798216558,3.400818773237265,1.9559905839619482,0.45283701788692227,0.06941809712832833
3.125396515,-0.026430717187535938,0.2826067598049421,3.428728647898308,1.9654359305200249,0.4371495539959549,0.08100644640515882
3.145395518,-0.054926140065904336,0.3449784803968003,3.426684210575635,1.978016605329693,0.42705425274511755,0.09132160624209294
3.1654010870000002,-0.08421241857391108,0.40737761808440076,3.4554512447261305,1.9929366780580442,0.41422874651634883,0.10133918566754845
3.185397907,-0.11501876327874874,0.4696195042826671,3.4731194965459844,2.0109370968607627,0.4057680111333864,0.11119999613156412
3.205395975,-0.14678294916331788,0.5315681440815672,3.486464280758593,2.030446815266079,0.40554450669281494,0.12077572043353013
3.225359575,-0.1798691615990323,0.5928026073669633,3.490306724084406,2.050789380668872,0.36916001174262214,0.12910062805214786
3.245396306,-0.2141266633336335,0.6536258025021185,3.472889802263505,2.075376086388682,0.3496523893703374,0.1386344969915497
3.265402956,-0.24991304277393772,0.7137273925389942,3.4919048465680884,2.10235790606914,0.34296362472110625,0.14733935542510088
3.285394341,-0.28707338669599375,0.7724996162215766,3.4808366166484728,2.13081450998887,0.3274547342555282,0.15547776794435125
3.305397792,-0.32565345557379044,0.830373474598167,3.4797784596030623,2.1645948629287726,0.3180999954622129,0.16273719672524536
3.325423537,-0.3659925397141066,0.887272998446697,3.4773045116040646,2.19991969302008,0.3126221102434937,0.16962479143358905
3.3454343460000002,-0.40799485506690825,0.94266086959074,3.470608896124642,2.236283178722225,0.3128856965662561,0.1762875965329603
3.365396567,-0.4515391413288934,0.9965104024326308,3.4629123039431646,2.275514437807674,0.30662463234193227,0.17912899755895267
3.385397867,-0.4968487718785777,1.048626351207123,3.450860717172121,2.3170145081411055,0.28940118704509327,0.18460329355302396
3.405405275,-0.5437503477441992,1.098736716194275,3.430600808749166,2.3591136446572527,0.2856594428610254,0.18983181217505884
3.425492649,-0.5924807433809135,1.1471028176719347,3.4310104192096795,2.4049750635799803,0.2811513591569872,0.1935073645542437
3.44539759,-0.6427189465675183,1.1930778057537235,3.3938905845691147,2.453257219329213,0.27998788790686807,0.19684803430446593
3.4654013900000002,-0.6945930712735313,1.236963835499309,3.399596480412405,2.501300294493567,0.2832527182215647,0.19992655116681143
3.485400019,-0.7478366293110236,1.2784740162803174,3.3708491574398343,2.5488464885521465,0.2898152838793898,0.2020480010222167
3.505409983,-0.8028011515606418,1.317231392478516,3.358759516686672,2.5990698617837826,0.3009084980826189,0.2034066272270388
3.5254833320000003,-0.8587722121485689,1.3533691772653162,3.325551778613969,2.6471920179578796,0.30148341566225495,0.1995333798428926
3.545404164,-0.9162451293712572,1.3867294087660078,3.309187952057767,2.6973057800110047,0.29537039655341374,0.20048666605339216
3.565414355,-0.9748024882583892,1.4173088790972832,3.3022355207543947,2.745421016780297,0.306024574179993,0.20067038214860938
3.585399338,-1.034145849689755,1.4451861720027717,3.275434369766156,2.792814127471173,0.3047826171866936,0.20112434700604817
3.605397071,-1.0945100535825587,1.4700391412606253,3.2611841648228723,2.83908373570679,0.31934947662996643,0.2017751150164611
3.625405664,-1.1558682748906586,1.4918264162037638,3.2579593807629714,2.8865411979167095,0.3313865171353762,0.20148711097366598
3.64539977,-1.2177465542996382,1.5110612039443905,3.22779664400938,2.932312100622519,0.354563889613034,0.20182667710622518
3.665405176,-1.2804726768326802,1.5269738944897737,3.2290538836194145,2.9766232153648486,0.3663087651009708,0.1974153247766371
3.685440651,-1.3435289269688364,1.5403774314915557,3.2292879315545444,3.023535457196219,0.3642070454557017,0.19733369553080018
3.705391064,-1.40695307944343,1.5503380913702427,3.2190030320101104,3.0658228138075594,0.37258013164560894,0.19761847925560647
3.7254685910000003,-1.4706818813737106,1.5576035882706611,3.1959802226299705,3.110116647474958,0.37974025446220955,0.19835749687012236
3.745451842,-1.5348794060253044,1.5614217886218626,3.2175560805444023,-3.1287618524388847,0.38625786136841467,0.1987114948107816
3.765411039,-1.5989139136618773,1.5626299772985484,3.2071954329021675,-3.0867322339259404,0.40590392057025193,0.19956281238999196
3.785397642,-1.6631557343090069,1.5608943343916013,3.220642958516091,-3.044620820570582,0.4175247063319786,0.20076783562157216
3.805458256,-1.7272974258406424,1.556085942014127,3.22132818511864,-3.0008076803698507,0.4329344536304723,0.20094012160628363
3.82540693,-1.7912066201700105,1.5485377010624797,3.2220927789520903,-2.95633352170328,0.42303098310979387,0.1970611376356713
3.845406154,-1.8545020483546821,1.537979556796097,3.2039222726860808,-2.9109263965608045,0.4271936170136464,0.1979842578027682
3.865406254,-1.9175876148782152,1.5245578553087749,3.2226298470476165,-2.863281609310456,0.41823305701513397,0.1989651237994979
3.885398073,-1.9800030875674988,1.5083607563676273,3.2230843208565205,-2.8193170327528527,0.4241440113744277,0.20076553789010057
3.9054474480000003,-2.0418999065181986,1.4895697889008683,3.2330590023258234,-2.777503090754137,0.42465301989761167,0.20257526504295814
3.9254111490000003,-2.102818200292619,1.467997119160944,3.241617277324834,-2.736145142953082,0.4331222637417994,0.20381667849853788
3.94540565,-2.1626808042463797,1.4434749392076682,3.2209171607069416,-2.6944701031304295,0.44475172591054446,0.2046454939913275
3.965417488,-2.221322029515222,1.416029837126529,3.2294665428801785,-2.6537866750173102,0.44117335815313846,0.2043023986013663
3.98539718,-2.2788973995647197,1.386334428231708,3.2349257917647223,-2.612473642213987,0.42956360247995573,0.20285570382676105
4.005399659,-2.3351410136131316,1.3541433388497668,3.2412039835262245,-2.5710212637357257,0.4272962078674772,0.20275613506146042
4.025500063,-2.39038374025631,1.3196233799615331,3.248401973947374,-2.5293960870820604,0.424317433159448,0.20350244315133265
4.04539559,-2.4440168727648337,1.2823809408223108,3.260412028472216,-2.489189038958137,0.42459308320096323,0.2043738781801937
