time (sec),x position (m),y position (m),forward velocity (m/s),"heading angle (rad), from x-axis, positive is CCW",throttle (unitless; -1 to 1),steering angle (unitless; -1 to 1)
1.009614504,-1.5902885892734029,-1.216782927046719,2.7784378379701735,-0.12012531285488569,0.36738333614863705,0.27365471796317287
1.029617135,-1.5352041728880894,-1.222938837011944,2.768087970870808,-0.0673706355329692,0.3758027776922937,0.27097411164667984
1.049608817,-1.4800885654280902,-1.2264805747104355,2.772293127948011,-0.015589819079043018,0.3773966420871399,0.268714819852687
1.069680459,-1.4247432202847272,-1.2270684632412745,2.7662290806321472,0.034417211188135816,0.37682701937796553,0.2660275330359439
1.089661347,-1.3690930829693098,-1.2244586848213637,2.776240607361535,0.08532772857986785,0.38793849216429843,0.2642422078624138
1.1096207040000001,-1.3139004725417878,-1.2196432845765737,2.769737075714991,0.13252870907881997,0.39809947611332736,0.26197969185750203
1.12961248,-1.2587985673494502,-1.2112398695809763,2.7790472200490273,0.18465947749826928,0.4046175690698098,0.25892855456193203
1.149607057,-1.2039178599045042,-1.2001842339390842,2.8066527289754437,0.23457255247313458,0.42251369164764707,0.25649314851540767
1.169608658,-1.1495411197038137,-1.1864959131702537,2.8153003632330758,0.28133320885781715,0.4239809598007526,0.24912103089507753
1.189613605,-1.0957591189997469,-1.1704581732875075,2.7966117636601004,0.3273803524552532,0.424139050497147,0.24804050026145807
1.209604213,-1.0424071377063115,-1.1513277521218641,2.8409414404488875,0.3738234548388413,0.4212076208293455,0.2466455642284448
1.229649139,-0.9900909893707088,-1.129910520350866,2.8311497784640864,0.4195689260185922,0.42704339205732705,0.2465416359014921
1.249652708,-0.9384061952854508,-1.105885980950533,2.8585616065931823,0.46518478107654143,0.4299389329844352,0.24467073328755792
1.269682547,-0.8877000147916827,-1.0792916263452494,2.8721307480609535,0.5123418516857623,0.4291117659292997,0.24346368822285827
1.289614402,-0.8379764403223553,-1.0502430366473512,2.87654852710606,0.5556871510086342,0.43786457704731097,0.24318278948110392
1.309674787,-0.7892244481406372,-1.0188645234831817,2.897354238948879,0.6005669478726912,0.4591886770660746,0.24292333871796828
1.32961457,-0.7418574313389333,-0.9853645205725348,2.908157741389526,0.6439095056858799,0.4278621514879011,0.23589012738337337
1.349605225,-0.6959195184677635,-0.9494936289436441,2.9182188313100794,0.687974840916307,0.42754079912280807,0.23595024596679565
1.369610149,-0.6514711480591975,-0.9116021656888464,2.9144671865309775,0.7323716596052512,0.4165827091380662,0.2361471734939748
1.389611513,-0.6082566191302832,-0.871765327644971,2.9338818169707106,0.77618217080691,0.41331214649586,0.23587913345168443
1.409613751,-0.566864874229153,-0.82957144769635,2.9646668525573507,0.8219423153203701,0.4160235286729239,0.23686833753653644
1.429614482,-0.5272577962436548,-0.785665201018517,2.9598626304054214,0.867191814120041,0.415755486887506,0.23735713487178528
1.449605668,-0.4894680931173415,-0.7397998505033956,2.97571339686576,0.9131050345945306,0.42180041206612184,0.23816462681696848
1.469749286,-0.45346840896111795,-0.6920229680501451,3.003968778084908,0.9601269339097572,0.4215280351696281,0.22241915184034605
1.489608356,-0.4192381893687338,-0.6427055977154825,2.999882327867593,1.0020292106792226,0.43173801331815165,0.20369419120353147
1.5096832930000001,-0.38674070428235785,-0.591854815763571,3.0234982814593554,1.041178797237304,0.4335750780956372,0.1851079572291953
1.529623536,-0.355989926013491,-0.5395671064207935,3.0411229480807127,1.0782663239718224,0.4312317088764842,0.16574725275426125
1.549605268,-0.327024412086136,-0.4857952004590244,3.0575183178996377,1.1086240436977417,0.441608524113572,0.14648205890215266
1.569689372,-0.2994403382927236,-0.4308256650653636,3.0807246322356328,1.1334769951556747,0.44456473172626626,0.1269005797853329
1.5896203990000002,-0.27315930295002594,-0.37494442557230684,3.093119925803252,1.153600950060568,0.44321446052827923,0.10681456236787959
1.609622333,-0.24778643510689813,-0.31782321975804306,3.1219164864599325,1.1689089589803392,0.45323621006556963,0.0885033470208726
1.629613296,-0.22348218771488995,-0.2598879028654105,3.140762427176078,1.1781378141775745,0.43823925071745373,0.07049301617569151
1.649672668,-0.19940027310699962,-0.2014080765773249,3.149825848156978,1.1833137429259555,0.43262098476522703,0.04392647880800717
1.669669094,-0.17558667361736457,-0.14208756054656904,3.1840467310672014,1.186427168083752,0.4296806594296671,0.01950148873546284
1.689618365,-0.15148085139674866,-0.08282603745167594,3.1938591076421856,1.1839094749429504,0.4267153547214825,-0.0031935713682652352
1.7096299890000002,-0.12700109903087792,-0.023049119937856077,3.2402307821147946,1.1781290209584019,0.4299324221791358,-0.02419972190989973
1.729661796,-0.10214685189478204,0.0370021155926283,3.257625588385521,1.1706988227505748,0.4297639965283559,-0.043590852567979455
1.749662717,-0.07647072738761915,0.09701707940948522,3.2596106351040315,1.1593312641126523,0.43567868812586075,-0.06082064771827955
1.7696912930000002,-0.049407244649100526,0.1571434239854273,3.2981109017759653,1.142665568157664,0.4477059363052494,-0.0765744661422528
1.789611951,-0.021337936801902803,0.21684254214645882,3.291455621510887,1.1230953747818777,0.4067518615508944,-0.08683492548725727
1.809612951,0.008176447552007603,0.2761587223285628,3.3020329080499584,1.0986208752416942,0.4006342212243438,-0.09915438712259396
1.8296171860000001,0.03914771886051701,0.33486915177722965,3.3154896186653526,1.0704456330458778,0.38357414440628834,-0.1105232986481345
1.849657176,0.0717308830155973,0.3930009672885443,3.3307655010084924,1.0405747596728283,0.3790937337941806,-0.12143543829551631
1.869718318,0.10594611604141231,0.45000747071929564,3.326270904911487,1.0067896266877754,0.3823426608376116,-0.1310033615775211
1.889609509,0.1419929385637601,0.5059603429210682,3.325976767974008,0.9720547423585938,0.3747356200048491,-0.13874114075443802
1.909659733,0.17992844012567735,0.560686903395876,3.3258408783872455,0.9368110902872582,0.38547882818346135,-0.14535495305475435
1.929619411,0.21968484874518152,0.6139478849167403,3.330441722799013,0.8956443805108646,0.392367601147178,-0.15021889598893312
1.9496058770000002,0.26107233715528055,0.6655455524321408,3.3084682201999587,0.8565937498204887,0.3524644706966422,-0.14815803773066455
1.9696887140000001,0.30419353502088975,0.7155529471744037,3.2928966451286765,0.8174351042409652,0.3431237581588022,-0.1527673991654435
1.989618404,0.3491625055988346,0.7636210560353829,3.2814043139691513,0.7755405945006083,0.34358758574521225,-0.15614969957783803
2.009692695,0.3953994420664356,0.8098871943957647,3.275030831846304,0.735962963502444,0.34517606314538646,-0.1591477022714133
2.029669215,0.44344420183147365,0.8538114212373125,3.2495306904289203,0.6919897084853573,0.34954580684953307,-0.16208612834724243
2.049627841,0.4930016588627331,0.8957900755870946,3.2460556766168676,0.6503499376473585,0.3549326584909726,-0.16284940711043888
2.069633186,0.5441065325173658,0.9357225579156961,3.2331901046263427,0.6086819946141903,0.37265122724582,-0.164256397464829
2.089610855,0.5964667476934172,0.9733147366391093,3.211080823952841,0.5668909069852056,0.34717970049349317,-0.15888621554638993
2.109619453,0.6502132822634044,1.0085181165561552,3.196768724734542,0.5238038373070835,0.3447916000102381,-0.15943234507682186
2.129630387,0.7050724584995419,1.0414210670136888,3.209543433910502,0.48065256571497705,0.343355162725469,-0.16104580449428968
2.149636045,0.7610164976205079,1.0717953109338103,3.2004405022354985,0.4377698710276774,0.3514799676547611,-0.16115301595944628
2.16969748,0.8179988174667675,1.099577655466901,3.1664003068862265,0.39435024290365717,0.35449656191976353,-0.1621051470332881
2.189601064,0.8758703422285308,1.124842095483027,3.152757064620668,0.350739091649972,0.3637080697618577,-0.16307061267491565
2.209616785,0.9345824479444659,1.1475818977242627,3.15213978974419,0.30737596715250753,0.37906403306414893,-0.16389864752267827
2.229634518,0.9941639724555232,1.1673624629980484,3.1358122579906054,0.26706034635084164,0.39446804695840787,-0.16416720943351615
2.249606159,1.0540825341973568,1.1846774755018097,3.1182932100958882,0.222725579890499,0.35045713251780874,-0.1536602907048238
2.269661536,1.1145608606802542,1.199425247059559,3.108556121972624,0.1838793559919797,0.34505238980533626,-0.15515137840438992
2.289650167,1.1754504703588287,1.2113609702694037,3.090770617794991,0.1441200827947588,0.351725722736206,-0.15671344900056147
2.309614897,1.2369637292240998,1.2208550909329035,3.1189076619593474,0.10353040792766752,0.3542442080796754,-0.15823805505750255
2.329619624,1.2983509065297996,1.2274166470806973,3.092630589044069,0.0657737010327716,0.3553825914695317,-0.16001646382849727
2.349664554,1.3597230959944129,1.2316499560411729,3.0788502992524958,0.025829870537286293,0.3654273320727021,-0.16284368987899867
2.369665301,1.4212671355178044,1.233063465473524,3.082680172336411,-0.014289698414184525,0.35876462403071196,-0.16191166246304445
2.38961461,1.482586203982753,1.2322192655561752,3.0668754109326724,-0.05507895894502856,0.35058269141149645,-0.16348410881291472
2.409615365,1.5432804088689573,1.2289457807934925,3.03464735320849,-0.09695610618936283,0.34780261875930385,-0.1649474934504588
2.429611396,1.6034813619098323,1.2227622517539605,3.027480012157719,-0.14067756038727994,0.3310665533161136,-0.16633083631462353
2.449648228,1.6634329079502945,1.2142051551878612,3.035043982300578,-0.18266892689747719,0.3365929127855329,-0.1688677166748068
2.469660256,1.7224541619148495,1.2031557851979122,3.0006742916361335,-0.22542854168276882,0.3404125796710181,-0.17079270615798553
2.4896156080000003,1.7809910037999384,1.189692618957738,2.9933552596844364,-0.26870237053531865,0.3406232427332347,-0.1726683272473543
2.50964136,1.8384123873872036,1.1734256275247437,2.978028128410818,-0.31169155765626216,0.3507034621544131,-0.17427169079203392
2.529619811,1.894928279541199,1.155070288693303,2.970725662684023,-0.35445499963208327,0.3388085442780385,-0.17463275145815205
2.549607908,1.9505474889702274,1.134187119697764,2.977983532789849,-0.39791033401554843,0.33189073508112493,-0.17522720981911466
2.569604478,2.004592773652525,1.1105922012441634,2.947854784785855,-0.44093327387083114,0.3223635286429086,-0.17669348867574403
2.589616307,2.057675143460624,1.0850809384576399,2.942320771767143,-0.4833881465763618,0.330792800144159,-0.17804379792693598
2.609627162,2.10925481266197,1.0573992113026576,2.9201895182580406,-0.5261767083420077,0.332289613370285,-0.17929487652761616
2.629618243,2.1594862937251365,1.0273708691400623,2.913821816919279,-0.5689900699224947,0.3395982002830378,-0.18072634818253092
2.649635107,2.2078457905645297,0.9950638955884201,2.911241968951171,-0.6145707715840075,0.3469565688849423,-0.1821894945497789
2.669723347,2.254795720099868,0.9608612329919146,2.9046748954527515,-0.6575724371986348,0.3284513070644603,-0.18141788306144396
2.689680735,2.300175451437288,0.924772189819466,2.9032196447739045,-0.6998640629247671,0.33009395385470397,-0.18311828816963927
2.709618974,2.343612679484704,0.8867141860947039,2.8830802205440116,-0.7423596906681521,0.32584262814546044,-0.18528788889307912
2.729614989,2.385174174159705,0.847021056360354,2.872824477055081,-0.78608635917622,0.3306930701767589,-0.18751117612901133
2.749674455,2.424619816014038,0.8055481307917409,2.8606191413619215,-0.8309696797070735,0.3329364177708159,-0.1898101807206668
2.769697356,2.4623394924776476,0.7622400239190911,2.8686624934694334,-0.8736330864730123,0.33699886485566605,-0.1911805398521858
2.789623019,2.4980488340581215,0.7176207394731008,2.853011279388584,-0.9177667447889026,0.34577327809273284,-0.1934534138441908
2.809632439,2.5315791022174485,0.6715760491794472,2.8408638273305455,-0.9643043317361926,0.3325181786389046,-0.19722088276610195
2.8296146220000002,2.562781938017974,0.6243629837572969,2.8402612122788353,-1.0103257424065906,0.333204276875247,-0.1986665939247823
2.849667481,2.5916949048419573,0.5760936721618499,2.7962059011286655,-1.057524815896433,0.33310201502814357,-0.19990423600058163
2.869695524,2.618289828588135,0.5264020459830914,2.8167374168291865,-1.1047631512840883,0.3365674618643651,-0.20089164265719675
2.889614879,2.6423310734003977,0.4756630178759039,2.8002302102157364,-1.1515967964881273,0.3355229456197009,-0.2026722312007274
2.909622765,2.6643794434593673,0.4240543843665913,2.811723159864554,-1.1974260590752241,0.34597400107673915,-0.2038468726656063
2.929635023,2.6836535270118587,0.37153071847586905,2.798016176969077,-1.2431603552350587,0.3581319643697969,-0.20415490809904843
2.949605717,2.700090322885872,0.3184549216391186,2.783151791192108,-1.2928347959990358,0.34714095531377137,-0.20545841243485258
2.9696977,2.7140733316210586,0.2650207257790296,2.7767765815081296,-1.3415172156211776,0.3577744884964765,-0.20563473161264686
2.9896116690000003,2.725632947831194,0.21055499966189103,2.775551674388457,-1.3879650127498802,0.3477192108605298,-0.2059288463209195
3.009662113,2.7343567166416625,0.15594533313500938,2.7590032546018644,-1.4369450502749377,0.3540192301448296,-0.20635284508438706
3.029615932,2.7403654016357932,0.10104782211847757,2.7539092672847034,-1.4858629414827271,0.3531419801296884,-0.20721925850681075
3.049644553,2.744199272841291,0.045770664148185154,2.773783986647829,-1.5293078696288471,0.36439976679534625,-0.20804745491548524
3.069688253,2.745118733702783,-0.009529027059220633,2.7670306306921297,-1.5756332268078566,0.37472937070934814,-0.20890797970332203
3.089611063,2.7433604510100498,-0.064708940819956,2.7503777782174397,-1.622610935253687,0.3704172759355149,-0.20817571957547665
3.109616522,2.739130990699435,-0.11978830303675875,2.761205430576936,-1.6689462074949375,0.3668371032425457,-0.20827143613517443
3.129612871,2.732348042690371,-0.1745829427236673,2.7659920852869986,-1.714852664777824,0.3716575915165158,-0.20768841294851267
3.149612862,2.722870203200115,-0.2289318864026814,2.7596030387712993,-1.7630563505321732,0.37506672234680133,-0.20709541065822715
3.16966362,2.711103580131643,-0.2828029134689547,2.759286932751074,-1.8091356893068864,0.3722587898022887,-0.20845480407591405
3.189606757,2.696892561159235,-0.33625515255006583,2.77515251351435,-1.8551585381001563,0.3820117732989532,-0.20872716289745916
3.209668745,2.679761298575766,-0.3890145043169857,2.7660377303934256,-1.9033064750759747,0.3981183078147053,-0.20852632249820408
3.229611979,2.6603961781449423,-0.44060633713489966,2.7585964139451757,-1.9509130039072307,0.38755124002005,-0.2057515728255943
3.249641542,2.638901645649625,-0.49117379060646266,2.745510947427661,-2.000209995603779,0.3818397641952103,-0.2065598003516001
3.26968727,2.6150095224727075,-0.5411065385720955,2.7666639694934974,-2.046201800758878,0.3831631049227635,-0.20668302772215022
3.289650713,2.5883116053518163,-0.5896468625329105,2.7718500438840272,-2.0937082568498,0.38534665592498213,-0.20763407195637626
3.3096205960000002,2.5593922881363764,-0.6366625939358881,2.7691470116222674,-2.142354551025273,0.38461016350958815,-0.20849819048844426
3.329617002,2.5283393313509155,-0.6823252737997382,2.757368402911777,-2.190958953166522,0.3960717508827956,-0.20860418989265947
3.349605285,2.4953231144254553,-0.7264567435220385,2.7619561776214008,-2.2394007043334403,0.4099322799419436,-0.20862699606105445
3.369708115,2.4598483924658536,-0.769162668581913,2.7804283162547208,-2.2847107100448305,0.41047075910287395,-0.20404815979942792
3.389618297,2.422684468452536,-0.8100887500873014,2.7631505880116936,-2.3314301296534894,0.39849965432892726,-0.20445537861379648
3.409620592,2.3832952952108046,-0.8493000280369418,2.776079426605048,-2.379161160484117,0.3951110816272789,-0.20437493803200316
3.429616185,2.3424368054078806,-0.8865210834135708,2.7662493923397435,-2.4242099899549387,0.3974986145027615,-0.20394759792317022
3.449609245,2.299372088376396,-0.9217375309706858,2.777991446905523,-2.46887953224087,0.4061285814170247,-0.203541478701312
3.469613045,2.255009002765122,-0.9555730624723284,2.7891132436883694,-2.5141353474943715,0.4117509106650126,-0.20310229228190577
3.489609107,2.2092185099932005,-0.9871998457347759,2.7760270368385815,-2.5598863174771838,0.41528102342540074,-0.20368680531746394
3.509615243,2.161675326548654,-1.0168077921640264,2.804537615217618,-2.6050884234126284,0.43461247266971964,-0.20342409549677182
3.529609396,2.112702621360448,-1.0444782479819468,2.810500662000934,-2.6480476038929073,0.40967116869914744,-0.1987628190943847
3.549606517,2.0626551232181627,-1.069999641917483,2.8158531870784977,-2.693090807806555,0.4103547481074011,-0.19919400601463194
3.569612654,2.0112733076335596,-1.0932645880114347,2.8340430020666108,-2.7386893090185382,0.40587922691805844,-0.19983271808539557
3.589661346,1.9587502233703227,-1.114215041529031,2.815483877102553,-2.7829224974397757,0.4044956521944569,-0.2003228556348123
3.609621206,1.905313836678008,-1.1329192781825255,2.8372343796629598,-2.830842386444713,0.41478033863029057,-0.2005858091795551
3.6296877260000002,1.851516016619487,-1.1493994716648048,2.827535952994349,-2.8774747766879236,0.41274121546006937,-0.20094389170532267
3.649659877,1.7963268928293898,-1.1631390082115913,2.847230151973326,-2.9231356309994765,0.42172785620377196,-0.20191363355590772
3.669668429,1.7408630999202424,-1.1744335174958074,2.833808407921206,-2.970760800095433,0.4059023895081614,-0.19438843581817794
3.6896099810000003,1.6848241143002005,-1.1831173500673187,2.832088835303365,-3.0185612092767378,0.39330885476243443,-0.19501018622076152
3.70960759,1.6283108678440097,-1.1893372907253825,2.8446053118004904,-3.0635744913453617,0.39697685695604,-0.19629953628604516
3.729610384,1.5715392814661153,-1.1927403944196318,2.8375503231573536,-3.108484112313039,0.38898089668906394,-0.19633572206056127
3.749653327,1.5148586295423712,-1.1937632779264225,2.814290524804588,3.1289197013161876,0.3955764372067593,-0.1969247449794833
3.7696420760000002,1.4580238002760035,-1.1920715380726576,2.8442548172399995,3.081480376784997,0.3943923702943612,-0.19772437442194685
3.789607918,1.4010676591020579,-1.1879538291913967,2.863037850794335,3.039181087170935,0.4083779540453767,-0.19774536718013885
3.80961336,1.3446990794122327,-1.1811286023103298,2.8449243946687157,2.993791528566707,0.40171841700844346,-0.189931582593872
3.829607907,1.288599549996375,-1.1719536368445072,2.835567511982852,2.948751858004974,0.38837188421584407,-0.1905614322177798
3.849664473,1.2329294860041125,-1.160402562742955,2.8479008053099553,2.9049317941641415,0.38492478978403877,-0.1914443832041176
3.869647289,1.177858238266662,-1.1461211391185837,2.845364618468951,2.8597868138838685,0.3903222598588532,-0.19221604113847396
3.889612005,1.1236944497842576,-1.1293716150896689,2.8328591963657046,2.814595443381002,0.3793726961846778,-0.192458444849357
3.909611451,1.0702414323791647,-1.1104597483814456,2.8380486782445975,2.7685976113719866,0.3754682565524582,-0.19449986570681352
3.929607451,1.017666423713981,-1.0893105033160249,2.8399118067105715,2.724855982687759,0.38803810176755626,-0.1954325541030921
3.949615345,0.9663068902953977,-1.0655780164451572,2.82984676254463,2.67924369783969,0.3881573758162933,-0.19454868163692168
3.9696111810000003,0.9159651527735206,-1.0395829932434522,2.8365534603550433,2.6338774409942363,0.3752657857263089,-0.19529803495887227
3.989617714,0.8670807274403318,-1.0114865830530546,2.82194816146591,2.58836709791795,0.3703977217132341,-0.19573621125076282
4.009609909,0.8194348678373882,-0.9811689825523429,2.8206282736736146,2.542531203400829,0.37189425512579555,-0.19628924673144482
4.029609745,0.7733977792871611,-0.9485663149376065,2.8208884527208564,2.4956856049686498,0.3698378682915209,-0.19668567393101846
4.049607648,0.7289074561051553,-0.914301806842147,2.799272138339637,2.4512814912917342,0.37185703658647745,-0.19788989427839868
