time (sec),x position (m),y position (m),forward velocity (m/s),"heading angle (rad), from x-axis, positive is CCW",throttle (unitless; -1 to 1),steering angle (unitless; -1 to 1)
0.12998690400000001,0.47513339439528063,-0.5083048474921854,0.014250924785994096,2.2075259480016847,0.65,0.5
0.23001267,0.5101970930797386,-0.6240494609699117,0.017138028561843918,2.2697666082832866,0.65,-0.09767782054713074
0.329982983,0.4652782116290837,-0.5747146023536887,0.36876987077363677,2.277041059681113,0.65,-0.14867433137512145
0.42998443000000003,0.45393480719166285,-0.5647134752776864,0.8567486217758491,2.1891116547930545,0.65,-0.1852079979911413
0.529985174,0.4528289940599703,-0.5096086803389472,1.3689774298850643,2.1093447103571408,0.65,-0.10859074871248994
0.629997769,0.35873768178809057,-0.34018924207478524,1.901406382081587,2.0899848281583884,0.65,-0.024316718425233842
0.729983719,0.2531713652726351,-0.10101330077404164,2.5094337043794845,2.1157467589084655,0.65,0.04371492304006732
0.8299870730000001,0.08427613627225654,0.11316564050051449,2.8831422232105526,2.149113260801695,0.65,0.10073662169612667
0.929985048,-0.021215160071649655,0.29289157721932857,3.1887585286724827,2.2930955399285264,0.6418059342688132,0.12731058222291577
1.029990448,-0.3565901861425673,0.6231552373648821,3.412617905246896,2.400414392898421,0.4876159063881577,0.15117572381980005
1.129986973,-0.6353304566703958,0.7958691712465539,3.4382062517558416,2.5689021337763935,0.3912403990907813,0.17379322279033554
1.229986367,-0.922978763097739,0.9185687738788708,3.41357853022209,2.8256433891392567,0.29834897215251205,0.19163176852575228
1.329989235,-1.2314369061846804,1.0121071963149375,3.318091978003705,3.0014378134391406,0.254575296596723,0.19998485759482407
1.42999975,-1.5424124174744491,0.9855370006161882,3.122538949453658,3.3130075074765912,0.27214425311305673,0.1995998196638873
1.5299901679999999,-1.8539834510294033,0.9824317945281141,3.047933216837203,3.5021994918526267,0.2810896378844163,0.2104878869472529
1.629988977,-2.195949900219976,0.9131453059386146,2.9891730123775067,3.6979755690279514,0.3336823456378929,0.21077099263139934
1.729997336,-2.41592927308578,0.706316939337838,2.963463717648169,3.911099799622897,0.3955477026664791,0.23015988398189402
1.8299867710000002,-2.52752198970078,0.41622181916929735,2.959751083999411,4.162022134461454,0.4177297618553828,0.2359771677122527
1.929987453,-2.7647950706662137,0.22770384611916103,2.97444519996969,4.446637577237961,0.4318326614047297,0.24272024616188692
2.029986389,-2.8066208234949737,-0.15306759087979444,3.0231160759646354,4.6449787824320365,0.4782233708375534,0.23735303322391424
2.129988195,-2.718404084991432,-0.4433663928820933,3.0871272380609542,4.86801257405741,0.47317203642045536,0.22974652875390203
2.229998304,-2.722182439290378,-0.6592990557565888,3.1980470791619156,5.123495544451356,0.4897747563910194,0.22101430307388892
2.330014697,-2.6526153623313355,-0.9730690062902135,3.132254327675606,5.369615176701028,0.48042278802930644,0.22676668494056093
2.429992989,-2.376408541193073,-1.2948161489527115,3.1205133103563054,5.460767229711866,0.4618793640020406,0.218331867007721
2.5299989,-2.129229639299872,-1.4148170894974204,3.186609261908252,5.773457064386876,0.43540641312921985,0.21278872308622465
2.629996889,-1.8451897015451901,-1.5860948338004994,3.1584576424023636,5.9566610831135645,0.4201855719586381,0.2081353237982294
2.730000777,-1.5572476478222501,-1.5684045721769044,3.111380253653444,6.297359092073349,0.40461482397722454,0.20793646356750425
2.830002231,-1.2669007357999214,-1.6072188652489168,3.1430730964610807,6.497455772322008,0.3900109984142305,0.20581318767479892
2.930007964,-0.9676111465211744,-1.4885624972194202,3.1388995948137746,6.719742030641803,0.4337730757456308,0.21614960620152573
3.030070392,-0.6969000730630637,-1.385140489191219,3.017261283546971,6.932572362829863,0.40853995618938105,0.21124924709436768
3.130003806,-0.5353880716894972,-1.1992232156335894,2.980464005709091,7.093129844320968,0.471776010487478,0.2050814664096879
3.229999297,-0.34805568943434373,-0.9935428463173596,3.1873534658205624,7.357322336274537,0.5502774253057956,0.14993494714665037
3.329985145,-0.1134205334034352,-0.681908177688744,3.291025299827621,7.437470977913939,0.6248392253765985,0.03310637947208914
3.429985632,0.03064047369801181,-0.30164220302168787,3.6187664278111904,7.458214097125685,0.5807918914915113,-0.05218151800206438
3.5300120919999998,0.13807495546543894,-0.02401742853125629,3.7735056241926435,7.511963679657944,0.47017145956612216,-0.10322901670579139
3.630002804,0.27658337445485753,0.371591887516948,3.8310486828696955,7.3715325064360995,0.371191648828687,-0.14826561615511752
3.729992037,0.5140484200684833,0.6645780067515911,3.720405576334858,7.212501691329679,0.27617387670796123,-0.18549161403147874
3.829991234,0.7737327387244896,0.8787852352864619,3.490301107901039,6.966735051262361,0.22869316042988524,-0.19355870493756422
3.930002309,0.9968110452179947,1.0947168611154703,3.4776058531249405,6.8184272255673575,0.21718933983473418,-0.2113892147092401
4.029987339,1.359606978237686,1.232209866253125,3.303213428191887,6.528895571607202,0.2279022682884306,-0.22297249237759914
4.129989518,1.6742757533538617,1.2521712134627283,3.1394124566615917,6.348359136232294,0.2933061189152504,-0.23942641191507127
4.229983489,1.931448037073939,1.368729467513625,3.062528000735096,6.117947900830739,0.3600805051832142,-0.2724259978621319
4.329983543,2.2310520452831692,1.2104445359483949,3.112049360701101,5.846843925302156,0.411457203458988,-0.2674712985397052
4.429991686,2.5630747219540764,1.0446174433800917,3.0968396542509793,5.577598454533001,0.46529774764391635,-0.2658381619554469
4.529991515,2.7044491555687435,0.9073979603361334,3.086548049700215,5.475123488109714,0.5131033530154552,-0.26384570465172447
4.629983577,2.9183987548480883,0.5598523131992905,3.1323607422457767,5.117042524574581,0.5224258961474043,-0.25921482315410826
4.729999368,3.058969917946839,0.3285370825549575,3.2791381707185185,4.870236721624424,0.5021594310834333,-0.25389768058446643
4.8299912030000005,3.0641158916825444,-0.06562854291062392,3.257553117806853,4.640973997557105,0.5156051285551012,-0.23561951086093672
4.930054126,2.962277991493989,-0.3611554321050973,3.2522332527540416,4.401237928133202,0.48698595045126136,-0.22553895400438445
5.029984942,2.8569876952990167,-0.619934843246369,3.242557249930401,4.271273430642027,0.45318562468512025,-0.23825933895348594
5.130017424,2.766581442603545,-0.9237091343323209,3.24763658549794,3.9926261457132424,0.41837832674702324,-0.23343206893299628
5.229987715,2.4923868367202577,-1.117782434255713,3.2095030765144434,3.831277056694839,0.3851482790488921,-0.23668288738289106
5.32998423,2.1408015864842636,-1.2937032544164297,3.2189283899513095,3.539926067048901,0.36533760206945015,-0.23958950832821355
5.429991348,1.8929425209284798,-1.4115215807058992,3.1457703205647847,3.332289000590221,0.3723864738576477,-0.2473489800482775
5.529994322,1.6850706517079286,-1.481850999362427,3.162608228868413,3.1160024476810264,0.3962072413629977,-0.2569782939594208
5.629986232,1.310095816322961,-1.439244137310308,3.1273000098101202,2.9291103954822857,0.4392553390874714,-0.2680192787048301
5.730051721,1.071868457209463,-1.2918433929877209,3.0765609408644212,2.657293451230147,0.4917751683218994,-0.25860638785137113
5.830077012,0.7425731349173966,-1.1023852393905913,3.1958969094513656,2.3596797686341815,0.5412072102025104,-0.25330666406882363
5.929987584,0.45664825139376536,-0.8602433919054975,3.1813642554014643,2.100766488988365,0.5949371147088095,-0.18382123354150065
6.029987406,0.3705353022204497,-0.6493220310262172,3.4563709196381716,1.9691142887613255,0.610615897909348,-0.08393932235376224
6.130016131,0.21983003777836294,-0.21802510404285375,3.57359414353912,1.9856688791328783,0.581784746150167,0.011043953197838203
6.229983655,0.030780788204919307,0.025362146035032875,3.769896903118799,2.1221387021701994,0.4537586318348455,0.05576912658470104
6.329999104,-0.15270919841068709,0.38350932209423055,3.8588738227120825,2.276400261394371,0.3591641144235506,0.0917112286086438
6.42999709,-0.32524760737032465,0.6674943854142424,3.790395309920291,2.272940114321088,0.3074979057485036,0.12608513071406316
6.529999943,-0.6391525209361631,1.0151553987226167,3.7242252496310444,2.4471769839068536,0.238041475844129,0.1555453728825562
6.629996747,-0.9400190275912594,1.2371684410051451,3.6124957096977997,2.7280268021945484,0.19657022503043126,0.16915893041326635
6.729998878,-1.2037709677399833,1.3377586358783329,3.4341901891745565,2.934320191738826,0.2054591883163155,0.17932159618739033
6.830084947,-1.5853616626082405,1.3906154522768412,3.2450520820928217,3.1255735936103504,0.22685980597959815,0.17959747817689764
6.930083883,-1.8317037776448137,1.404539819629597,3.1556141903597763,3.386934634219596,0.2823438103917342,0.18069918231610846
7.029987552,-2.1610211573402056,1.341006290091097,3.024522889884213,3.5503077249623356,0.3237529295774065,0.19999509110399238
7.129984221,-2.5116561913889464,1.1322376471944633,3.05482891284867,3.7475826338353198,0.3587895309489584,0.21679201936579964
7.229983154,-2.6261781972728504,0.983610876518773,3.1220335839817817,3.9926988716742535,0.40213035847713485,0.22819811282259644
7.329983462,-2.8892053110343685,0.6503226908755831,3.019150907626294,4.2660498718942526,0.4593261649476104,0.22709371374008738
7.4299882440000005,-2.9790351578506953,0.37828624636879543,3.0221979932261043,4.501819306126728,0.48198751639359383,0.22092709015718345
7.530060607,-3.0372422829073074,0.12006877432909673,3.1075565906796534,4.71407353509879,0.5087201605312662,0.21342824366001867
7.629985969,-3.0741487874933986,-0.14397851849632887,3.252073527051289,4.987295684999874,0.5311941293276328,0.21092445815045707
7.730003642,-2.949863216246892,-0.5410624731352871,3.2443418169479608,5.1233028780204055,0.5025673828798847,0.20533336456382778
7.830003879,-2.7927100498347617,-0.8209395654690614,3.2910148236606105,5.39251618652893,0.4758175647807541,0.19770829700445508
7.92998625,-2.575280440806801,-0.990869326687833,3.2582397242003616,5.5788094801940025,0.46529491287273234,0.19269916156677402
8.02998974,-2.272888124171446,-1.2614704507326702,3.3371814178140937,5.792596501701034,0.42086562007246126,0.19416451255055567
8.130011158,-2.032957759902181,-1.345478261227085,3.213714434659277,5.995081289620205,0.3817203981820001,0.1939857040567983
8.23000246,-1.7471849446772372,-1.4365881017834867,3.2304472822069545,6.307521416649865,0.3638219250082517,0.2046047143268974
8.330049599,-1.3654338496637721,-1.4037841243087865,3.1873400606088094,6.453279883995006,0.3439335100464516,0.2008977286442255
8.429982665,-1.0765764347633575,-1.3752156365685368,3.1371992639418904,6.753742113716889,0.34179038571694914,0.20362845155130657
8.529989587,-0.7835164414533562,-1.2011245742875407,3.108695119476816,6.8790772457829155,0.3707955444396843,0.21049949580551025
8.629987434,-0.6108494030413305,-1.0265830064330974,3.0601819952193154,7.130734257311574,0.4265495800851664,0.2146334865514058
8.729985053,-0.35970691100249674,-0.7826443768039676,3.052409140809519,7.380262356072793,0.54498531629458,0.1428930838863046
8.830002324,-0.2442197786365905,-0.5242603514269626,3.3121625969678985,7.388113829896324,0.6041022555356463,0.04994173158987125
8.929987488,-0.19236965725747618,-0.2083351355874611,3.4899765824907227,7.423303146040598,0.598749667559328,-0.04735497571502986
9.029986608,0.10689514910323944,0.16604826635951536,3.7195680764821164,7.427342122969294,0.4849581762259725,-0.09708102278927548
9.129986936,0.2524647140296017,0.48914519556143304,3.7297373949293564,7.377602543393813,0.3645511264531899,-0.14098869616033596
9.229987897,0.45529776313383197,0.7450322708409883,3.6169942614533284,7.166508866948598,0.2946287584881969,-0.18408695129292768
9.329987693,0.658229570550329,1.0505991116885498,3.5479970601399575,7.03272920131067,0.22615214803707623,-0.2025561503581683
9.429986622,0.9803747958484273,1.1649440391915062,3.423547555164803,6.757921860991388,0.21578423978140499,-0.22052408049310854
9.529990214,1.2569623812964315,1.4430459644293283,3.2876668738536265,6.562401554299731,0.2458993795030165,-0.22201557306866032
9.62998801,1.6018216512483672,1.3914144042670822,3.138261942911125,6.253291311012245,0.3071045184396816,-0.23741556818085102
9.72998799,1.8778806873177674,1.3896535876507452,3.098961093292132,6.04415388148642,0.39002255044410344,-0.2406455735378214
9.829986337,2.194636519859562,1.3509091056608524,3.12921383495323,5.898485584107435,0.4762398566654458,-0.25716187128711965
9.930044787,2.431156225736782,1.180335849557671,3.183428554092726,5.610570736515521,0.4872667190489567,-0.2583325318622054
10.029987121,2.6895564225282422,0.894600002528701,3.228182225465462,5.336871084065199,0.5045882606998228,-0.2620294567507164
10.130098635,2.8342909698118386,0.6867612678671104,3.260587255714497,5.191893778954562,0.5387434108308133,-0.2520553197297009
10.229982327,2.9411572755341666,0.3702882200264681,3.246042128550415,4.862289921037452,0.502909876277915,-0.24383427087347742
10.329985297,2.997453525833529,0.06811630952195859,3.265735554018692,4.65534870271903,0.48025521674187727,-0.2301449756846468
10.429985572,2.875058766323458,-0.31322716428766306,3.294652521539795,4.505454315189437,0.4755683751676269,-0.22291198896174366
10.52998852,2.8480257403091853,-0.5299546923073433,3.2835937748827466,4.183345485349323,0.44473832205903135,-0.22420119375873782
10.629988754,2.6558249625502137,-0.8149283372532422,3.2165241292596023,3.9986803270547524,0.3969923838642751,-0.2258714681319899
10.729985649,2.432135449776008,-1.1437660177773525,3.270128006129871,3.7480980848901457,0.39146439190166804,-0.23461204611545344
10.830043373,2.114622866527532,-1.2422934552662488,3.213837599496432,3.5232902989388935,0.34786509011877714,-0.23870310908293724
10.929999065,1.7687655752547633,-1.3778474613038445,3.1705839659880604,3.353960030404313,0.34024544365808035,-0.2483442998285229
11.029986453,1.536236107621254,-1.4293255800688556,3.1313454077026877,3.0634252208993407,0.4021882607027027,-0.26044843890204383
11.129983822,1.1996915333878229,-1.3838087848810996,3.128980962050578,2.8999436074419287,0.42088613623576154,-0.2607766338821586
11.229986682,0.8638604719551333,-1.2477116112526088,3.0551088467217706,2.642432152881344,0.4765911347932515,-0.26482500579073087
11.329984845,0.6135269490661244,-1.1005365193435526,3.086028597886233,2.426831272136385,0.5547810718663003,-0.25514909665999363
11.429985126,0.48642802694598675,-0.8625706159293081,3.1961277397787544,2.0696183580050374,0.5886778379876476,-0.17940835684177667
11.529987834,0.3520251546348163,-0.5081599872455994,3.4848027570958364,2.0170878573620894,0.5893174842350813,-0.08902650849518684
11.630071916,0.13352752495393028,-0.15357178559582396,3.68196965530693,2.0141900340414467,0.5885475338665233,0.008676970065134786
11.730048182,0.010211520833279683,0.11423545268973484,3.7286706496425253,2.0811107700175184,0.44084729884449586,0.05085431854145471
11.830083508,-0.22027120826135352,0.3901010172198551,3.842987156891431,2.1781722194766275,0.34816649942617356,0.09139521339942315
11.930044587,-0.44460149333484233,0.7811025349266296,3.832286419486903,2.3876665354802977,0.2926337341584421,0.12912144977371942
12.030071919,-0.8104951458933649,1.0084600407917472,3.7013762807116564,2.507934009872998,0.22340486191495,0.14769340573445272
12.130037762,-1.0294325504091344,1.2195343958200586,3.6334692289081842,2.7017212113346534,0.2005279598695136,0.16361495805731646
12.230038891,-1.390625373525073,1.363718689989006,3.3761732483791915,2.9357572360543718,0.23003211300773868,0.16515755976516577
12.329998377,-1.7179630471761331,1.4246987327390972,3.2561198746762012,3.127424123257753,0.24283806198518948,0.17545344065222096
12.429983905,-1.9658355328848125,1.386942365544892,3.1375655336850277,3.3704105781461835,0.28810104437792117,0.18437456382074655
12.529988379,-2.3107258454296074,1.349834681813417,3.110395824538679,3.724787621011371,0.3317287808384784,0.20110800482552807
12.630000221,-2.5402022661555326,1.2149734097799554,3.0291502544077105,3.7750157495535315,0.35656707952022487,0.21307599250104545
12.729981838,-2.689094370832897,0.9751588923290193,3.041589603307993,4.036001766644774,0.4061341805287897,0.2195070837863616
12.829982129,-2.8941194455949137,0.7321239736538661,3.049993249700157,4.345775063858614,0.46518734869447864,0.22273573769804506
12.929983243,-3.067878546666053,0.41712886459105514,3.165846189499333,4.422037715285127,0.4847187784446228,0.21291352916691128
13.029989508,-3.1244257905535897,0.12233727288880271,3.182893357237706,4.716061186585442,0.5281475175044689,0.20661340027892636
13.129987852,-3.0640656377960434,-0.19264202965547383,3.2018695020856716,4.92596365308106,0.5287315833818846,0.20328453089099735
13.229983582,-3.0486596820311016,-0.47628333622671126,3.2889844867673976,5.230202083008565,0.5043230053408111,0.1912947897423117
13.329985942,-2.752323981032492,-0.7888109848345632,3.2861126653027033,5.428159010543657,0.5079547616477141,0.17796778713567854
13.429989874,-2.651512207593454,-0.9782568532498359,3.2947303492565503,5.6454730727650455,0.5076835807118273,0.17670445001745327
13.530053081,-2.3114005573521434,-1.1581099558967576,3.237378289938444,5.798661283910124,0.4422556822313519,0.17278230683817694
13.629993004,-2.0613878391215033,-1.3218873527516604,3.3386682722119687,5.97886285990697,0.38901906970226213,0.18330395923324272
13.729985386,-1.72758741935197,-1.4498743885216887,3.2314436550972894,6.255424203338541,0.3598635812356966,0.19103535366898455
13.829984808,-1.3727621884236991,-1.3446626929488215,3.1552521741956325,6.475612113030635,0.3365912324585038,0.19378119796577334
13.929987328,-1.1575535469452505,-1.2667699118846383,3.040488786604869,6.801275170394277,0.3345012350070013,0.19599788923835124
14.029997176,-0.8862061792422387,-1.2032556525607552,3.052323759015692,6.932596668788849,0.36554728484909244,0.19824615716216357
14.129986206,-0.5337246674535003,-0.9630559378637948,3.0562734325160927,7.172417403127157,0.4035305501104953,0.20483255759198485
14.229988602,-0.42092998361883266,-0.7549557627160626,3.0446411267367153,7.382935385566284,0.5267801971379741,0.13874793494503845
14.330031871,-0.2557778042462478,-0.4515150533616758,3.3557815185863547,7.467324938210828,0.5986632657171553,0.03384583868458669
14.429984534,-0.12071726798535157,-0.10740121560878275,3.5752182435392434,7.536402724019718,0.5813197928508093,-0.05204470736401936
14.529998608,0.05136178195545585,0.17487773311772836,3.733291081395042,7.474527556058302,0.46160982536507433,-0.09926090490447453
14.62998574,0.2533547154966293,0.5060824420391952,3.7153670034745354,7.3056164381045345,0.35542518881987395,-0.1432557292166182
14.729985923000001,0.3830764655831212,0.8471278884664958,3.6796864153956546,7.149818247427892,0.2966509392160915,-0.1796897427253882
14.829987674,0.754278012989982,1.1359211439138706,3.6807326123991224,6.9064857561307935,0.2300051750565974,-0.195601915914881
14.929986017000001,0.9479330011042837,1.301091631723908,3.4398969627483527,6.722599556317113,0.2247934766836669,-0.20814708720026823
15.029987099,1.2656080087979829,1.4258190330103715,3.3373701602289234,6.597650204650429,0.26032047745687564,-0.21704036961811413
15.129988785,1.637252921235631,1.4480156522949086,3.2018027062020713,6.287472180383526,0.3105595302247016,-0.23445171623089262
15.230019766,1.9354758454556262,1.4177729955046705,3.141159406743962,6.010175849659061,0.3898328574268969,-0.24719204496129502
15.329986835,2.2439494577306602,1.3600617422912522,3.062423780984852,5.808092636921667,0.4577669527008781,-0.256215882753378
15.429986344,2.433672954881777,1.1671635050625162,3.1195936383255503,5.527275196836055,0.49098893263492255,-0.2528878484833465
15.529989304,2.701757069936059,0.9538958644889838,3.187345589210148,5.305769997962041,0.525972520674185,-0.2468371510060745
