time (sec),x position (m),y position (m),forward velocity (m/s),"heading angle (rad), from x-axis, positive is CCW",throttle (unitless; -1 to 1),steering angle (unitless; -1 to 1)
0.122753708,2.9797350312848523,-0.04012755709304038,0.04482405854366539,-1.5350321368540076,0.75,-0.6689579173414765
0.22278266400000002,3.0201674322635657,-0.02284751005972766,0.05290459299121829,-1.5176683685082504,0.75,-0.1002421553638242
0.322746083,2.942505865932426,-0.03434040455902201,0.2225846906582517,-1.5120179594133654,0.75,-0.14543500455068212
0.422790618,3.0025064500196743,-0.047366191592851825,1.0092248648320372,-1.5478062397833612,0.75,-0.21931266516373651
0.5227471890000001,2.8796600627288,-0.17981713692659002,1.7441270409474907,-1.803758986750074,0.75,-0.2761513955331446
0.622831844,2.824499793523523,-0.4189401390523684,2.397765449180073,-1.9976395236287368,0.75,-0.2809575744334638
0.7227459770000001,2.7258281468330328,-0.6575078338978443,2.7748015269671997,-2.2489244129263657,0.749057740347227,-0.26868066052994183
0.8227470240000001,2.5268007867263957,-0.8006425108020174,3.080125683234058,-2.5064049123016185,0.5984416951673716,-0.2417906188732923
0.9227430480000001,2.269977531131625,-0.9274453913601263,3.1349592779501863,-2.7724397832996903,0.5160950226435082,-0.21660242066915247
1.022747874,1.9495803952802764,-1.0458855060416703,3.2325202272704945,-2.969369332730619,0.4674550333989574,-0.20468842012595653
1.122793033,1.599399945334098,-1.050988735935152,3.112899942139828,-3.2389964235073667,0.40240813970286354,-0.20619452714280478
1.222743381,1.347515365226391,-1.042481679471304,3.0629540269400626,-3.4296521224884033,0.36950555482443664,-0.20288609864647225
1.3227514390000001,1.0499031133673944,-0.8529028798922984,2.947553046739407,-3.660332592114186,0.35604475798170443,-0.2010428768833822
1.422765134,0.7939964250960286,-0.763626191501902,2.898521526209048,-3.8562001484158976,0.35382929711561956,-0.20897166284854435
1.522753991,0.601811223134346,-0.5224578177705075,2.9455911571226014,-4.08393014676162,0.46045927617993493,-0.1611354285448506
1.6227418720000002,0.4566760600250089,-0.3017378931279831,3.083556072729862,-4.238163001434894,0.5254642257036416,-0.08045374802255902
1.722751266,0.3500077788009155,-0.0007538842340134716,3.2867808011311035,-4.321297795582106,0.5463139360763564,0.01962009536316057
1.822891064,0.09694079597657441,0.29599774296827425,3.5026304433316064,-4.264734168466315,0.4559745860268676,0.08291068546916985
1.922740981,-0.006114044667296511,0.5926848268692143,3.613495965441177,-4.227626512720696,0.38030853357170114,0.12925037113395157
2.022751348,-0.1931365887922905,0.9381649923324086,3.5851426999526046,-3.994035270303913,0.34119586419050757,0.1648958308216471
2.122752986,-0.47481411112175387,1.262205111452556,3.5399148594395724,-3.852364455526264,0.29747551598536354,0.18713470095060084
2.222750841,-0.734932848855714,1.4045086418194102,3.4047276640906836,-3.6339395696901184,0.3078862654544811,0.19361598593026033
2.322753711,-1.0998429437527826,1.5491480687291077,3.3660689817622025,-3.3755655336793193,0.3677096109987004,0.19560824730182155
2.422754057,-1.3194859846483256,1.53878040531569,3.3263594891561397,-3.1320098865419017,0.3983675220101951,0.19620997641413468
2.522748267,-1.6280199760186684,1.510024313614478,3.3113442245234337,-2.877987354849457,0.41560227124107246,0.19834486212571661
2.622745809,-2.042589629167745,1.4618372978760201,3.290836892191496,-2.6406041032596455,0.4530768702854878,0.2045086945494923
2.722751959,-2.308704292924684,1.2095449972023173,3.3094774417566546,-2.459639810079382,0.43890059008653215,0.20034437890219786
2.822747238,-2.496365493079627,1.0587339267924936,3.3344977766849326,-2.335550794787038,0.43335939940329404,0.20389450437892537
2.9227456810000003,-2.7525656901153903,0.8146505461270831,3.3207211578803206,-2.043046013671309,0.44731579679419575,0.2102071260894802
3.022747345,-2.9006882876451736,0.5120292233826071,3.3227468179523183,-1.8660912513758523,0.3859545677015872,0.20476255737397922
3.122745715,-2.9570326821017643,0.1712486615180155,3.253923447989753,-1.5573806452957102,0.3474363276541787,0.2047896474824699
3.222746789,-3.0060783683599106,-0.1868244232523645,3.1950331013645004,-1.4581446134976601,0.34213199788729526,0.20470019634251363
3.322762674,-2.9500695855897674,-0.4431080755554166,3.1661696487902558,-1.2072834848284146,0.3125551250230177,0.20795008152874664
3.422745361,-2.8311740613145844,-0.6503370631779637,3.068604691889788,-0.9620562723026528,0.3087759698227743,0.21880053949486722
3.522744997,-2.4947392267217787,-0.957224557596084,3.032386281438975,-0.6569128336037355,0.3375617008998835,0.21611625242993648
3.622753844,-2.3268194028891522,-1.1324882281054334,3.035911266510857,-0.5218100418706648,0.3634680155140539,0.23022050942365466
3.722784711,-2.0525827820772418,-1.2016087608790145,3.0171215851556505,-0.3202490672859857,0.405813504781011,0.2402526723965196
3.822752164,-1.7142278819256018,-1.3517901137888686,3.0398480836322013,-0.005574619076360768,0.4386910801388334,0.23685827414848704
3.922749528,-1.4871145369385097,-1.331832421406244,3.1670123768222203,0.13941323506409836,0.4656011288444462,0.2385898837762856
4.022748591,-1.164572337899968,-1.291217434281938,3.1173067334366893,0.3076664692224338,0.45906989049627167,0.23519319494650487
4.122749585,-0.9052299006583303,-1.0885667601283915,3.176214894717386,0.5761299601713317,0.45753619959013786,0.22662727513952344
4.222743347,-0.6230449902239769,-0.8376445752610335,3.169032659231396,0.8885179468005402,0.4730852800702364,0.21999552370874667
4.322748074,-0.4477376151062072,-0.6366980642985955,3.3915419648341123,1.0312645180227844,0.5358987281266008,0.1279582183595085
4.422748107,-0.23815607306147785,-0.31278347679447394,3.481056669938679,1.1369318934837294,0.5482357426859024,0.02801927873358576
4.522749835,-0.0711064758111287,0.028412252475953262,3.6294224032355866,1.0705117750127324,0.5315290234574661,-0.04473289234355962
4.6227482470000005,0.09453495951187077,0.30961253022310664,3.7205517057627717,0.9192550368780553,0.4542415887816264,-0.0954571912344797
4.722740312,0.2921571525418222,0.574347767647978,3.7453444430879728,0.7852888474479232,0.3856763067332853,-0.11965934074157401
4.822791695,0.496992321699827,0.9147195309973517,3.627614735042148,0.6200238472590578,0.3565835623310867,-0.12789219557737289
4.922745437,0.9188891396969133,1.1169566264173114,3.5745717958137577,0.4790700555487572,0.3506125705970202,-0.13263200478255543
5.022746334,1.1902772927079623,1.2913313538062074,3.499826910002736,0.17088180328312064,0.3270497964257526,-0.13290959388544643
5.122741498,1.475932732811306,1.3408639574495016,3.3807851717148805,0.09132917520104449,0.3057145031423094,-0.14383844684885747
5.2227479070000005,1.9021525912200938,1.3474702137463181,3.2550053488650197,-0.113463958430113,0.29959473881677373,-0.15352391876989394
5.322769981,2.170315875791678,1.3364730678211765,3.1301216492340367,-0.316449125247724,0.29073453119702936,-0.16351439674981036
5.422744664,2.3841991934234055,1.0760330596967909,3.00162573501133,-0.6102218868308356,0.31586563133391976,-0.17549390237408788
5.522742052,2.673570154269407,0.9810257466711867,2.909123685771597,-0.743229611568998,0.3417911723121416,-0.1958603106659612
5.622742344,2.8233180398996085,0.7116927361586809,2.8911951987104767,-1.0749866119092875,0.38355227918368023,-0.20755698348123774
5.722742544,2.9542499464727214,0.456539126454461,2.9051672624718106,-1.1799655358971286,0.44750160867702726,-0.21710167316039336
5.822751677,3.051433367788414,0.14633435517082963,2.9317597481174036,-1.48302053205004,0.48525678645430925,-0.21578193533734522
5.922744364,3.0437643018075677,-0.12289384040900188,2.961064759330197,-1.7316389922192237,0.5010287414213462,-0.20925013292857167
6.022743519,2.9557033727204143,-0.3509140423067518,3.03438426808434,-1.8749530525243139,0.5121137863020463,-0.2064525330504354
6.122745116,2.8259377157210004,-0.680342157273895,3.02359289044488,-2.1866529067878617,0.5260807400234203,-0.20443487228229634
6.222801812,2.6584555229715194,-0.9209731355377874,3.1520273581602223,-2.3985491631101787,0.4983398137323313,-0.19467729929020403
6.322746164,2.399419459740991,-1.0716078206243187,3.0985760149568815,-2.5904742517608033,0.5013012133581674,-0.18725622209899076
6.422750445,2.0424318286294234,-1.2563577394731746,3.1421142880842217,-2.873520950417612,0.48064610814073383,-0.1853489323290606
6.522742326,1.7796102171679913,-1.3043780979519741,3.1721432556280296,-3.1232888465987942,0.4178619893728316,-0.18398265830928345
6.622744009,1.4764381007942498,-1.395937671167237,3.134822601153056,-3.2037658699151152,0.4026113163742598,-0.175243283138724
6.722751004,1.1645280488084204,-1.2988023968517242,3.0764591616235837,-3.4641442549940953,0.36994402467945653,-0.1854506433611521
6.822748284,0.7886864450311468,-1.1257778981299986,2.987522464572059,-3.7919376068369237,0.3486981852783188,-0.19358531753688787
6.922742795,0.6063672092700213,-0.9141029342253096,2.9724991622250667,-4.034238092389503,0.3885569254353527,-0.18911017219324872
7.022744459,0.4665858951129939,-0.6238122294145756,3.0497803593311583,-4.180041585091712,0.4602197954184173,-0.15723777650554097
7.122743281,0.39988414945764966,-0.4449791629641652,3.1085051141738407,-4.376832650111731,0.525896439183784,-0.06708575699725718
7.222747565,0.23933315956864742,-0.1273335490437217,3.3689896181616206,-4.350496158954974,0.5227516133079344,0.027103180719953966
7.322742334,0.09113691176185547,0.23434970089775556,3.522970601939441,-4.2768729199585405,0.4657845557205117,0.09571583550825846
7.422750038,-0.01904239500278926,0.5418544619339489,3.5683274176174917,-4.2121259981933274,0.36462543939018555,0.13559985982154596
7.52274576,-0.3096250139315704,0.8188923093382456,3.5697070191512004,-4.129512528855328,0.3056401481890672,0.17524567824117152
7.62275131,-0.5204473364293517,1.1457956153234665,3.426383548927475,-3.854052839697702,0.2820043677004518,0.19757333897790744
7.72275189,-0.8483041313879774,1.2997577452688192,3.3398766516625744,-3.6083369746576497,0.28555413646710265,0.20224793163080057
7.822746675,-1.024838298512342,1.4601217839070293,3.303829958884343,-3.3393232250890956,0.3400013285979067,0.19989600622633377
7.922746852,-1.4235149229739068,1.5103410685403673,3.2211246943421155,-3.1346925098085565,0.4147673525764021,0.1960607593394646
8.022743724,-1.7368077788399798,1.5000667293930123,3.2539875963335003,-2.938724607083292,0.43950485401223205,0.2030346790889231
8.122752081,-1.9989877732159145,1.4278887461072072,3.1405060238766183,-2.6888682580964716,0.14302455140711498,0.22699453864645816
8.222750943,-2.2618612751257023,1.215735753208178,2.8943402123577355,-2.4776237199305178,0.20488605276515906,0.26517273813544867
8.322747555,-2.488182486102913,1.0088612314731071,2.9870101359011705,-2.284002196449282,0.5229022682906463,0.20584667941677207
8.422748336,-2.7173169628907843,0.8706279300364942,3.1314621081604033,-2.0632174894208446,0.5400890216549763,0.1805802953736928
8.522740202,-2.779831952490055,0.4341504051438112,3.255038551701178,-1.794646975800485,0.46621482430485167,0.18857932473218025
8.622742555,-2.8234065752940585,0.1631901014206818,3.2714718110390124,-1.7061374247178926,0.38906000330940155,0.19811943816211236
8.722743663,-2.7861232421927413,-0.17151716530234687,3.2294154943709263,-1.4584424084886844,0.3199437691117665,0.20581469791354004
8.822747694,-2.742611765188994,-0.4951976018534756,3.1999124242035784,-1.1488219853731065,0.2914990933481364,0.20528385397198617
8.922741021,-2.677559831709743,-0.7433512205127242,3.0511214057777627,-0.9508231529944503,0.2922297837132196,0.20598051641093773
9.022757839,-2.376919617617779,-1.0232368404771428,3.0639383381301117,-0.7921221395113427,0.30812357520393246,0.21066880443745403
9.122746813,-2.1600909733932463,-1.1347979915320496,2.9588200733447287,-0.5027344075131133,0.36200755852195227,0.22874053324568971
9.222793156,-1.8655115578745498,-1.2768101974904467,2.995933935481657,-0.2576309681499968,0.4123573860831307,0.2371432669093661
9.322746663,-1.6335626186702994,-1.3299494010449713,3.0194997325209334,-0.11464658798113384,0.43678356552655423,0.22843486412889222
9.422745534,-1.2827623418857268,-1.284966069906862,3.1255813930128165,0.2508184604616658,0.4541836198979699,0.23291468559851122
9.522745383,-1.0559377308621856,-1.2076693122662872,3.093755607225394,0.4671727018061857,0.4731066712190124,0.2275429180976111
9.622797899,-0.7435185495905424,-1.0297143738940986,3.155710050150948,0.6398092243503996,0.46139905670616377,0.2212419557919701
9.722747169,-0.5524439587138467,-0.8987911416585966,3.2777549845018816,0.8630448861000714,0.49294107826731887,0.19531580983928148
9.822741557,-0.26743946876138774,-0.5359371150243689,3.3189073061208436,1.0820059944142184,0.5369865876213188,0.13044943230001743
9.922752505,-0.21516955293284348,-0.2623452876845021,3.4887572274256975,1.0736437913989412,0.541508856936422,0.026795197655644514
10.022751926,-0.05491673278279226,0.047710074695084204,3.636082569779337,1.0840204762841716,0.5127002512452831,-0.0449188788878995
10.122749696,0.15340406404077328,0.3870835324129114,3.756517335498422,1.033316526437736,0.46229274842695117,-0.10076073109136104
10.222751638,0.3654031544969965,0.7192970921401038,3.6914205720287763,0.8870852474801556,0.380032634102528,-0.1257234135841299
10.322792065,0.6568243084770213,1.005988188109019,3.603667675387512,0.6039260533444096,0.3434667003544135,-0.13175703886649937
10.422786363,0.8993061183050907,1.208716856528786,3.548559401801501,0.4099147181781053,0.344863658077855,-0.13732046869726813
10.522746128,1.1572610397814738,1.301614266621107,3.4070895105843904,0.3550027388460872,0.3151282038001627,-0.13678239719289811
10.622755142,1.6752044802971988,1.393938056303244,3.33379860033158,0.0924066449456597,0.3123305209987446,-0.14103322325483314
10.722752776,1.8746025649929208,1.3992220809666824,3.1479488428292877,-0.08732531115981942,0.3082054399612623,-0.15726621528203558
10.822767295,2.2155527717255104,1.3412186465729132,3.1747123647165076,-0.2728558979312901,0.28601687933989894,-0.1725684122757299
10.92275248,2.4663004376062947,1.2462243728259965,2.9968235887558916,-0.5498589667324115,0.3160460541809959,-0.18247137864226134
11.022822587,2.599857983823861,1.0116330723499694,2.9986083937100574,-0.7582882667211712,0.35858707125773404,-0.1973482905582216
11.122817908,2.883279951200095,0.8280385355502813,2.8778424846874735,-1.0297320486359107,0.402243160231399,-0.2092739393699117
11.222746251,2.9980381767821425,0.46406848254311267,2.9702487343539383,-1.2492289928426579,0.4512448685780001,-0.21303601774767575
11.322745485,3.1414317166765016,0.21542963029120873,3.0293493784032623,-1.47493294161397,0.5085559039808651,-0.21806099019209424
11.422754009,3.0733312885899573,-0.04583049880191757,3.0292598033464833,-1.7385031442252,0.5096725981755973,-0.2133186164912059
11.522747269,3.0176114377210697,-0.3710861126234486,3.0742337293672577,-1.9291629918270348,0.5143423626456292,-0.210499524288274
11.622753031,2.853590821255346,-0.6453352330087301,3.070489883583301,-2.1860020208612196,0.5278316043093049,-0.20604141613200247
11.72274929,2.6378560099984822,-0.8212962352322772,3.1479969194116495,-2.421222242451431,0.5055711829623546,-0.19980429671493397
11.822746205,2.4433356018438466,-1.0567829903466448,3.1525422778896903,-2.6304420237660566,0.49597316421419124,-0.1837816694183031
11.922754643,2.0610522027170854,-1.2417484846041638,3.138632488614117,-2.8163785234433627,0.49935645942028095,-0.18366233871294058
12.022812865,1.8099943616043712,-1.2831015127158694,3.080558360052902,-3.071828346722744,0.43825485864021235,-0.18535073101341273
12.122749702,1.5250090711409823,-1.2661511128488645,3.2698982456405483,-3.3044312440358183,0.38016907562319135,-0.19050976981312287
12.222745843,1.1911609793619369,-1.1997344533671581,3.13687689929805,-3.3994127742720033,0.3645682987510974,-0.185528802658734
12.322752383,0.9356129617807551,-1.012857927530282,3.0350941559160773,-3.701804468876867,0.35864799461157204,-0.1911371449667444
12.422792521,0.6720067262073441,-0.9015024653229875,2.967262567911954,-3.983639769961279,0.35579267722075575,-0.19702317342802317
12.522746381,0.5988414180549829,-0.6171162736727428,2.9636762497930094,-4.2056421967209845,0.43343469319535166,-0.1798591173456761
12.622746905,0.28764402195860633,-0.3324120886780154,3.094693350969074,-4.393337209069043,0.558830170552766,-0.058380140882617226
12.72274442,0.24866469314473066,-0.07717146086120644,3.343697645968555,-4.380868033005974,0.5377259545134498,0.034458184916193825
12.822751863,0.16574257823721114,0.2542368261049897,3.5308614464720325,-4.337656960484828,0.45642162219857424,0.0903781003827293
12.922760563,-0.05211984323050662,0.5381598730305962,3.492310209175448,-4.147083629647114,0.3766110157651419,0.13721741833700957
13.022753945,-0.24660978437667996,0.864280728965362,3.4536680642737947,-4.031717438655862,0.3160811070780277,0.16992537418829964
13.12274876,-0.466128726218872,1.0442384666233726,3.526218075027622,-3.906159071931022,0.28590173101825456,0.2034685066171029
13.222748855,-0.6673545753410103,1.3172339402403155,3.3587163634734245,-3.629614058244313,0.3001938337883298,0.21041958517094345
13.322744382,-1.0630137563085509,1.4680538310335356,3.3655794281259963,-3.3822367794561394,0.3330565450424275,0.20349785163685175
13.422751323,-1.3507606360918594,1.609883920884018,3.163818732650952,-3.17416990880386,0.3949136213727561,0.20064641069594422
13.522747577,-1.6841816163701122,1.5059553878273806,3.251284496019261,-2.9353859863236607,0.4568971396931817,0.19909909392202121
13.622751798,-2.0386891362236583,1.457747859879666,3.1802602987478887,-2.77181079103221,0.45580586363616094,0.2020410951027346
13.72281058,-2.29724171642404,1.3672691030800248,3.2410306378203875,-2.5619789039399965,0.44604892422879283,0.20305839553313915
13.822746588,-2.553241740662478,1.0347735677373648,3.344656246423281,-2.274353039812972,0.44514950248786955,0.2112069901487004
13.922750979,-2.7798284070618764,0.8740969363491565,3.3593302125396414,-2.0739930278685206,0.4141336145596398,0.2056436211117197
14.022749667,-2.8258751395081196,0.5041998596524238,3.32841720456216,-1.8732950991120025,0.384329717663224,0.2095101688881836
14.122750263,-2.932177443245536,0.1060239402158589,3.200189146560836,-1.5629493338502283,0.3677224076526359,0.2008426818316542
14.222748855,-2.890704480956438,-0.1683569107846634,3.2415528834156877,-1.3320205190747165,0.3392072732697392,0.19832573489363284
14.322745107,-2.829887298472413,-0.40492266147678185,3.2131866704960976,-1.1383091591890646,0.32495231932753477,0.20378045489665536
14.422745506,-2.754167265560382,-0.7099725062613369,3.1278061037979783,-0.954815329336027,0.30663331035557645,0.21253893403630483
14.522752901,-2.568931834495153,-1.0261626047709311,2.9837315417078667,-0.745205709572329,0.32532254627218593,0.22325276844126735
14.622750249,-2.3289840196826788,-1.151843729906917,2.9546331957060596,-0.44400800446772076,0.36788855270927195,0.23120943802039512
14.722743628,-1.9601623842745528,-1.1880760370236898,3.0000948909931804,-0.23447021478393548,0.4306867695015535,0.23473469228737914
14.822755847,-1.6959851788043951,-1.282124738791894,3.0446302053263876,-0.051140170355484994,0.4489095726589212,0.23823916546582324
14.922750464,-1.4208370864412097,-1.2473012817995481,3.1151430657605044,0.22562771934159298,0.46146068333038454,0.23677931758927312
15.022749146,-1.0730547391623444,-1.17885447152918,3.0964530964807677,0.37785280703152146,0.46719346850686105,0.22638654806566863
15.122744991,-0.7200387381664449,-1.020940593298468,3.2614627345336378,0.6309467704392543,0.47469173757735705,0.21907792869684103
15.222744539,-0.5773761002880217,-0.8591879365601454,3.232647993341867,0.8127482071165493,0.4836128785325609,0.1937994712819577
15.322747308,-0.3886560203771099,-0.6090297631862788,3.3589423166169374,1.0398003256012407,0.5008599900165928,0.15279474243299526
