time (sec),x position (m),y position (m),forward velocity (m/s),"heading angle (rad), from x-axis, positive is CCW",throttle (unitless; -1 to 1),steering angle (unitless; -1 to 1)
0.128514306,-0.03815495063594684,0.43993199737201477,-0.09373111003085724,1.6619295648443513,0.12002676229218298,0.14323412461067575
0.32851162500000003,-0.0003372238648294088,0.36449066406833536,0.9232415366932057,1.7082873488302386,0.75,0.1981287396762746
0.528505275,-0.1058632517592676,0.7298010994165495,2.5412152480152987,2.096371251106168,0.75,0.28162867147999476
0.7285218050000001,-0.5213130200977992,1.1813579673080348,3.0586406826039516,2.5271899337404404,0.45275652167049907,0.23152363504508428
0.9285303650000001,-1.0315247177599156,1.3162417184682884,3.078323095873742,3.120002279045451,0.4050531344247476,0.2145415236160644
1.128507066,-1.6892228916213639,1.30052768338614,3.077854180689185,3.4801129100468207,0.3961437790845676,0.20988790238942484
1.328503801,-2.3185842451187684,0.9187143587109056,3.089077639743125,3.9444432460105237,0.3698243279764249,0.1983780801527918
1.528495742,-2.5042865216952355,0.30477028636315434,3.1079496882247653,4.4296937559176195,0.33406352024776054,0.21297068349450526
1.72851068,-2.519129075894516,-0.26273669010460626,3.0915054022476243,4.959250628372704,0.3529630523155757,0.22258249856070894
1.9285156200000002,-2.363617356288975,-0.7938581116237241,2.944516462908103,5.441155648987121,0.38755521717318964,0.23534954214348042
2.128511164,-1.781057500632594,-1.118995314661631,2.9266049895942117,5.904000076830629,0.43534713864451857,0.23226628354436846
2.32850814,-1.276059224389161,-1.3265400818407567,3.1418665005537316,6.31916952346237,0.4573720376743429,0.22456091600428932
2.528516733,-0.701888942595826,-1.053564595962493,3.1743848199685303,7.005410904515657,0.42237559436954925,0.19923792021387798
2.728510855,-0.17996864855928668,-0.7424351631207748,3.1961001091293437,7.182736730045238,0.3988400635054977,0.192231884897884
2.92850953,0.043190169757841325,-0.14482376238250377,3.275825895494752,7.612899068995831,0.48941791698330006,0.006964746220969116
3.128522684,0.33539687038940463,0.4266155527996942,3.340385833996372,7.402997024429565,0.40239136180514745,-0.13797088459299545
3.328521625,0.5974114255008831,1.097219413716886,3.4755870937402666,6.911800518747339,0.33704614981507447,-0.1718325700389153
3.5285004090000003,1.2324114249426799,1.390523450819166,3.4120531736819686,6.584801345087938,0.3676257465007144,-0.17414537598395824
3.728500092,2.041302062176054,1.397642700961356,3.2561874150403054,6.090857218818825,0.36710767399678573,-0.175880094953138
3.928564561,2.524569473110093,1.153469116893594,3.156659693226611,5.6836036536415175,0.3670102119402367,-0.19133085621048326
4.1285102,2.943176349539514,0.7330478315531602,3.1879994596716874,5.169740947594834,0.39969482200117146,-0.19800371126493369
4.3285058880000005,3.0758229941818858,-0.006129532103518243,3.1874671346026173,4.620686984802009,0.39217874364351674,-0.19477522149016088
4.528511742,3.0080203427610663,-0.5584826713752007,3.2396480877762484,4.282343816854982,0.43550965770814004,-0.19489419535846966
4.728509798,2.634851205692593,-1.0358285141499324,3.183504676809969,3.691594844698338,0.46627277224801494,-0.19173013507719128
4.928515452,2.043743763825319,-1.3875365628851477,3.2943258993614264,3.3466969086275,0.4112342203228483,-0.18076549388453025
5.128515216,1.3899949279491295,-1.356484576820085,3.297435671616248,2.932591131423334,0.38536390541784155,-0.17007243984328732
5.328509707,0.9686092672375946,-1.1474352826238194,2.8459803312146223,2.4723612290109878,0.2579037414199555,-0.22488873199890974
5.528499051,0.5184381941149627,-0.581613583490296,3.139500929016184,1.9950379644020155,0.48692091565584095,-0.10960048259521364
5.7285283830000004,0.1292682735493516,-0.13544562055194664,3.4871728022115853,1.8037017101255821,0.46285598352262225,0.051592877979892586
5.928515234,-0.07739009574181227,0.627301492036857,3.6678949104845384,2.1301804042505315,0.3145072151476264,0.14561051015311907
6.128504732,-0.4608461573910524,1.179471873721402,3.6360723542969553,2.616807481534795,0.2553270185537812,0.1831907515242044
6.32850642,-1.0822639045613616,1.470979709109031,3.35978572020275,3.118746045862082,0.32032363191757673,0.16448743985679914
6.528498475,-1.8227036181375789,1.4352912057576093,3.3354238281217277,3.5275149036345717,0.3665380435181836,0.17475554974100238
6.728508152,-2.3434013097799644,1.2197733546134246,3.202270418961939,3.8738952636709874,0.36413024600009647,0.1812777117122889
6.9285016630000005,-2.6507561562783417,0.5571569955604303,3.0818995275391945,4.372681194698709,0.3302350286995348,0.1955191054328647
7.128509204,-2.8015676647844674,0.02336142854283819,3.109298355719173,4.81569642061027,0.34622043010730724,0.18897815811729246
7.328505416,-2.7263958091431255,-0.5582029039318482,3.121016501411038,5.1246582994478045,0.39022210031146376,0.21503283049542563
7.528547302,-2.2486475849811947,-1.0257651759071968,3.016580982400201,5.643025071952602,0.42134362377621987,0.1977471371395367
7.728517511,-1.7229155755451062,-1.3074901714587877,3.1672948522027564,6.079266277826663,0.4414592511846856,0.21604018331625294
7.928529026,-1.0882772365654654,-1.1442006020362447,3.3107207254340905,6.587329894579184,0.4292378716483631,0.20525363333584104
8.128510888,-0.5480440894888142,-0.8334642970292384,3.2038325014011066,7.002202190697389,0.3924322716799001,0.18078388590266647
8.328521655,-0.221045623575309,-0.33015677051526254,3.276502114823392,7.455709798198246,0.440760305608665,0.094683160910932
8.528523909,-0.0728099576138947,0.22566416316985338,3.48321679706907,7.455066174162973,0.4591114666618835,-0.09345192929970562
8.728513476,0.19418773084507168,0.8947205352001143,3.455858349526651,7.338807856245837,0.39090388898513545,-0.17448994554272235
8.928524634,0.9228770777126171,1.2855109686512036,3.5959989779564965,6.8296799907033785,0.3252663961005224,-0.20146055046328554
9.128514997,1.4942479621473523,1.7530524452381344,3.290890988369615,6.4907311234991445,0.3476953105173568,-0.2223351497193377
9.328506728,2.1823529691085546,1.55567573341497,3.1136615539256547,5.848080269885977,0.39728536159869493,-0.19559282329992103
9.528497738,2.576193867061819,1.1315119691483508,3.3038194455217433,5.323632682642907,0.4391300750668675,-0.1992722490520126
9.728508146,2.954824032845045,0.589725202451459,3.3468901481243636,4.856518485920778,0.42460008958604967,-0.2077061906053923
9.928510383,3.0237765047900482,-0.05737709079340276,3.244552208650703,4.489948327620573,0.4087594026250652,-0.20014246483009157
10.128516611,2.8114095307195712,-0.5994764600374693,3.2028069039559957,4.044636648120013,0.4434893035167848,-0.1951103340093998
10.328507513,2.317997528194587,-0.9485000921588939,3.331533967145229,3.6291153193861163,0.42596857898992196,-0.18070016339654715
10.528521199,1.7069451039844927,-1.145237405032207,3.27079146467764,3.136853887478055,0.35891450213701903,-0.18131352107396667
10.728511096,0.990751505521171,-0.9636649944250303,3.263907379726521,2.7165300356550515,0.33620389748359464,-0.186904997705168
10.928517643,0.5544386499392993,-0.7752084205114516,3.11565802429196,2.2045297053371784,0.3338800434685189,-0.1841717664687611
11.128507137,0.27856417131122757,-0.15443388779184927,3.1852995812359284,1.8545831953833742,0.4454369047353921,-0.05516190925262793
11.328511071,0.03280429316453863,0.5052374167235105,3.5091118161394372,1.952841188538047,0.4094939501888716,0.11533955824215522
11.528503632,-0.5977633765057265,1.099019539013595,3.460552989854805,2.318935618823587,0.26726469114913,0.1686455383734457
11.72851697,-0.9750466408994487,1.4069015243034262,3.2840112541642332,2.744624880223134,0.26772180043668264,0.19178946309904035
11.928507687,-1.572011275945884,1.6359905603801546,3.161353926914995,3.2903035492580575,0.3642300901663111,0.16749558726186475
12.128503956,-2.21161829192513,1.4416520035080413,3.0843664291386643,3.7762243002611444,0.3955915600357928,0.17683119756493001
12.328513546,-2.5762049369969424,1.0198984566506188,3.1211510553418886,3.9524683610618423,0.3707485537321418,0.18825011468275543
12.528500292,-2.8902076992265933,0.5247448952590366,3.1191762338947897,4.466437922891107,0.363079316040058,0.1988762593763347
12.728510463,-2.881829706239884,-0.11033352697212237,3.0783159611513202,4.9612752581437665,0.36729843532366657,0.20325355523355704
12.928522332,-2.6704352253405608,-0.6710200933810433,3.1617121027538766,5.398501044766708,0.4092325605517646,0.21086351296385686
13.128508695,-1.9877863786930108,-0.9843198505182724,3.1524451116285475,5.838237894650968,0.4637582209208304,0.21259450826714854
13.328533488,-1.3173240680872635,-1.1705476477575518,3.1728793602474945,6.249111625195303,0.42261912811830993,0.20912807445847378
13.528502493,-0.8984379687928348,-0.9795248545950589,3.248089476279692,6.848382582299606,0.4022933738026582,0.19105613868787824
13.72851291,-0.3835817342270282,-0.5329018086108408,3.162240997750843,7.375666316505666,0.39883233403795415,0.16876988008209368
13.928521048,-0.014438023789325904,0.11448409822559051,3.4080134638705055,7.487290717761033,0.4421359547652501,-0.009853153917144843
14.128509938,0.28389736812892225,0.5865689865229144,3.4577441076002104,7.4483137141533975,0.3992885808548612,-0.1376002663579238
14.328512907,0.628590025285057,1.228653049525982,3.3923080336218194,6.883802040201824,0.3422133303924577,-0.16695124032997144
14.528591721,1.226460908033751,1.5447115565326004,3.365831447160716,6.534934919077745,0.35338206611398304,-0.17412771048977885
14.728510059,1.8209256777368483,1.6137599691132134,3.313977493294617,6.031982300881381,0.38171753882047144,-0.17468516552479668
14.928510096,2.489805169637325,1.2065623454363883,3.2492595291820443,5.673866825881809,0.3796682500402521,-0.18587745582066514
15.128525119,2.9897889701961167,0.7656944825712111,3.226052586810113,5.158454371622631,0.38246024074227797,-0.1945459634331464
15.328514051,3.142781575241628,0.29992595255773363,3.103927648793117,4.725167346557893,0.4100193585740574,-0.1967803181737135
15.528496227,2.9188621642529196,-0.3664549016984251,3.365701394805603,4.217094413458797,0.4231452783338802,-0.19797239760821703
15.728510314,2.607668537112156,-0.8735206218867727,3.173007587946949,3.828757913858992,0.4183452602526044,-0.19087974350824866
15.928507206,2.020715084531497,-1.3360474364719697,3.339710459393963,3.38221587850207,0.42279633267147587,-0.18906205224378012
16.128512145,1.4280034833674438,-1.4494432883529373,3.2443536860372455,2.9924229015421573,0.3729228787410716,-0.18304874520263614
16.328512521,0.9146262724444871,-1.02902349341528,3.2402066805930896,2.6519326828511423,0.34204506319522593,-0.18750286954279022
16.528500097,0.40182096097562753,-0.6461013848870921,3.065127296844362,2.072713144082613,0.3654771340144762,-0.19102825900395803
16.728506433,0.06938160673989717,0.08106653889350934,3.400941183975264,1.9609415753419102,0.46773765789390287,0.04865277889279413
16.928515371,-0.14223576214632605,0.6630144446362526,3.586382032065364,2.0339894297121766,0.31467544338879244,0.1386571962277824
17.128511208,-0.5802857507306529,1.142959130368773,3.511911037980431,2.4877664999792484,0.24650426518909066,0.18154782755072818
17.328649777,-1.2938601383251311,1.5641610124080003,3.183747412073628,2.917461635028808,0.2826834961456909,0.18482824404611758
17.528515768,-1.8425349719246154,1.5914199979438208,3.1270517654965553,3.323141977316294,0.35835742259084885,0.18242194861967612
17.728506756,-2.410952173049697,1.2183245278806487,3.0470964093473634,3.9449248350059,0.36411240253074667,0.1977865305982318
17.928523048,-2.8722625225246947,0.635602604507074,3.142576067453563,4.4232898735793835,0.34478829326175114,0.20812160779362235
18.128510944,-3.0134893663426014,0.10901682616181756,3.119759726016124,4.665295125068362,0.3724696410305047,0.2110387670319419
18.328524944,-2.8385098217727514,-0.48231188606410424,3.116152421273551,5.267063649978587,0.39258632203266025,0.20582615183074765
18.528496166,-2.34786537848521,-0.9110721549089127,3.1091970869045458,5.747242787762061,0.443310139249625,0.2152454173119987
18.728511423,-1.878712859907202,-1.1020166237453186,3.2089590751211996,6.190481500946771,0.45632591345185153,0.21551592748927087
18.928522454,-1.2475938304111995,-1.0856706451490787,3.280602076560742,6.7008376653535695,0.41024014486924165,0.20083722346353147
19.12851097,-0.5653110281117137,-0.8361428791264182,3.206489989283468,7.148117920884819,0.37547981203072767,0.1908515411378568
19.328521081,-0.22071420230514677,-0.3112557780038535,3.1910090602137244,7.465694020175961,0.4051164489989709,0.10509872711319947
19.528508842,-0.05458083036359038,0.2770812554391563,3.3579298312690424,7.448034056490192,0.43843801219288375,-0.08994292853393099
19.728528591,0.24486109824388536,1.0000237922308493,3.532111593719622,7.2398575862096335,0.4857624382707256,-0.1554831603746695
19.928506354,0.7416386324101061,1.340325408016696,3.4600557206679277,6.789420698665408,0.32769658139058666,-0.18291915326899452
20.128514298,1.4166467587258802,1.606210205816423,3.4113234289685543,6.323461374328172,0.37375619650354686,-0.17701003746257318
20.328513385,2.167011249566401,1.3504507587512207,3.29158144591279,5.872351022365908,0.40085152219835357,-0.18202551687342902
20.528497007,2.6760976851265057,1.0619562724943041,3.235342868278784,5.363900101603017,0.4000968975630211,-0.19249606679492479
20.728516441,2.897754465770464,0.5787944079800467,3.3102522916828705,4.996432103815636,0.38633308525685406,-0.1930836709325267
20.928509214,3.007901015434444,-0.09030644995792048,3.21090652378354,4.46239633089569,0.41805912128755507,-0.19348154690161143
21.128508316,2.7461714320734654,-0.6538528068303117,3.3287409796984404,4.063449028346872,0.4148183544040444,-0.19218672877496765
21.328516633,2.332863631459324,-1.1789802258913624,3.173686930770819,3.571372276011851,0.4086344724285581,-0.18371117128626002
21.528500667,1.6286900649707736,-1.3430234617208334,3.247182569806777,3.1933387343812965,0.3848930944207604,-0.1842052567100942
21.728501741,1.0588517145047982,-1.1113572442014656,3.1746157687808876,2.698351545389097,0.17928490012420645,-0.22731169469706863
21.928507227,0.6300789127752091,-0.8764555529723382,2.9263153778103947,2.2130453339549834,0.38077312180369677,-0.19440868721690938
22.128508156,0.17762062936624684,-0.3745004129885179,3.259164863286571,1.8376076598680522,0.5298020454351836,-0.031209842200143622
22.328519558,0.008918784069371752,0.30167498821234207,3.621862039087969,2.0317402512642837,0.3813281225765845,0.0937703358361429
22.528500108,-0.3589509669801707,0.9513833133115736,3.5486610681546313,2.204303931092699,0.273092821458956,0.16761376613994244
22.728508419,-0.9579700840435341,1.4200668167791333,3.325548144143446,2.7952647030501416,0.26140356194589176,0.18864039608278052
