time (sec),x position (m),y position (m),forward velocity (m/s),"heading angle (rad), from x-axis, positive is CCW",throttle (unitless; -1 to 1),steering angle (unitless; -1 to 1)
0.132746958,-0.12444017245449251,0.2500432859988766,-0.06099261877322574,1.8186517152359698,0.1408247932482931,0.028233621860533666
0.332643067,-0.13345436077177,0.20967199429631175,-0.040737834292242606,1.7621742615311986,0.75,0.1512676331925159
0.532693221,-0.1769799995815361,0.38182892386052675,1.8638072676887691,1.7626876891274896,0.75,0.2923894978612906
0.73263962,-0.5368439816580632,0.7257344016048094,2.9073535112363853,2.393695740686033,0.6209234672442714,0.2929391335683694
0.9326439460000001,-0.9083678047191489,1.1231979269961472,2.9034425353911697,2.9961168817851056,0.39846453317552777,0.2657325885984457
1.13268601,-1.502308280088345,1.0248862266156968,3.069295076285966,3.4478517095918706,0.40344772567436016,0.24034730319272518
1.332681341,-2.107483126024399,0.8537223457938473,2.9489805218856615,3.834001059517148,0.3855900766066723,0.22871597044898342
1.5326490270000002,-2.4212073820837587,0.32235664956574883,2.95252049934526,4.397528459458941,0.30636104977467726,0.22546571982166594
1.732645604,-2.5103160291392372,-0.38036600175947577,2.8863057526774822,4.798375003105454,0.2832056126587513,0.23485755881762865
1.932643948,-2.325892092315283,-0.8176891497823443,2.63128898777717,5.2380681396343185,0.3156804563646283,0.2510679124175278
2.132713159,-1.9279004070423225,-1.153522874386251,2.723326182164793,5.689635336167872,0.31788696808294625,0.2558044869252255
2.332708063,-1.439114508371943,-1.3191275879842248,2.8125519518757494,6.204458393784486,0.37719233877135316,0.2634618333789207
2.532690498,-1.010246529663402,-1.2192360706223757,2.6990647305596545,6.689740042615053,0.4038006087104244,0.2469931154282987
2.73264161,-0.40568994441498873,-0.8790596691525357,3.077568657760291,7.254763152757717,0.3920319220079134,0.23068404598759795
2.932702009,-0.12816637301153067,-0.36699361103031347,3.0607119013997592,7.473469729590849,0.43138860861020234,0.07223244403951098
3.132715927,0.06879508508288246,0.23367777401732365,3.224716574999547,7.477045357442574,0.36686000023828086,-0.10923405754204185
3.332690826,0.40423570896240746,0.759859850940032,3.192176701097106,7.014676745503421,0.3351504592854548,-0.16086325664697615
3.532691543,0.9127438776754125,0.9710587236862658,3.00888871782616,6.500265696375955,0.35536249983127444,-0.1578196077299535
3.732725756,1.5960986817585385,1.0620548476997256,2.92758592728921,6.114301868661483,0.33734028488136564,-0.16681832502566296
3.9326459060000003,2.1111659453873877,0.8716012977698486,2.846908146351998,5.832661124152646,0.3321145181060846,-0.181536080820626
4.132644151,2.536967691629167,0.5452740712377543,2.7435159922955292,5.178510834509481,0.34467749523432967,-0.1839596960517272
4.332643569,2.6784668646348555,-0.028425904175704,2.6719203077562574,4.858439866824206,0.3491832256364667,-0.19586134215396844
4.532641231,2.6186941627650593,-0.548675813708909,2.8329558861891115,4.450296194801842,0.3678893248756348,-0.20574206735213107
4.732720502,2.2856224554362243,-0.9769971545032227,2.6288484827495853,3.9313438038853152,0.38855490765662865,-0.20268440323079576
4.932737135,1.9524463111015522,-1.2121736777012673,2.7961638576761176,3.4991377201017193,0.3916701816060898,-0.19831274674736452
5.132713091,1.2148595791999344,-1.3216772844021325,2.707171187041092,2.980421475854684,0.4107848048331642,-0.19287043925098593
5.332642572,0.8651240145744616,-1.0684367000368276,2.785310032236746,2.4734476320547683,0.3846831170040378,-0.18300687897834395
5.5326479729999996,0.4441830215480628,-0.6696453875663616,2.8489309402694647,1.9840244863445482,0.3931284372791328,-0.18003771458798196
5.732648575,0.18350985197453107,0.038333452651382965,3.0344804130669614,1.7436248570646822,0.4663111716483962,0.03504814668161622
5.932649452,0.09629882896806068,0.47938011225977784,3.2371951985998915,2.0086449809409035,0.3286342416864928,0.1830754194739148
6.132651824,-0.2074712905245903,1.0438182848428104,3.138587827610757,2.4445921884827118,0.32025894113359293,0.2329041894083912
6.332648105,-0.7552244828576861,1.3871058372702931,3.071181092070125,2.8803819777637587,0.36793044155733023,0.2161975619680682
6.532698466,-1.4150017574514868,1.4064948463186515,3.087285665313102,3.333469001025828,0.3946063180372265,0.2040334117571908
6.7327397730000005,-1.9564995295100358,1.252451024117554,3.039594555895622,3.6804817738347233,0.2519624156877485,0.2505070853226596
6.932709464,-2.432580732047796,0.8326129916050341,2.924759306840973,4.1536204001377435,0.3777088036249224,0.19783890027356393
7.132734227,-2.56069400944456,0.1904334083935277,3.0312682627542507,4.484176006105648,0.30785991055230155,0.21655556566674403
7.332724087,-2.49435606497788,-0.35824589473716645,2.7774998275676785,5.000150912888885,0.2760397914819423,0.23401753178281903
7.5326940570000005,-2.2399332042537847,-0.9034719300565377,2.7923482210403456,5.494954474421729,0.29715850275915534,0.2362817511644858
7.732743631,-1.6452998920958934,-1.0776546957107105,2.8286192903125533,6.0017647709031685,0.3569147172657279,0.2484329791490002
7.932667498,-1.2473249091083782,-1.1148307482102575,2.8014605548799425,6.48758496720099,0.3783040651538646,0.2408060275420982
8.132691403,-0.6951680384397861,-0.8327194039481035,2.9378406968655963,6.868406793766474,0.3817088513147757,0.23622597289535985
8.33272112,-0.3057960371321466,-0.395847542436669,2.7943561022370154,7.29530933334355,0.37171387617051527,0.20750248775768926
8.53270001,-0.06519301495715879,0.09258026673355899,3.033671402717775,7.570163608347722,0.4071251735996983,-0.05679111365702503
8.732697517,0.27102933215242125,0.6617548686575915,3.1217913989849264,7.304585127363232,0.3694838395087605,-0.15157775697646783
8.932642613,0.5877670085073888,1.0467488706651207,3.04507822240902,6.619072175574372,0.37266636901292177,-0.15336551832272347
9.132643243,1.2101475135737174,1.2380629646568473,2.8946381075838876,6.300429050026718,0.3666771833241009,-0.1590264049010489
9.332654013,1.8748118722208624,1.0161838985765121,2.925864327902914,5.948017039211012,0.36876809817007594,-0.1660238145409507
9.532645374,2.2254533416409674,0.8509535512506404,2.9283778920133225,5.43525009214356,0.3494868259106621,-0.17108178595398169
9.732718273,2.7485002954646642,0.3707523589771121,2.780378783375726,5.143143387082069,0.33917705736703946,-0.19175704939242078
9.93269991,2.6072316746450523,-0.13610008810049748,2.7242539769447687,4.507885837186016,0.36160123320622833,-0.1918433407869205
10.132721886,2.3668010079551385,-0.7158141170334122,2.7194453130125926,4.122993395939421,0.3698755862617357,-0.19707275025419616
10.332656188,2.077031710763097,-1.0485408424352276,2.7762806856042013,3.6504298950789673,0.37919492012793693,-0.18904533149168648
10.532709285,1.5269692711243206,-1.2014738057797603,2.778225029877763,3.174308735388583,0.39414939571899854,-0.19245258915547578
10.732647175,0.8849872140716813,-1.0926534360353903,2.8045528244040523,2.6791409054797386,0.380668534440046,-0.18930907328377958
10.93270276,0.5186142773839328,-0.781137323332838,2.841397524212644,2.3136472821910083,0.3765916061716515,-0.18820202446863887
11.132685093,0.3301794397270208,-0.2419968308999882,2.9500106119270595,1.8439584975330106,0.4351500570476193,-0.09982512903955867
11.332652744,0.1693666823627644,0.27643561834687275,3.148603356223752,1.8598151878447189,0.37608949524416085,0.1188427481664812
11.532649226,-0.19955399436576743,0.8244758314531115,3.1757714980381526,2.074775636258628,0.30458101819707595,0.22279483649981963
11.732698047,-0.5297653240112644,1.4183475613002368,2.9536306349425305,2.6210425808026168,0.34744234164154364,0.23834894010772908
11.932689166,-1.151687823605644,1.5224320676634853,2.982266793886719,3.1133224754266338,0.39573565900627966,0.2143241035863909
12.132688673,-1.7593090828040925,1.4360136931742893,3.14833295973609,3.509193793224209,0.39899802950354574,0.20722825844917991
12.332626071,-2.2946783785158686,1.05486334207936,3.1217851551982463,3.9363039766642784,0.34589244011375914,0.21919364570512884
12.532672621,-2.642966258720673,0.6068282668555852,3.0315913147270774,4.423430405754813,0.30321526355807554,0.21604062957222486
12.732726691,-2.5472867112884656,0.049200183958309635,2.936976912214314,4.774492749737079,0.2991697817543442,0.22231229305209899
12.932640371,-2.4936048771388095,-0.5967406447821869,2.9232129352617466,5.366343483715887,0.27679003888284004,0.2371954756163506
13.132735948,-2.0100546718902375,-1.1185142431838642,2.8695475833359114,5.720664176200476,0.3128569482237162,0.24560915979590192
13.332640944,-1.630056768382834,-1.1286319600948123,2.85653225343916,6.270245941841921,0.3767042787051986,0.25301390865711293
13.532710006,-1.0372682480125381,-1.0531913989163524,2.8906906051548007,6.661116430356904,0.38739462796433966,0.24554243231941067
13.732668964,-0.49185488151104284,-0.6371536385085595,2.980330562731706,7.14073834770242,0.37745407031993766,0.23707789701097448
13.932701305,-0.3242509218541125,-0.1793116768782909,3.069299278837962,7.456590645849326,0.40090289120092487,0.08437515033831045
14.132726557,0.03794866941968235,0.3729309685928328,3.116233330063235,7.441835061571902,0.3681535320853478,-0.10842356975207641
14.332748698,0.3732789200370627,0.8003991924240593,3.051823315268743,7.030179731934144,0.3552168159354961,-0.1627460372011661
14.532721444,0.9461385181834829,1.1009583525458881,3.0084794260133534,6.421778097767765,0.3648159867268483,-0.15862997765284484
14.732644931,1.4617395080939966,1.1573442376677996,3.041434354896273,6.138704699143909,0.3589327834865826,-0.16133786120627733
14.932701525,1.969570658211561,0.8668540315718181,2.8978797621326127,5.691735457204478,0.3530908899146441,-0.17713944504372425
15.132640472,2.5564814116871544,0.632766047834992,2.7469771079162726,5.309364391502295,0.34209626496543244,-0.1873421049724873
15.332680852,2.5912537684737167,0.13284879495209673,2.7349661485157504,4.759843632460796,0.3461957200295453,-0.19415509209174373
15.532723902,2.6007490142249954,-0.5504351132938894,2.6266870084492653,4.24759939816427,0.3691742001626918,-0.2073173924453153
15.732700227,2.2937378064567224,-0.9090136796707315,2.6236586772908224,3.873790145669446,0.3919728690480684,-0.19682767500351336
15.932692424,1.8601759339118127,-1.1856185303687685,2.6726063049020286,3.372058287111837,0.3844516716730719,-0.2008010508668839
16.132727596,1.1949315914948053,-1.2003436918961605,2.796258281894148,2.9288872327488233,0.39612716155248184,-0.20098220062127245
16.332724348,0.7030251376963952,-0.9900770638654377,2.648057458332688,2.504151866207802,0.38779091116194514,-0.18930220757179442
16.532692428,0.3667772342065095,-0.6273493372265315,2.775979834344383,2.008910445906743,0.39534416512917525,-0.18179463793621975
16.732698667,0.19872321714032457,-0.041623863118767056,2.9163572739445844,1.8553044367693112,0.43798181292915284,0.02018255089680658
16.932643378,-0.08547989766472078,0.6818177313257178,3.186730629894071,2.024823523273502,0.3282024024942423,0.17644535898240782
17.13272318,-0.3525660336333666,0.8700551248810722,3.0514964466906127,2.3582540894944755,0.298669915185364,0.22453923685520172
17.332648376,-0.8377124768046743,1.4504363608867106,2.9668770140621494,2.942172856397595,0.36270721060256855,0.21702122844085822
17.532731734,-1.4557449286332296,1.4861099544676462,3.13061705618045,3.323713460613236,0.38914298235130396,0.20744233200368642
17.732702626,-2.056484734005758,1.18153230148136,3.094451975588856,3.700963807341189,0.3669774522265059,0.20594424445903928
17.932713549,-2.4768568514858327,0.8133639590963635,3.092088144428746,4.234602221940029,0.32428057127258775,0.20149678931258247
18.132748158,-2.71079155301346,0.16496948659136507,3.0434874432426007,4.7020245926972235,0.2943488566113456,0.21069818435023005
18.332699285,-2.555915583534729,-0.44604415831077704,2.9192131285632823,5.07160197458579,0.30419402547629376,0.2200657430061939
18.532646489,-2.249535871987665,-0.7908087074324512,2.7229992545211585,5.453027517729919,0.2921471609559456,0.2311817598889283
18.732735962,-1.7974609699487933,-1.0559487692676788,2.6797031615514255,6.015465901665951,0.33525249803751206,0.23617466854094182
18.932696847,-1.3718677541240474,-1.0942367650878864,2.8368283298388124,6.538017511481008,0.3826123200178034,0.23863465213249213
19.132679735,-0.6069559912737807,-0.8932417911097699,2.8302444352133964,6.877932715835669,0.365878328572099,0.22649582287108927
19.332649089,-0.3717291346160204,-0.5123221489275103,2.972568532516632,7.4268857764809075,0.3723319836944959,0.18827231483800655
19.532697566,-0.14784440104341437,0.0991935552049309,3.1664366232023187,7.468939933217508,0.398657570955469,-0.052100879107499734
19.732649033,0.23559575792549303,0.6964488273955243,3.1756884220191717,7.1950647574027595,0.35062255148792043,-0.14651427883729556
19.932654247,0.548022147791629,1.1306059645049698,3.082228521924702,6.840650977882435,0.3661958754632712,-0.16358549063307948
20.13264781,1.1738279419722144,1.238925318905443,2.989932981864681,6.341718463928514,0.3721927820077421,-0.16468966455162962
20.332645741,1.848987169666362,1.1743176737871024,2.83316136507225,5.996332673606218,0.35651573097651024,-0.1694980816551728
20.532640836,2.2374779151883186,0.8887007739163939,2.750593334451308,5.575465741024426,0.34858064975785863,-0.1797930492555395
20.732639427,2.499258224917218,0.439991445944946,2.873104189661196,5.02526243145921,0.34619378187261,-0.19533456942232785
20.932703796,2.58086232771759,-0.13800702782857907,2.6886616083705035,4.660219503495571,0.3612992892121455,-0.20008632119941672
21.132702526,2.36891624154196,-0.750099506089192,2.7979797837664977,4.21325447613891,0.3908928200035852,-0.20456540705113266
21.332645404,1.9478055067057818,-1.0280760687375459,2.7196039216656427,3.7260621854642233,0.3853986048251797,-0.20238693045606942
21.532694969,1.4456972835384057,-1.1181231010287793,2.825722508090142,3.2398143717392043,0.39880539799520887,-0.20301208629609252
21.732647818,1.013827300430573,-1.1132484377616836,2.791854775382845,2.727963394383508,0.41450734395828304,-0.20213656545905073
21.93271052,0.5583450001951087,-0.7723081405874519,2.7393661105447227,2.2374396067486035,0.3778178743360531,-0.1988004789119798
22.132745765,0.2851384972112099,-0.32610103884898944,2.8551866898704357,1.9033484577391726,0.4247054748912692,-0.10563133014469778
22.332651524,0.0973874763375013,0.27643846781435144,3.0860490599794206,1.7621780430535217,0.3738273942048514,0.1124060407133685
22.53270222,-0.2039242979675483,0.8272652798645214,3.0898097071726984,2.129496132368953,0.30038997510261534,0.21383362270909445
22.732687653,-0.5633253330733246,1.2111685464554902,2.9801045995311775,2.619311426785474,0.3378281740563965,0.22884784592738416
