time (sec),x position (m),y position (m),forward velocity (m/s),"heading angle (rad), from x-axis, positive is CCW",throttle (unitless; -1 to 1),steering angle (unitless; -1 to 1)
0.1379217,0.024724802860833426,0.7650062079030099,-0.06780006212045502,1.602967136542564,0.18870900819723666,0.2688822605814827
0.337940854,-0.13074820353207747,0.8472416717085313,1.4118717929133549,1.7194084285726536,0.75,0.27368406659698685
0.537915235,-0.24585080552675856,1.2985373632193435,2.719257484814304,2.171236181398456,0.6652094852859244,0.26163959804379666
0.737910897,-0.7140911159485837,1.5114329593649303,3.0107356463818755,2.7151754679349116,0.43791971760871173,0.20577800492015036
0.9379140560000001,-1.3864101544089464,1.6058388908270202,3.0353103616447927,3.135069599218794,0.41307085800071014,0.19606395569111085
1.137912439,-1.938247075664032,1.3321569322435187,3.050972925405584,3.7133718715824413,0.436472618122296,0.20324844329798794
1.337898135,-2.4118580659565696,1.0562715800381324,3.326451601280922,4.131967143865011,0.4813848509991445,0.1944608272206793
1.537911755,-2.4628504407676837,0.4781059393378565,3.303237165901306,4.542613211984743,0.42864172411840196,0.19352654551082252
1.738012193,-2.5097851321566083,-0.16910951231221372,3.2187706695417937,5.013102957485527,0.4246583488444567,0.1975639730786268
1.9379137380000002,-2.2434445984928093,-0.7241771413943293,3.2102566401626036,5.53417836003184,0.39054604789087816,0.2106203812565835
2.137990618,-1.6887745703140584,-1.0844214598591506,3.149400472228843,5.968124220225361,0.4032834130543046,0.20843773941244848
2.337913498,-1.0563313903796105,-1.213249191279923,3.0929822016928097,6.420697256368466,0.41290106719474196,0.20962171697020132
2.537915736,-0.5229413634969667,-0.9759162195385245,3.1532975226044146,6.852446744679398,0.39302608152292606,0.20702516724566294
2.737908265,-0.14941798413326252,-0.4642221243036386,3.275331941234352,7.262551076463495,0.47596008289083064,0.15255594797173794
2.93793549,0.1840583828347244,0.053320057803118874,3.439883053993611,7.59028172095621,0.5092225396532944,-0.044098736446598466
3.137919915,0.39616012461599026,0.8131329273100238,3.6482885632286295,7.263867538313683,0.3899478625165779,-0.14456958627198688
3.337898277,0.7968415827890697,1.3456830852199557,3.564723545399893,6.78476746938598,0.34540363189191203,-0.17656635220884453
3.537992499,1.5748403121802335,1.455744388832306,3.342357579731694,6.470953542987821,0.3205833257674639,-0.18862828592234382
3.737956973,2.278689693229423,1.5144878990532913,3.2526514324884683,6.1104652337014675,0.3765455955808927,-0.2116837636626769
3.937950106,2.8061760777858678,1.1660679382118677,3.393952234120039,5.525480765912092,0.4910375374504226,-0.23104715749597018
4.137986764,3.0868779188429807,0.7781962534273077,3.284681168428415,5.065867263604365,0.5016082725060486,-0.22789112293177405
4.337903613,3.3436269950612028,0.03756672506659549,3.4758918201854603,4.641928816269246,0.505471121088997,-0.20858103741934655
4.537911637,2.906571446355563,-0.690726314777729,3.658960752126961,4.222037612020345,0.4960381284584076,-0.19604898494775796
4.737912722,2.5305265532203647,-1.0816922920044307,3.5588815652891626,3.6756776448185424,0.43486531519124977,-0.1914893019477386
4.937922437,1.948019659243568,-1.4772098820227655,3.4847196204314366,3.2890862199162103,0.4033729743056134,-0.18223566939565508
5.137998506,1.3556674281969858,-1.5107284990622813,3.4945984726519206,2.8287145519022827,0.35036366185801965,-0.18083562040145254
5.337901616,0.5639403301415934,-1.0984267312156988,3.342584865118261,2.4147771983021658,0.3532418018678846,-0.19852516828256006
5.538021808,0.22687689840534786,-0.6538006215652337,3.5356554256460138,1.9754997416005204,0.505820978762545,-0.12277863971901365
5.737913552,-0.036657763450459596,-0.016901489732353257,3.7152851624822487,1.9234786260924033,0.4416355780179752,0.032332952988475536
5.937912861,-0.46920347155015846,0.5510806765944111,3.7486518960293935,2.1305203841090377,0.25432352829558746,0.11716655979008585
6.137916011,-0.9669049648244027,1.119311422687778,3.541260558307715,2.4625712047784827,0.1492910143487434,0.1659215115230397
6.337945349,-1.5464883462212746,1.5308804130643388,3.142341008883166,3.128289998045262,0.2079955146629397,0.17747245618295626
6.53800413,-2.095173687883446,1.4820860238970328,2.9892399049250904,3.3750295407770126,0.3424122256378062,0.18916370324997783
6.737985673,-2.627102790874456,1.0729911031350392,3.1001270825720795,3.8819021654388033,0.4332005260837961,0.21745918324316885
6.937915343,-2.9470163097255466,0.7293044412636669,3.1441458106075624,4.428819875564279,0.49230270396814735,0.2091019143331392
7.137919984,-3.101453073654507,-0.08790886749688055,3.4292071021565507,4.920152780346935,0.45634713494841544,0.2025827558110515
7.337899136,-2.7496045652499603,-0.660423837199718,3.2344103275613403,5.348762542343271,0.44950779962922793,0.20236121527396703
7.53802026,-2.3235649418290807,-1.1022625456174353,3.313814756981666,5.804775151424852,0.4514699060144787,0.19988279204884443
7.737908195,-1.8045926387866948,-1.2800375189319606,3.168004248867691,6.242319458792484,0.41422718782215745,0.1988713192540254
7.937991459,-1.189883672117921,-1.0743602692079817,3.2585676845095946,6.684871505752704,0.4256403299972749,0.19511764058869607
8.137993268,-0.5659238246670649,-0.8212598821385338,3.2676402441001287,7.2276831533988295,0.41985208830513165,0.1744870157388348
8.3379466,-0.31981695759575607,-0.2920667503425089,3.329240941241761,7.533214964265248,0.5134981861520631,0.04180760606286695
8.537911212000001,-0.0032240961877803564,0.44693571385303393,3.655440562961821,7.572116200455175,0.4930696964525273,-0.11224066026845474
8.737904553,0.4556504917020426,1.0563832558763477,3.5663082659637215,7.099229067131451,0.3542977847968349,-0.16901104852467497
8.937908612,0.9865314124637707,1.3086960104425365,3.547012574755936,6.619771546572277,0.3348069325553071,-0.18663064206642707
9.137919911000001,1.656752098921554,1.5165968520388446,3.230941768750045,6.211220147198669,0.36637544551095996,-0.2129227111666496
9.337903275,2.3205890568109244,1.5139083949508394,3.263727913422433,5.723805033770851,0.42692094341818587,-0.2246575341713275
9.537925953,2.797982886534982,0.9947225921096025,3.2970279577702217,5.2869154930932805,0.5164565232057162,-0.22743240158190478
9.737997971,3.016490681501423,0.36515384587303373,3.4128209257363538,4.808965761993996,0.5155109819817262,-0.2219224827988366
9.937912812,2.992584949785751,-0.34268672893374885,3.5004968929073823,4.4064651383646565,0.4931681107358105,-0.2148554310298334
10.137908081,2.603126889032552,-0.8693402324356478,3.44794094246586,3.8566032781752866,0.4841841847683693,-0.2001999361444593
10.337907704,2.1040388071981657,-1.2651598308235392,3.5297732389699066,3.5329935617109864,0.3904322182226314,-0.19400903324281454
10.537916864,1.5299699182615634,-1.4811449924853854,3.4078016707647456,3.0503455409605778,0.33424275751761084,-0.19754586710113753
10.738006447,0.9326642720145666,-1.368739920149604,3.305238391647809,2.7302977452094885,0.3390369996559565,-0.20581249792505682
10.937938834,0.2512927462305362,-0.917466144616541,3.284103804162221,2.2221742284123045,0.4336104242510168,-0.19443561179910876
11.1379353,0.0018355744446950824,-0.3536785808697366,3.2586415259157273,1.808586739279668,0.5868784103888082,-0.037111450520227546
11.337902527,-0.3254411461774303,0.27772049372415525,3.6909509819166937,1.856445284864203,0.37549938553380685,0.10500288715367913
11.538029054,-0.5679495680658296,0.8401640978562263,3.4336477863951433,2.2920591395640635,0.2009500856592257,0.1560865109335654
11.737914311,-1.091784664971834,1.211456544215012,3.217368996535701,2.8080109116816923,0.20145392201235776,0.1707401325212476
11.937920214,-1.7496854385599023,1.4651904133107834,3.029829191960095,3.1889311723873237,0.2988229354432413,0.1839723926170614
12.137915809,-2.323880878355167,1.1843554430586563,2.76839464319062,3.7879862242559383,0.1961945708037796,0.31471524525003236
12.337900819,-2.694153252147576,0.880706238455569,2.9709976325568133,4.300731798077391,0.5817000306449042,0.18106074406022576
12.538010301,-2.934190051742616,0.20249338883789253,3.2284525957921315,4.676414670311624,0.45489575819120026,0.19023411342963764
12.738007693,-2.7110095541653885,-0.5476095741634682,3.517126387083425,5.1554041329328975,0.40426219297613236,0.19016773444193802
12.938031306,-2.469679373329539,-0.9965622278599674,3.204522796964114,5.5706243468723375,0.4138360911491496,0.1877282151558433
13.137898255,-1.8250803594696403,-1.2420939541645943,3.2046635363502434,6.011380375287305,0.41276017976349805,0.20342920129301412
13.337899913,-1.0664290355543071,-1.4343901205741565,3.188179467490318,6.475772540643478,0.40767109072625557,0.2071352335047802
13.537913096,-0.612465966391114,-1.1029883978602777,3.2751348978147954,6.953461509032376,0.4093712751830116,0.18988117019264844
13.738003758,-0.24626499757754594,-0.7228380617775113,3.3048999673843458,7.39988501054913,0.4752767565604989,0.142602439618905
13.937992739,0.105921274453774,-0.18465922455504868,3.5968036855686707,7.5950793371931775,0.5441488965198251,-0.04137606144175975
14.137913214,0.40681022814415796,0.5835045292208478,3.748263767606982,7.341545219336311,0.38138631858529637,-0.14052622932156683
14.337904458,0.9182050556057743,1.3115776583313716,3.5951002970179,6.784684426224931,0.30955394734717256,-0.17068107546154762
14.537909291,1.2826540666384498,1.4992228147427336,3.4950792305554774,6.472262005952316,0.31431556699605234,-0.1997354541159536
14.737908355,2.06573916423657,1.4368862636665647,3.1378879523333842,5.93310554448875,0.3724152483927858,-0.22098390135087614
14.937907278,2.7567194682585914,1.1691141692287643,3.2012297951107476,5.517489840567913,0.46852240576508636,-0.23544153078692476
15.13800514,3.019332399836725,0.7170766634130538,3.23540851440474,5.154299714909269,0.49969157271743736,-0.23616097342030393
15.337906112,3.1596845691383204,-0.11008354784604846,3.385385446788005,4.5642090438959295,0.4973854399923285,-0.22743359805240548
15.537999852,3.1879773301558134,-0.5169522092359079,3.420141786407647,4.202358538401744,0.49571809705755987,-0.2052728933655852
15.737911519,2.5780214240058505,-1.2237828005749047,3.412952619486228,3.768097810291942,0.4564252833589056,-0.1948417495079945
15.937924261,1.9463306232105997,-1.5955571679724092,3.5203303417206686,3.349628693281079,0.38670636701070016,-0.18651291002234133
16.137934795,1.1567243958834388,-1.5366786586705665,3.408107527583509,2.909791137275546,0.35799511977851767,-0.19461426724153894
16.337915491,0.6936891170065861,-1.304441399610588,3.308424908996356,2.435068669494636,0.375599640710787,-0.20529433091289728
16.537912514,0.24984356370267793,-0.6252431987423003,3.350855705645283,2.0086843982918,0.47458229608850167,-0.14759714419541364
16.73791482,-0.03308150063752015,-0.06346046191584284,3.747510720933775,2.0609198284479797,0.48010298170326215,0.03956517655452928
16.938001718,-0.35471744545384176,0.4463136856227781,3.81746253327129,2.2123463059577615,0.2692202895729266,0.10647575160269902
17.137904923,-0.82103954738634,1.1709847174679533,3.5880507494981813,2.376347672861266,0.13540005218522405,0.16861421346220198
17.337901161,-1.4759651689349145,1.3969471258533863,3.2616817196307286,3.004380815985727,0.16972940467808073,0.18659808929634422
17.537994153,-2.0346828838516458,1.4188845591491823,3.0029312743618792,3.468940536338575,0.21439990783919655,0.22839760579478338
17.737909543,-2.574734318733736,1.1023511447369052,2.840137548154593,4.0075908976513155,0.4693305139875753,0.23710789173827537
17.937936677,-2.761023636945271,0.5479960021085327,3.112834003199237,4.403770221428277,0.5395276761307404,0.1901776966667856
18.137994546,-2.9019356778889436,-0.07866419415671352,3.423925121192388,4.86025307423816,0.43774606485521694,0.19488984183106595
18.337905313,-2.5689962520937635,-0.6639219784262951,3.310597778050155,5.3728105786697755,0.40875927275449203,0.20296755540477063
18.537905925,-2.201269704301611,-1.0993196030022068,3.239265556039052,5.840006191249742,0.43827644705988406,0.20952878302095673
18.738061616,-1.4531663818173204,-1.2917964221408453,3.2876604894524672,6.186213581301446,0.40916034822559455,0.21584793253009604
18.937915925,-0.8894705941715664,-1.3086234516916595,3.1221006101284785,6.662169194910816,0.3912087768245,0.20664781480306066
19.137914249,-0.44151958392585355,-1.005470792823657,3.243928174454027,7.11002073620863,0.4329884708444177,0.19330108101733
19.33790279,-0.14559166961130046,-0.27630511570133554,3.336033415056814,7.404860498467351,0.5001002090285109,0.05586807052575807
19.537912503,0.24879516985195224,0.23313300155079578,3.792033691066815,7.525716401236815,0.4544807048084783,-0.09381001601985062
19.737909554,0.6200157021115611,0.9217200799611032,3.7424248637788846,7.033803206648606,0.3396572632879927,-0.15713221944108713
19.937911069000002,1.0904537790881341,1.375185616533149,3.434322205692627,6.564356128588124,0.2972426619814437,-0.1739953850440646
20.137928994,1.8395320482036779,1.3376862138675147,3.3063334193830665,6.173176027624907,0.34570924159634203,-0.1948655559571244
20.337903601,2.3929298397193004,1.384679784768451,3.182454094143729,5.768722996705958,0.4203540548819239,-0.20744916291668006
20.538004543,2.942025180359091,0.7780702997410445,3.213072998673447,5.350437695925325,0.48056958513787656,-0.21913703230588574
20.737932916,3.075785239069778,0.26931189277711076,3.2771610304982026,4.792490786935474,0.501963342978559,-0.21839462365461695
20.937926192,3.1483815459613034,-0.39277813206236517,3.411951913752947,4.433654906729404,0.5157639458042118,-0.19599641689436023
21.137920122,2.758622165496773,-1.0547351965080387,3.5795361442939204,3.8583306917832907,0.4572461346660702,-0.18902148898730045
21.337901622,2.2022440942023858,-1.3835350049898796,3.472752682322961,3.4959094295977606,0.4170719843702786,-0.17150045826841856
21.537918052,1.4727204686594377,-1.4875250619516807,3.554765141751432,3.0723356222733282,0.37268494243738987,-0.17518851969885857
21.737990373,0.8358535931310139,-1.4290761099910632,3.341099508333151,2.670323539527095,0.36232187482560374,-0.1861144008532012
21.937928562,0.31092597868070987,-1.0135391081586684,3.2733798724093415,2.2011122755793635,0.42545342845797846,-0.19428812534094086
22.13791705,0.08960537861202848,-0.32279398760349143,3.634117033902151,1.831931521764442,0.5194584045037607,-0.025829738669961744
22.337878237,-0.21787078168810084,0.3022969446541929,3.7935437770989475,2.044684785806058,0.331643170821398,0.08585324358675811
22.538006043,-0.5711026349483108,0.9614794198742707,3.6370020785797275,2.414810883228078,0.19046740001675355,0.16220747659254733
22.73791107,-1.1020108979363084,1.4349052396866482,3.327086570666638,2.6775146320726386,0.13813398216394368,0.18997146512970192
