time (sec),x position (m),y position (m),forward velocity (m/s),"heading angle (rad), from x-axis, positive is CCW",throttle (unitless; -1 to 1),steering angle (unitless; -1 to 1)
0.12982042700000002,0.7686697556268606,1.600945840130709,0.0013640442404739702,0.6224552570339184,0.15569415344833348,-0.28054139279445894
0.22982502900000001,0.7686317251359546,1.600879951616344,0.0028193503065112617,0.6222036411969121,0.75,-0.18959569170678175
0.32982425400000004,0.7693722435071043,1.6013769828445046,0.06636157337627219,0.6227177225957526,0.75,-0.22444597734001634
0.42983883500000003,0.8071772662731843,1.6238892256903223,0.7664882970757962,0.5800145647722589,0.75,-0.29105412373307876
0.52982063,0.9206802853915039,1.6697046280613568,1.5700659431586166,0.3908335201453851,0.75,-0.351503176615135
0.6298295780000001,1.1336524587421946,1.7076549593130081,2.2772051806452773,0.1381511969766356,0.75,-0.3548912757679794
0.729824526,1.3619518718936054,1.6997221010873145,2.7384693244254636,-0.11532375681662628,0.75,-0.3287922655747776
0.829830649,1.6428865657939844,1.6264350404824686,3.053832755518288,-0.3908709566696605,0.6662595183609545,-0.3083688304203336
0.9298250050000001,1.9417660061482698,1.4596905075600801,3.1453566410794123,-0.6630661913924408,0.5432416627909583,-0.27221173189659953
1.029826892,2.152490237547196,1.263298769395803,3.2298294542441965,-0.8721136860200014,0.5081452692598438,-0.26399233962988605
1.129816259,2.3351572461709633,0.9955081729055568,3.2713029748343985,-1.1084174037620385,0.4830946085427777,-0.25731838547468444
1.22981384,2.451236796232512,0.6906004405342823,3.274550271503001,-1.3491097417609115,0.44212553548730377,-0.2419246744026199
1.3298242789999999,2.4952129980387863,0.36603953353354907,3.2976985322478627,-1.5834911314994267,0.41734803212805693,-0.23897147611820596
1.429820671,2.4630025433070792,0.04135266763897865,3.2677729578963697,-1.8171603556256506,0.40448348961643643,-0.24069137704103472
1.529825433,2.356720550595855,-0.2647721500315973,3.232131176910125,-2.0498024669428694,0.3890067446429057,-0.2281856053114554
1.62982777,2.1836746452828137,-0.5356559927528524,3.2140173510339327,-2.286609125840863,0.3752814632494792,-0.23082981641747793
1.729815752,1.9290453379243053,-0.7768726428689802,3.1866664141168926,-2.5410345465176767,0.3755027089765343,-0.22595359894830613
1.829818198,1.682266830787821,-0.9213766365342988,3.1560171914556125,-2.741169049427829,0.38242637233850446,-0.22528809250078022
1.9298209640000001,1.3814758990462586,-1.019217885889944,3.159275199310069,-2.968126655245663,0.3441597423833579,-0.2255936488678466
2.02982997,1.037667839927448,-1.0448099749190793,3.133451473228611,3.0694065281824727,0.336967659459608,-0.22586104662486645
2.1298294110000002,0.7329489540528848,-0.9941958553209855,3.0960830598156472,2.843926642390167,0.33404176603643726,-0.23176030943930326
2.229829231,0.4786390002352708,-0.8917043161254606,3.0361059525079024,2.639893460019286,0.3219093594949801,-0.2367549836370533
2.329820945,0.20924684339720154,-0.7012888597523517,3.002409716014367,2.382824959670139,0.36176264736686264,-0.23527374984834679
2.429827765,0.029678551893479926,-0.4987180631162815,3.0507362993958003,2.1870746687800016,0.4184546819283815,-0.19678263904359616
2.529827506,-0.1521357833952703,-0.2057597677665736,3.2100420511937813,2.0652806569756383,0.5002892187015396,-0.08202233708892284
2.629814231,-0.3116054728242134,0.08915460866242018,3.432270622192793,2.0728942410763564,0.4746536815205483,0.011935428086087184
2.7298263570000003,-0.4703398303989966,0.3612767180840803,3.553285990438669,2.124699344744878,0.390890897965139,0.06550784787017963
2.829825125,-0.6747822293740197,0.6546430405877727,3.595001431281436,2.231357245290479,0.3255993128705225,0.11059037244882064
2.929821737,-0.9131336450160374,0.9219740969111836,3.553722632586024,2.3822213657395763,0.25025805994732836,0.1417735406713665
3.029818531,-1.1864669889309607,1.1451371042301524,3.491364500089071,2.58417807824524,0.22092150704319274,0.1583892464904843
3.129829421,-1.487468030425477,1.3055544980711677,3.3598917763528995,2.8103586816505755,0.2081536621521172,0.17227639689674884
3.229831209,-1.8029321566146095,1.3920515385815342,3.2031490946597274,3.0589724653992945,0.22295593187030505,0.1747280892126459
3.329826746,-2.1472826284410713,1.394168560617733,3.078485353763273,-2.955238008194453,0.2749122440047748,0.16732548385214793
3.429825663,-2.412773389810741,1.3284327776034015,3.0182852474961934,-2.7663998786301134,0.32850307573645054,0.16908092007737804
3.529832642,-2.7076097047714476,1.1768397906814623,3.0189854947534984,-2.534495909184743,0.35777499386685,0.1761577667153864
3.629823692,-2.917212552193401,1.002010303499822,3.0482085547114752,-2.3340735464387006,0.37358139114191596,0.1818022695929113
3.72982481,-3.1042105033505702,0.7632016643514506,2.992692435555533,-2.102981237807253,0.3920712274761311,0.19269330888257494
3.829821067,-3.2410976566309677,0.45598108974893137,3.0664527212899313,-1.8464006742325567,0.3873288298896139,0.1936275364949587
3.92982742,-3.2939637525537,0.18493077658903515,3.070598324357183,-1.6509428889151363,0.38780637273093915,0.19613648560733488
4.029838248,-3.2828590652983567,-0.15436023096162813,3.070716311376492,-1.3862471328725083,0.4152870883673004,0.2008809494573776
4.129827514,-3.2116162680857108,-0.42478284251473336,3.099267718942203,-1.1788963305023432,0.40758973228816336,0.19826693696558526
4.229823909,-3.0500836810308387,-0.728983203500403,3.146380618895749,-0.9186382115694436,0.44962555849169167,0.2125218192695
4.32981752,-2.839089341375735,-0.9633059316121773,3.170591159959965,-0.6843796084603541,0.48924042169205567,0.20956509457067407
4.429825022,-2.6056344770152196,-1.1295853022788118,3.2133819588546304,-0.48735846387689513,0.48846635081460915,0.20735728511077942
4.529857745,-2.278415375925437,-1.2668533349302689,3.242413996601293,-0.23906699699893774,0.47378128304581574,0.21230668904404035
4.629833169,-1.9564816275181673,-1.3193635866751274,3.27314515532107,-0.010380412633432961,0.47999448424189195,0.20994456645335663
4.729820237,-1.6606614098328105,-1.3045858650890183,3.3041104941651316,0.19187342093737988,0.46430120745714876,0.20246370080246567
4.82981909,-1.3102424707146159,-1.2068826164255773,3.314764847693326,0.4374674305828877,0.4353722503382288,0.19490238036423443
4.929822879,-1.0489213233920842,-1.0652664916975605,3.292089011530967,0.6441177908325453,0.40829835773969075,0.18722151410356605
5.029817884,-0.799498207989919,-0.8524476083792326,3.2777677917589334,0.8662015778510724,0.4075930776152189,0.1848834900096297
5.129818637,-0.6037848962054394,-0.5909552427574116,3.2877380242511403,1.0848904651978044,0.4312591854725848,0.14223079099114352
5.229829172,-0.4638331680903543,-0.29186146772836163,3.327801587041147,1.251782784492754,0.4625070599732713,0.055937423909248864
5.3298197,-0.3565343639118375,0.030837946952331594,3.471521868023562,1.2696158818517163,0.519943089174773,-0.06148639735488963
5.429821437,-0.23967283941882642,0.363685635803951,3.580488588878973,1.190585546807184,0.4535704897408969,-0.1259907998451758
5.529815367,-0.06552981045002457,0.7182724812657594,3.6016523694974545,1.0076808446547068,0.4003064302167006,-0.16652939497647906
5.629831234,0.12323423921991201,0.9793966241530118,3.5795583812426575,0.8205078082560366,0.3737491594328709,-0.1868505110451936
5.729829782,0.37929563484920714,1.2225006436252632,3.512566622313353,0.602988527959643,0.373415838276023,-0.1861541917675384
5.82982144,0.6767744707481065,1.4050018055078328,3.4859529680807304,0.38830906223574485,0.3770760995104741,-0.18314786311344106
5.929819213,1.0025020958920603,1.5160691703108682,3.441600043659552,0.1700703608851819,0.3875964547073458,-0.1861932943389521
6.029823381,1.3408711276300802,1.5517246223763301,3.3979260779173766,-0.04741405582125639,0.403099540332532,-0.1867877274266387
6.129820696,1.6753635482829976,1.5129243665799343,3.371571257451137,-0.26331313345850416,0.39509103130655565,-0.18841450822190292
6.229825405,2.0205089782809758,1.387361761722984,3.3392099630693792,-0.5049103411349781,0.39689663912024814,-0.18754566450808907
6.329828476,2.2733457390109937,1.2250216369475335,3.3445726661902695,-0.6958561176340571,0.4243185831568777,-0.19109035010337688
6.429832595,2.5111997173600766,0.9912719270048714,3.3525554293940734,-0.9076351489397453,0.4088772405491341,-0.19482145865414643
6.529883934,2.6952409273714877,0.7130855675593494,3.3178460277616395,-1.1193349351200739,0.4145154212243384,-0.1962079910351297
6.629825938,2.8162491674670997,0.40248151514032715,3.3317815191269595,-1.342017558703845,0.40753445018896844,-0.1909034256993736
6.729821997,2.867231478358855,0.07485185865038918,3.3196396171349205,-1.5641907246325284,0.3958926348249147,-0.20000134213554946
6.829826251,2.83888680533889,-0.2872662184251776,3.315864669060102,-1.8051354804210609,0.39139582725063315,-0.18986942108089747
6.929834541,2.7527311436404496,-0.5711468652410083,3.299656104362699,-2.0016781709262434,0.41785640694513543,-0.19499959810809991
7.029826503,2.593395030917659,-0.8582680198942446,3.2852618651356593,-2.2214444234502837,0.4038308992634455,-0.20021995555951683
7.129820714,2.375034956042776,-1.1019198490495676,3.258436249337597,-2.438904263437026,0.4037909456973801,-0.20057877649903327
7.229830411,2.109567629084738,-1.2933062485985691,3.2905156749600515,-2.6566561768281005,0.42918618202796815,-0.20157011250251303
7.329817101,1.8091490743655723,-1.424988216212237,3.2785615388922915,-2.8685340290151498,0.4053937781070806,-0.19772075947293125
7.429816337,1.4557110663771924,-1.490845259984651,3.2505596887311703,-3.111521545269692,0.3742551458627056,-0.2037761449653755
7.529847153,1.1632901677403369,-1.4810172130920345,3.25384275433956,2.9772064907229367,0.3834335954172785,-0.20369608819502838
7.629818981,0.850180831759374,-1.4034487126199173,3.219405622418022,2.757007041812672,0.35971147207907317,-0.20642780813509068
7.729820594,0.5642064563869272,-1.2597816606757803,3.183180541614733,2.5292007130453884,0.35050429490332213,-0.20674745068180367
7.829804033,0.3001369421293022,-1.0333499848853873,3.164742883574164,2.2779618992490667,0.3883294066100804,-0.20674662320227544
7.929824966,0.12526341279185654,-0.8041802917404675,3.239582292404926,2.118030695667663,0.45573991486238774,-0.142564286507127
8.029824875,-0.03326353322262607,-0.5130867745725338,3.39873039524235,1.9980592384778695,0.48956527410994066,-0.06298332443405374
8.129820158,-0.18023671772099487,-0.1945430069065242,3.58631983082246,2.001937041733321,0.4567044520643072,0.03076067623226357
8.229828177,-0.342916847882766,0.1322386688099033,3.699464398747588,2.0657556464553286,0.3999512362493152,0.08507217689528489
8.329882145,-0.5595003447928154,0.47945749614946886,3.7360839030569295,2.201378408723038,0.30134659881538806,0.1227885725149148
8.429825357,-0.772326314727272,0.7363856441496202,3.687238241505179,2.362818675596332,0.22971808392452683,0.14705872445864912
8.529811803,-1.0745057850382036,0.9936300625308032,3.5487203725833405,2.6069393059684876,0.21026536262431797,0.16586550612550074
8.629825697,-1.3799912798913037,1.1553261189023243,3.3944457782974933,2.8443720461237763,0.20239506595592174,0.15974519737001636
8.72982154,-1.6670214836800659,1.2353712200601767,3.2586278030653006,3.0527265444553753,0.23896037273155424,0.15995243410522708
8.829820393,-1.9849539507503633,1.2492731401110104,3.1447557167659355,-3.0042110945250524,0.29885919360137636,0.1669926795535656
8.929811915,-2.288826451780257,1.1881587871274355,3.0916322953960975,-2.7790860141570604,0.3112914411372358,0.16810933609279172
9.029831984,-2.5651312838337965,1.0602830043957632,3.0466032857837275,-2.565989737354602,0.3321404235264122,0.17006150327811587
9.129821442,-2.8048629267095033,0.8737188052514908,3.026648208113043,-2.3470661989495682,0.3704620394941848,0.18496728289642092
9.229888002,-2.9973482980868345,0.6376792280672583,3.0726267258251614,-2.1222014230022976,0.3710093100795164,0.19109381942566467
9.329832643,-3.1326236128799043,0.36453936049117763,3.0710120256009756,-1.8961728830900155,0.3534304162813243,0.18799947179284224
9.429830653,-3.2027008390423872,0.06776893233894488,3.0238518110897457,-1.6733438734714208,0.3805431172752649,0.19876825497472175
9.529865392,-3.1997044259775795,-0.2692788009311697,3.106943809677279,-1.4083746887738509,0.3847638394620568,0.20598010706572403
9.629824896,-3.1336593999106803,-0.5392748677274768,3.1170137131802402,-1.1945071304824284,0.3941096299905613,0.21005457551184445
9.729822233,-2.9983100382595818,-0.8152745219080019,3.115457613341039,-0.9670769087378049,0.43621787149784724,0.21093079443007448
9.829826783,-2.7997163194243404,-1.054733494943849,3.151079681966028,-0.740505634599072,0.4682690436567289,0.22174921301186917
9.929827591,-2.548121820920231,-1.246085811788253,3.1851491320150638,-0.5148996955630052,0.46923918499494915,0.22284990758420734
10.029821466,-2.194424062057653,-1.397187936420049,3.2427975399853515,-0.228091900167113,0.46927004828920255,0.22485592657124026
10.129823672,-1.9386334069030158,-1.4416953754433441,3.251429217635047,-0.0390127783840926,0.48547907921210254,0.21054044265468574
10.229822307,-1.611489846772548,-1.4301541585994928,3.292941985931428,0.18369509927847472,0.46242996833157485,0.2073941457119953
10.329822925,-1.2919074778924238,-1.345792935715532,3.3160085591894615,0.4075992201173419,0.44910524562742693,0.1998558707194903
10.429816251,-0.9714201516740388,-1.1731288195809002,3.309579147834695,0.6680994489064396,0.44549428491217835,0.19903271954001023
10.529830464,-0.7481397457087292,-0.9785761797474682,3.288159676384432,0.8670635452140786,0.40039841702760576,0.18130816209477768
10.629824122,-0.5506459483148073,-0.7167257763835428,3.295839243661784,1.0804716881428331,0.44020700173537436,0.14468214421545278
10.729830813,-0.4046884940925882,-0.41796395491475397,3.373467556531491,1.2227192323778302,0.49249857380276335,0.06518329886167386
10.829875548,-0.29151898905915785,-0.09326848286768154,3.503703072861222,1.2592524874620898,0.4952849725964164,-0.044168465418170946
10.929825126,-0.17342604823719784,0.24398501621765645,3.6203088075104786,1.2017274916334082,0.445392090282703,-0.11927107947610248
11.029823059,-0.022412487134789046,0.573696819121866,3.6332981101988655,1.044548345490123,0.3855775473349947,-0.16313676390930376
11.129812278,0.20188068130076933,0.9007118345113481,3.592078304416584,0.8158344013997241,0.3613983578644693,-0.1839606961229007
11.229820697,0.4299561815112577,1.1239108642189315,3.5306354419820387,0.619710923817416,0.3544668454318062,-0.1862477352653814
11.329836047,0.7541616624037412,1.329769247230092,3.484331441292468,0.3809792609442865,0.36936231674800934,-0.17581611012204015
11.429819701,1.0449775317981758,1.4342775403927475,3.413582920140467,0.1884874155460449,0.3869776511300117,-0.1810237547965016
11.529818147,1.382181519202896,1.479275823038105,3.3982445277172153,-0.018027441364169124,0.3816504454320564,-0.18810194828468074
11.62981356,1.7177904360299854,1.451080651293549,3.3592120619366175,-0.23325387367335926,0.3803674333667191,-0.19606032572510587
11.729822057,2.0362980297939393,1.3506903466052498,3.337573691534825,-0.45488718281201823,0.4002136783390255,-0.20091972560523547
11.829825641,2.321639927687978,1.1829041368210176,3.2989642909640193,-0.6830330081183136,0.3917793944128474,-0.19493179202469232
11.929827286,2.5611716210454207,0.9565087809947274,3.2992355220408447,-0.9046725187220606,0.4024825131466154,-0.1885857360780961
12.029820828,2.7466967198817747,0.6840073349774807,3.3043907106048236,-1.1123652726416773,0.427601460735461,-0.1998811977690893
12.129819927,2.8698123321604694,0.37832353523745627,3.2919347057629875,-1.3340324624103335,0.4057592531644792,-0.2035330652004793
12.229817673,2.922367272322987,0.054433779090788885,3.2861461250484303,-1.5613844841330566,0.39842174678569936,-0.19613872409755137
12.32982734,2.9021021555618773,-0.2724115537648832,3.2707154263594562,-1.7776666615361898,0.43035788079893517,-0.20441959664709686
12.42982774,2.798596589060651,-0.6165904770726982,3.2779758406188315,-2.0259181563951474,0.41759523471761556,-0.20450111217477698
12.529831222,2.6532474448346823,-0.8713325700286076,3.256446073763054,-2.230214707330009,0.4128155030212637,-0.19923828718132347
12.629824343,2.4354925442399575,-1.1128474422787296,3.2570091909246877,-2.449925546151203,0.4264668330698851,-0.20189098506127565
12.729833046,2.141031480840806,-1.3187795379994947,3.2890979083672947,-2.685395169823287,0.4229189937585874,-0.19835377163786788
12.829835128,1.8686071388972476,-1.4343870164234231,3.2946077802810616,-2.873518593489372,0.39901292349069284,-0.18877794357981273
12.92982695,1.5465319726944167,-1.498586838699675,3.2840584454898103,-3.0903563611662497,0.38500567225377125,-0.19476443183584372
13.029823229,1.2197679727649533,-1.4916739752762793,3.270792427619855,2.9691648771711203,0.3682831274503221,-0.19587686174822444
13.129857854,0.8749614270854404,-1.4026620954202489,3.2157600238739024,2.727040181712724,0.3595928617310499,-0.20440574552328625
13.229815355,0.6180546317761001,-1.270477471481305,3.1887419008997373,2.524332330138694,0.3594220604163833,-0.20988979380650966
13.329812674,0.3525209571798512,-1.0446461440558013,3.1800576086495345,2.274624619300581,0.3719478459043609,-0.21111169111226816
13.429830137,0.17878957058601117,-0.8157323914709536,3.217903921569284,2.1015202924410463,0.462234694421495,-0.14516440911873846
13.529823593,0.020478968114474784,-0.524200392665246,3.3991250154906214,1.9936427690689171,0.4921189111874715,-0.05910426826100022
13.629813467,-0.14358066612513187,-0.173956475847237,3.5971413457275996,2.0060244572813124,0.5085426859736751,0.03344699159132396
13.729869677,-0.29403000844708616,0.11824504489041188,3.6823779816630773,2.071796583915835,0.37971287825796846,0.08359241554332578
13.829818565,-0.4930771171861853,0.431544426793483,3.739229061931993,2.198070835839857,0.3140910673210072,0.11989550485221771
13.929832411,-0.7562664068243202,0.7415742750009762,3.681413444170926,2.380490227694866,0.25940806986602466,0.14578262025987104
14.02981709,-1.0044186640197779,0.9536246312656527,3.602255254659267,2.5553306810202234,0.2133405503429406,0.15417542159186756
14.129823839,-1.3094153159742024,1.130291296136193,3.4768849982978094,2.7878535161332314,0.19792872005318526,0.16969140246407693
14.229819165,-1.6322705739415704,1.2312921479948096,3.3188572582000213,3.03457645175716,0.2364007158609926,0.168460216993161
14.329821189,-1.9547259134819333,1.252021553141787,3.1766301959658048,-3.0131008075388754,0.24386757931666933,0.1606619463054621
14.429822678,-2.2587941199866184,1.195142640415263,3.0347013848295092,-2.777240772618092,0.10801124282664436,0.21454238684404012
14.529816939,-2.518141220682088,1.0716552120097687,2.7688938181862386,-2.5103701222357198,0.06839350412730383,0.3024522134375726
14.629824416,-2.7142025586497613,0.8939869223169183,2.6487863858025005,-2.2332525451631153,0.3987763934211886,0.1856179096174321
14.729820302,-2.862020151329215,0.6645233425480176,2.8491818018432395,-2.0446751710706947,0.5049151078198438,0.15085288672111852
14.829822259,-2.968147430156351,0.39301899862474116,2.981342984437035,-1.8818920710082285,0.47463044539146443,0.15952641803607415
14.929834567,-3.0275749334709507,0.0935073799666856,3.1033307575702653,-1.688235020950256,0.4092820830553838,0.19060599095047207
15.029820218,-3.025658930794509,-0.219652218111807,3.1152123437313324,-1.439718498998673,0.36742729360562654,0.2063622641095545
15.129816695,-2.9583620309275878,-0.5232733269983816,3.0898467529050104,-1.1910295092774899,0.389548650802747,0.205891113099895
15.229835183,-2.806846368552069,-0.826265558397707,3.075025673805494,-0.9328618982286759,0.4060130257345517,0.20632613144513612
15.329821515,-2.6042669569062245,-1.0586126834182275,3.0907101017470655,-0.7073175617591059,0.4220071619005643,0.2026934720327726
15.429819476,-2.3511207468379247,-1.2405242274381585,3.145871690320196,-0.4861339487661019,0.45797017499482123,0.21935953370728067
