time (sec),x position (m),y position (m),forward velocity (m/s),"heading angle (rad), from x-axis, positive is CCW",throttle (unitless; -1 to 1),steering angle (unitless; -1 to 1)
0.13648000300000002,-1.4194104348975012,-1.435956565809544,0.001462193399001756,0.486112204501205,0.65,-0.08424917587716112
0.236478965,-1.3991422168689827,-1.425425464948768,0.44933307561218366,0.48629740783920544,0.65,-0.04337815659297778
0.336493421,-1.3338580917155838,-1.390947286605695,0.9754264024185516,0.4895601126720066,0.65,0.0066803712992501785
0.436487186,-1.221522134348436,-1.3285456900024866,1.4907113719032867,0.5248857933291806,0.65,0.06419404270991244
0.536483621,-1.0680215326970879,-1.2297309703676023,2.0607068325945783,0.6300771252388522,0.65,0.12570123952719556
0.636476844,-0.8913239590866137,-1.0800688570480794,2.5198818941542585,0.803771781808438,0.65,0.15452674522444293
0.73649208,-0.7170160755682731,-0.8731693875179316,2.8473132984419043,0.9976016927570875,0.65,0.15637947422893478
0.836481329,-0.566970008533728,-0.6128270499564265,3.119847683618325,1.1765013060941136,0.6061649995348517,0.10732387123463007
0.9364790810000001,-0.4459876912057081,-0.31153833912295853,3.3682267425366335,1.2388674519604135,0.5730707988900948,0.010928266352409361
1.036481951,-0.3274416824998094,0.015787560280834893,3.5571511720979623,1.2294290118348894,0.5137598795497823,-0.05648563188611596
1.1364855600000001,-0.19659909893582728,0.35401429612538404,3.6751313448846363,1.1904130676876186,0.4632769299795736,-0.11125558113072384
1.236480828,-0.04209029922445132,0.6890954760917971,3.6958553696151397,1.083538851698271,0.35838328592183133,-0.1581332807086021
1.336488433,0.15310280532919684,0.9994260199419437,3.6411540506951545,0.9047394808840887,0.2966214784798845,-0.1885270019736991
1.436480103,0.39417133562366874,1.2637955531315501,3.546919582181842,0.6967256774211308,0.27506544158177654,-0.20197577696284902
1.536492798,0.67452204033057,1.4679867665032558,3.4212508806317254,0.485360528286904,0.26413937498297463,-0.20902844341328328
1.636496277,0.9819867876937247,1.6003514528829366,3.3068222671427594,0.25995584221264606,0.29387203471454204,-0.23211889257670754
1.736488267,1.3016762599552514,1.6560696490403435,3.198629534464168,0.02347848847702349,0.3645585704636403,-0.23542965783201156
1.8364788810000001,1.620266873205625,1.635646509753366,3.1874542855336707,-0.2010305477147095,0.4027550065078786,-0.24199201269630238
1.936479806,1.9242303165590862,1.543277249765583,3.1990401976154907,-0.4300351719946939,0.44702098004564306,-0.24452729058329667
2.036480046,2.2011377812466257,1.3840130281774805,3.2031637230566634,-0.6559987022795815,0.5184438894877477,-0.24983148157833496
2.136488681,2.4381335473263777,1.1644163061696846,3.2407225790008374,-0.8758703321798212,0.494844977665369,-0.2440183254540922
2.236477356,2.6233693677320336,0.8951081349390059,3.3010384199342395,-1.0963774367150723,0.49210981623885064,-0.2467092380142126
2.336578818,2.7479442506083482,0.5903533085766002,3.300885362993312,-1.3259579572725735,0.49878901211008875,-0.24109496487344012
2.436477728,2.802253851337885,0.2658748838514185,3.291865384823962,-1.5577753502635698,0.4505552833864821,-0.24477504992788493
2.536478928,2.7819120882587938,-0.06180816605515881,3.285172052399468,-1.7784861754812584,0.4152174666075764,-0.23060166416368327
2.636481653,2.6898699977150473,-0.3753967723285565,3.2642410677735203,-1.9879629360471205,0.4217035445499447,-0.229301614493736
2.736495051,2.5510236443489993,-0.632346315294615,3.2345510705930023,-2.1829388251185833,0.37040197014718435,-0.2339041365587977
2.83648098,2.31852270794076,-0.8984580807527178,3.2022330278820506,-2.42409146880669,0.34085026376109945,-0.2374563158206043
2.9365608,2.061079808864501,-1.0824433331698402,3.151427748162869,-2.6477956016642956,0.33565660472076114,-0.2407813857605045
3.036500173,1.7741298010652942,-1.2029290540055377,3.0868682442537048,-2.8769427909393848,0.3343396747602059,-0.2536120885567341
3.136479907,1.4721004739360635,-1.2523982817445398,3.0436281532852933,-3.1178620263801586,0.3508067176865187,-0.2616584801492191
3.236494027,1.1707140685754758,-1.2282828149010727,3.0163498853503623,2.9247597282277695,0.4038297188840204,-0.25996933383278664
3.336483636,0.8850870324180914,-1.1338103859198347,3.029072392149695,2.6785735718349786,0.4646127133253252,-0.265164728088682
3.436476064,0.6288196401379746,-0.9730962484816922,3.0647170597628257,2.419656481542344,0.496093712461898,-0.25199494356876206
3.53648232,0.41540258332109825,-0.7528904136214128,3.0875460543895414,2.1633480398962437,0.543754044737146,-0.22538614259262163
3.636477249,0.24986210602962014,-0.48300459259343725,3.258430375741021,1.964862276032596,0.5941504301704819,-0.11115699981748556
3.736492568,0.11748728412107633,-0.1718797833943298,3.502693472482274,1.9485282622933,0.5599752243876167,-0.0018064651879922868
3.836482803,-0.019900191317706435,0.16035536497197947,3.6578182311913228,2.0162027820589854,0.4708198167694096,0.06463943673215669
3.9365383510000003,-0.18871249673588644,0.48894415806719577,3.7197389961889766,2.11482864445457,0.3805254433978018,0.10205145049127086
4.036579073,-0.37215228813815465,0.7690877998184426,3.7127683849373985,2.238924483118028,0.302940787087845,0.1312095692314647
4.136497519,-0.6384663674056742,1.0745962883624653,3.6639280682715705,2.427112169330503,0.2584372017101507,0.1539175132695882
4.236480263,-0.9187450811218557,1.297917039714354,3.5276009083706685,2.643042715498918,0.23239956603158257,0.17270832239320127
4.3364809,-1.2260244094466402,1.4538844071516013,3.395975190441614,2.8603968561726827,0.2307110897275411,0.17833169315277128
4.436479383,-1.5793412366196053,1.5407958237686579,3.27096600940583,3.0980044454411124,0.25762403854832255,0.18748376451738763
4.536479038,-1.8673652099951081,1.5451907162288556,3.1716370428196203,-2.993868633496608,0.29054925516783714,0.19678795573145602
4.636559268,-2.1727477658771206,1.4841837705980632,3.0585619941491777,-2.7823685293908142,0.307229441594617,0.2067936147769647
4.736478881,-2.4522810881532084,1.3578179606420193,3.0751092599844507,-2.574513189585997,0.352339486124124,0.21939726420102126
4.836479936,-2.6966585293296026,1.1742289873499379,3.08236957446492,-2.3535184374369895,0.3999542988907499,0.23822569547146635
4.936479177,-2.8932986414312527,0.9404697784460306,3.0549068404787914,-2.1124972813859126,0.41690599633314734,0.23376485746044945
5.036483877,-3.0308794266820516,0.6675225842035771,3.087844662552938,-1.8649989842247015,0.4650056117144654,0.23187524555871564
5.136498311,-3.1012083482316544,0.3683164847535278,3.0962057747520886,-1.6338274223540297,0.4927473583415067,0.22580390857143753
5.236524599,-3.102633874769061,0.05742920254634405,3.1142747764718393,-1.4006012930162939,0.5045179628820473,0.2190279538594115
5.336487741,-3.034314883527366,-0.24999183900450123,3.1671521119605877,-1.1634861181807914,0.5058528173310909,0.21033370220140063
5.436537467,-2.8982093237028272,-0.5391532154518173,3.2149066027925843,-0.9467429473260279,0.5327554914994973,0.20301657909636975
5.536481303,-2.700866729370194,-0.7953786108237234,3.2547125200153384,-0.7296348353875092,0.4662183752922148,0.19576553270025418
5.636479571,-2.452038199668083,-1.0035243828087665,3.2512449417090763,-0.5283906044997958,0.42904313017355156,0.193696292196744
5.736534795,-2.165930486077138,-1.154234933498472,3.2170002545042014,-0.32214904841940545,0.40924936971695763,0.20164998839342932
5.836479573,-1.8565180993511132,-1.2396776224194237,3.206778480744172,-0.10572291434009727,0.37285456294509595,0.206109684455194
5.936503377,-1.5404555428060966,-1.2548752563020429,3.1374411356181833,0.12230086588121969,0.34247399498056263,0.20931391105035232
6.036477791,-1.2346848778888182,-1.1996748015823617,3.091030397131272,0.35571921573294396,0.34639451611274313,0.21941812058822405
6.136488968,-0.9553032472680808,-1.0784173955176624,3.023861101232848,0.581867561148756,0.3636797562997273,0.21519298913215068
6.236479498,-0.7131526744037352,-0.8988430810004558,3.007949387188344,0.7987756121956272,0.39945623855406126,0.20565028663878954
6.336582038,-0.5150834961592554,-0.6698934657444334,3.0565700412836754,1.0133238474498432,0.46945458419161656,0.17921357690103454
6.436570276,-0.35594851661481736,-0.39836654851044856,3.246507285112997,1.1343003932779179,0.5771436063976907,0.05751716051258986
6.536480165,-0.21297338961252046,-0.09403611109664017,3.4539592094555176,1.1590935845840256,0.5485007743834945,-0.02921599075108749
6.636484682,-0.06259093278627229,0.2279810118107367,3.614668212327744,1.1362409885408256,0.47825324883713194,-0.08502149064142789
6.736562711,0.10569637122822037,0.5528848633125145,3.6812593124452864,1.0608452735186518,0.3967716727389893,-0.139174223995632
6.836479741,0.3074108263210296,0.8581225467653238,3.634094194994136,0.898089469840691,0.295171425203612,-0.1792643301946566
6.936481795,0.5509831719956894,1.1216930559867773,3.55353584340829,0.702890076961738,0.2654141597259345,-0.19439297169118408
7.036479067,0.8318020979037576,1.3265340935029366,3.4140106258494156,0.4870218439971507,0.25302487747047336,-0.21333524377245153
7.136486689,1.1395033390503455,1.4600104342324443,3.298662922940149,0.2685176887433183,0.26726156663640616,-0.22101945414785631
7.236481917,1.4594723251204529,1.5188746353012883,3.2242685229793286,0.04619944433731291,0.31720613991937563,-0.2380748547505212
7.336500152,1.7451307993046372,1.507404285541355,3.138383746919659,-0.16568437469476655,0.3827579612506922,-0.2486040353679779
7.436480285,2.0764653510986646,1.4128276626092282,3.1397306476887885,-0.42812047674432885,0.42458673990018003,-0.2533100987309987
7.5364816359999995,2.3477703413757904,1.2547140110308326,3.1540807519340435,-0.6574120440551218,0.46741422505999736,-0.24755011562344328
7.63648384,2.5574879865996913,1.060344252785084,3.2020558645781785,-0.8592613519050228,0.49866627938315566,-0.24984877705908384
7.736478901,2.7586252641387636,0.7687629450922957,3.2425681397889443,-1.097358325351706,0.4785687068915533,-0.24587891576085144
7.83648002,2.8773511661837508,0.46628078905530845,3.2658695267656084,-1.3321664810618525,0.4655564391396134,-0.24690826011813446
7.936503337,2.9243535804425242,0.17661682712104412,3.278824219108769,-1.5462283337746985,0.4551262655692685,-0.23786106075422014
8.036484262,2.9000116320630442,-0.18216020071737696,3.276559417874696,-1.7864334408778682,0.42423057999293307,-0.23291552087318243
8.136491312,2.8042016194210295,-0.4953151522605131,3.2759766442388583,-1.9903942124206548,0.39981945393480384,-0.22624093414990148
8.236595822,2.644192038603558,-0.7790609207855493,3.25803245301971,-2.2117526375486496,0.38712316356505166,-0.24051418656610565
8.336491748,2.427179952494443,-1.0169877977113688,3.1928898582840164,-2.432283992773632,0.34578251991843045,-0.24150702953820924
8.436494044,2.165972146707196,-1.1991688570408927,3.1786457362532334,-2.6515373579794925,0.33431164783003947,-0.24434261594737708
8.536629696,1.9057530709400239,-1.3082884561768506,3.121990750392746,-2.8636542617034078,0.35091111313286943,-0.2548632731971615
8.636599541,1.5708376593621636,-1.3634759611447824,3.0769619349103947,-3.12501722773482,0.37344116576393477,-0.26178108711359216
8.736577082,1.2662275255119766,-1.3361897269018812,3.0611306183277924,2.923759005959498,0.40942637498628576,-0.25580910657599104
8.836478758,0.9750111214202752,-1.2394816898358891,3.0740264037859757,2.681223463857888,0.5036531029047138,-0.2658951734454694
8.936479131,0.7132559576062414,-1.0765647174765094,3.1085087692076074,2.4204819028555318,0.49882009720439496,-0.25675560771534706
9.036481695,0.4947328537664617,-0.8533007629694619,3.1751535930245995,2.1687059749616004,0.5537704357911969,-0.20291722333545278
9.136581835,0.3222734259674282,-0.5790751411499953,3.3350724295868717,1.9913682242798842,0.5837955835972315,-0.12279318187845738
9.236477701,0.18003325766772096,-0.2633924542515724,3.5763357833645046,1.9807414513518729,0.581587156006966,-0.005593461942769172
9.336541681,0.03279051900658854,0.07293206044850953,3.725242791331222,2.026012307410749,0.46490352918449285,0.049469349297916056
9.436486192,-0.1408151606268769,0.4066564826016081,3.7924312092778725,2.115069678898781,0.39048813646432207,0.09627936929623339
9.536478436,-0.34777666278745006,0.722870834704098,3.7694869209073105,2.241669057969998,0.30523671789223067,0.1319576569126356
9.636481626,-0.5923773137221364,1.004778489638405,3.696705163029259,2.41610332320256,0.23783838045237868,0.15926420596009697
9.736547634,-0.8740332676840522,1.2331929788010283,3.559091660086609,2.6401782286657327,0.23208790766011855,0.17410898387928686
9.836531071,-1.182877493366115,1.392173072407602,3.4154424397425975,2.8690629427032075,0.22655846481105002,0.17661876182587447
9.936479021,-1.5047247831097819,1.4753291722980328,3.2627879952395764,3.0846246031279594,0.25179359434168624,0.17954919055487023
10.036482049,-1.8250901044514602,1.4820836891664861,3.158202259401052,-2.9822288055259216,0.2928257992626094,0.19368317042464295
10.136479573,-2.1294144790409715,1.4164576922376018,3.095273504471069,-2.762117437445918,0.3146523192483551,0.20087920647194143
10.236481356,-2.405749389548343,1.2861420825405572,3.0498874289159086,-2.551313802825459,0.35189925743935563,0.2113411378914488
10.336477498,-2.6440557971120966,1.0982986228385059,3.019595047944826,-2.323059812161726,0.3960554644094532,0.21877141766152605
10.436493937,-2.834417686507948,0.8625161476505114,3.0296123847307217,-2.090971723532939,0.432662252770317,0.23931662567030557
10.536482879,-2.964361458587761,0.5896781613506803,3.025891342740431,-1.8469849791123074,0.43176996004242235,0.22386784786002642
10.636491334,-3.0246643717385084,0.3230621832619646,3.060217625684994,-1.6466079653600543,0.4847444428541755,0.21146473164335242
10.736530334,-3.025777486902424,-0.016620428227706614,3.1125946924903483,-1.4025110751052312,0.5091646881609899,0.21517375848640863
10.836482686,-2.955995795938034,-0.32408492593485316,3.202460685182881,-1.1709900546884848,0.48988023026995925,0.21054945790387153
10.936480591,-2.8203728860171573,-0.6127237509253796,3.2183943731059044,-0.950481554268387,0.48290613871498483,0.2061679802476726
11.036483469,-2.624460418918799,-0.8657721528745416,3.2275278775604455,-0.7334732241965037,0.46748426327912335,0.20220079549511805
11.136571576,-2.3775097727459262,-1.0710161424741387,3.2130740190348814,-0.5259236998487244,0.4386454186275838,0.2043679813122588
11.236573663,-2.0930157327927095,-1.2196728265748544,3.207751774203742,-0.3198741683465814,0.40058509371949425,0.19897840327275124
11.336563581,-1.785122011806229,-1.3024224917593057,3.1864508692383016,-0.09968246502390768,0.3880547324957025,0.2144377340803967
11.436480397,-1.4701363248120687,-1.3156903270855718,3.1217629905498283,0.12358899395379412,0.3521953545618695,0.20921189626378703
11.53648734,-1.1638158065174402,-1.2590054755740627,3.0956393425523294,0.3565106298109829,0.34423342491917525,0.2103114966115332
11.636481645,-0.8843365293613944,-1.1361737572013113,3.0432778844503394,0.5860002990628547,0.3617312734213417,0.21696762592896884
11.736481924,-0.6425041640464156,-0.955035159632403,3.01601654527761,0.8047355926943786,0.394881442743848,0.21958618043704423
11.836492999,-0.44672121929684744,-0.7242044119852893,3.0699706857706013,1.028324639184733,0.47905783575055105,0.17702669433255364
11.936482534,-0.2931393933846037,-0.45021830104758065,3.2322597853211454,1.1731986093356959,0.6052286154509612,0.06333520954091425
12.036482166,-0.15963201312898154,-0.14263429593619006,3.4448845272679782,1.1878945301922217,0.5622070822392095,-0.037469566300864024
12.136487064,-0.018090597681540966,0.1827395815235572,3.6056841607879884,1.1611002139305333,0.47653911949127586,-0.09341482478859331
12.236540179,0.1436713966649879,0.5106067899822095,3.6768616807709598,1.0767285883852136,0.40062365277230166,-0.1437634955804
12.336486734,0.3410858146798753,0.8175523032645867,3.62512699539895,0.9028979385767071,0.2991629306532198,-0.18261610609127352
12.436480673,0.5824261262286299,1.0813458137039043,3.5391456722215637,0.7052407633159432,0.25615334516256794,-0.19641038303210068
12.536481653,0.8323674502200759,1.2684211431436971,3.4258768274769,0.5121696315852303,0.26171203687216554,-0.21280695322317666
12.636480499,1.1360460598170685,1.407778038634505,3.2902687960873567,0.28766304077845434,0.26166223296972857,-0.22144353625373647
12.736479254,1.4843136824617336,1.474206293942556,3.187284088837119,0.04165851596737799,0.3163533192031617,-0.2324671184022634
12.836496747,1.7680738512203764,1.4608356927850619,3.144184258073237,-0.1649967380833622,0.39071888801061216,-0.2434522657902254
12.936482576,2.0981094321323255,1.3650836970435447,3.1403316951787095,-0.41606330190000096,0.42857964164921164,-0.251801457844754
13.036476616,2.3696225090680123,1.208297182411601,3.1549481112916067,-0.6415287856891408,0.45562340304758364,-0.2550446607206954
13.136475286,2.6007627756472607,0.9923562335496109,3.2014197255245818,-0.8670859055946841,0.4784211119880423,-0.2543930057458535
13.236519888,2.781699167479716,0.7279725605054674,3.22443482371575,-1.0887117026800563,0.4791533207917811,-0.2513256541034808
13.336479352,2.9007287497749163,0.4286385519646849,3.2206895962124946,-1.3254960313286053,0.4622296834185535,-0.24928327074528442
13.436480742,2.94989059515924,0.10928136100753476,3.2400452738659427,-1.5559623242796763,0.452373848381199,-0.2413942029206062
13.536569848,2.9262457500536536,-0.21431652989137784,3.265707096249537,-1.7702069860186636,0.43272712936245133,-0.2380676736859517
13.636479002,2.8323641335716614,-0.5248399619692081,3.236517188668322,-1.9896036789907972,0.4028026586220674,-0.24056173607433923
13.736482999,2.691515001308897,-0.7777019645007152,3.20152451408669,-2.201059595982624,0.38261198930724294,-0.23961809011770038
13.836480679,2.4553773178572045,-1.035120288230279,3.160595964131011,-2.453780704223897,0.3788036338399905,-0.23973719626241496
13.936483411,2.1930059766695322,-1.209568183153472,3.166963815626433,-2.6727196192189626,0.3563361704979433,-0.24276520801157378
14.036484646,1.9010215164260984,-1.3209975681719537,3.132313384008365,-2.8931649620737456,0.3567552856112996,-0.24248167863808212
14.136499307,1.5934458129632816,-1.3647272841160352,3.095702698281985,-3.1200998888225056,0.3916829212401273,-0.2592548123031875
14.236478718,1.2849105934374976,-1.3373129958154673,3.1027472680300887,2.936648126423853,0.4117078717900213,-0.25842603907615064
14.336483839,0.9904961709621538,-1.240793350962627,3.110199161686095,2.6906354019378056,0.45329769878788145,-0.2582990356089344
14.436503633,0.725184890203528,-1.078076413542457,3.122325050029771,2.4411236271811063,0.517247652479266,-0.2600800796840345
14.536500599,0.5014527652509579,-0.8552500423302675,3.1964560773717996,2.2087273943086183,0.5448493006658425,-0.20843343924626206
14.636478863,0.3239112980029652,-0.5819834044689163,3.3412021222905652,2.020562975376937,0.5882442109573146,-0.1556812353428047
14.736550225,0.1777450966292515,-0.2679705880189144,3.5548039550384183,1.9837373268132685,0.564616716960216,-0.021605118502364136
14.836486441,0.03495683240757839,0.06819686160389998,3.7062039052095352,2.0193345835083716,0.46896608889213987,0.05851347175425402
14.936491886,-0.1357792023629712,0.4015897218155081,3.766308575076306,2.117626624841292,0.368643510532049,0.10062799375495146
15.036479578,-0.34382352066861493,0.7152505815552396,3.760986570017453,2.2522702937612977,0.32804561586653147,0.13071965094960442
15.136497666,-0.590572066490579,0.9940690954259277,3.696278454101904,2.4259438117866683,0.2521476745949646,0.1527676049035638
15.236530318,-0.8741998390378664,1.2195419221784785,3.564033714250754,2.6482900891813412,0.22616100260010683,0.16898549023349949
15.336497096,-1.1845769138454945,1.3758118867921556,3.410733982526914,2.877085041463334,0.2445842991449312,0.1747951102721573
15.436585491,-1.47504525490076,1.4507450006877198,3.2847073397716477,3.078092224121282,0.24771218148810492,0.17646433490304092
