time (sec),x position (m),y position (m),forward velocity (m/s),"heading angle (rad), from x-axis, positive is CCW",throttle (unitless; -1 to 1),steering angle (unitless; -1 to 1)
0.131497477,0.1867176295075129,0.19553273648202973,0.00030824949309128983,1.5564135337555935,0.1062760303844173,0.0398550629357316
0.231568137,0.18671012074866628,0.19553896960260758,0.0009249250803505503,1.5563721585741443,0.75,-0.13870923789609335
0.33150054300000004,0.18658736696116376,0.19714093692979012,0.10859233589165461,1.5559602053689543,0.75,-0.18851410097031604
0.43150121700000005,0.19117030639963187,0.2528096643654865,0.9105697892139136,1.5142731140836057,0.75,-0.2533144524029073
0.531501985,0.22557319740115597,0.38426347093588503,1.6968000036706063,1.3232188457368712,0.75,-0.32252764637729486
0.631506275,0.3148712112500415,0.56951053405594,2.3340906744906778,1.0728934260128364,0.75,-0.32209242676046534
0.731496699,0.4733983930075373,0.7739085630788979,2.767276570688944,0.8011911189688053,0.7390745229627521,-0.2981549707122249
0.8314965870000001,0.6978868908363005,0.9567311633369697,2.9627145290199604,0.5445354483800774,0.5835650172013261,-0.2689873035566467
0.931554882,0.9680788083281864,1.0864490744223783,3.020420766141055,0.29935573639683477,0.4824557268395444,-0.24567321512214982
1.031499642,1.2632519146747443,1.1482400001950481,3.0149370802750166,0.06785034721766232,0.4347791607433256,-0.22897004387840164
1.13149689,1.5611709075702302,1.1375604710387102,2.967909962580165,-0.17431133990469144,0.39373672253660036,-0.2255464073270236
1.231559138,1.8431618335725015,1.0563424873224745,2.927063050702586,-0.4128880251480979,0.3679904909474143,-0.22361306102346218
1.3314966830000001,2.094568822889696,0.9126449185907481,2.879068795655348,-0.6450710035202577,0.34785650884443164,-0.22492974229356782
1.431494669,2.3012840618899633,0.7168883501664942,2.842466822750638,-0.8784649768118554,0.37003167847959406,-0.23279532256858332
1.531544656,2.453922183610737,0.48009807396884674,2.819129270527635,-1.1157272343569573,0.3709604448240245,-0.23785066596040483
1.6314966960000001,2.545634672832555,0.2155601444311942,2.8125751006140955,-1.3594405556699907,0.3972737828242054,-0.23840191311209413
1.731503295,2.570613221002849,-0.06255118356620055,2.790410896312908,-1.6048660821182295,0.43116173966061994,-0.2406863464420359
1.831499326,2.5289173036041994,-0.33924047859363005,2.8138617168396527,-1.8432293899299252,0.42551649152536736,-0.2387574978309534
1.93149719,2.4222111808526363,-0.5996093159588867,2.8311548152911086,-2.08600179282602,0.43328274131249245,-0.23790899072652286
2.031498697,2.2559934750133745,-0.829354737305144,2.85694753609655,-2.3164647674020444,0.4497737536508275,-0.2304781694368295
2.131548244,2.0393236130510695,-1.0174723904359602,2.8824091680591066,-2.544242016365658,0.4495633809211332,-0.23034195066417057
2.231500371,1.7835947172328823,-1.155550364048892,2.9155178981800165,-2.767967462030256,0.4255415724195766,-0.22214750811834486
2.331504805,1.5032589181942164,-1.2336047459815123,2.9360517668855697,-2.9998876780991908,0.41150849842660797,-0.22785110150626983
2.431499603,1.2124412109141438,-1.2452805112474294,2.916543830557359,3.053986268372314,0.40824202818478644,-0.22529578635668254
2.531505852,0.9290129093381216,-1.1911713845231187,2.8895205428266926,2.814770245738096,0.38099339171045915,-0.2242449146558935
2.631507016,0.6685646275999437,-1.0734153329918914,2.8645130360453197,2.581972960977075,0.39118813715388634,-0.21526201583987972
2.731500769,0.4430909051121853,-0.9003515137487145,2.849891335077016,2.364400705639865,0.39648798105773714,-0.2263669921410659
2.831496301,0.2615811372308864,-0.6804503532063753,2.8947133780127072,2.1466565396800794,0.45062321360530094,-0.18406302094243326
2.931500578,0.11711990580341243,-0.42236500464617915,3.036231371490574,2.0032780043419187,0.4920326920801045,-0.10383585622815272
3.031506264,-0.012688614754552711,-0.13680408021931278,3.219098738580968,1.9713321602854035,0.5051841273886286,0.009948263750502954
3.1315014310000002,-0.15239338796567517,0.16161950281092394,3.346097396099302,2.0115792015406595,0.43108809166608164,0.07753679619189287
3.231499552,-0.31915861867807616,0.4558027045758806,3.382999003450305,2.1257345232840743,0.3542058449778605,0.12622308129117585
3.331495094,-0.5237774165795432,0.7267782368937069,3.3825734782951304,2.298780749971917,0.32331546717827997,0.15991105883345713
3.431496746,-0.7678297904523088,0.9568413405195019,3.329918684019224,2.517985369278305,0.2915850548337051,0.17904624898022928
3.531575902,-1.0469326563468557,1.1280732407682097,3.2380143259645116,2.7580153776101266,0.3050419771900653,0.18384572928075882
3.631498996,-1.3502252994613566,1.2291568526140422,3.166586047092583,2.9860296806971367,0.34638237687668694,0.18027915187483248
3.731508893,-1.6643816008794898,1.2567122197882945,3.171075720852231,-3.0808812122041136,0.3887897774093224,0.18030731659194923
3.831499289,-1.9768398846065565,1.2124905185551809,3.159985210728592,-2.866584587049976,0.3917681959735385,0.17857968544753933
3.931505144,-2.273331326048677,1.1014799968078757,3.1714402964551742,-2.6485960178988806,0.4015130821337925,0.17289875432183996
4.031496016,-2.5398777704456643,0.9300325763343865,3.161203799423887,-2.437762278828199,0.39839331329088656,0.18163689060780427
4.131500047,-2.76363246696186,0.7048667971853019,3.179662875430438,-2.215454385369658,0.37251490054177516,0.18606632269894302
4.231497364,-2.933294868790787,0.43747623627012966,3.1743777117200542,-1.9968012473200119,0.3606625368638305,0.19051118502792708
4.331497491,-3.038541928314521,0.1415600084665117,3.1278254834054513,-1.7801164275337582,0.34711001160162636,0.18727390590833023
4.431557377,-3.0770150310500934,-0.16728132495418466,3.1053565643418177,-1.5465357258480337,0.3306160456527593,0.19107801018094137
4.531548559,-3.0454137959785097,-0.47252140598992487,3.0301182606553394,-1.318450654613202,0.28620454026772835,0.19308881069399553
4.631505731,-2.94858590669779,-0.756906807372128,3.027538359145294,-1.0980953538611027,0.3141589605220679,0.19598722608359206
4.731498229,-2.791624081714449,-1.0076515282031813,2.947621308560159,-0.8733668800772372,0.31023960724471206,0.2067442510752218
4.831503651,-2.5836185547914936,-1.2116098675724427,2.8986578876526363,-0.6399321455232004,0.33114360975365004,0.21801971340995666
4.931503333,-2.3356178114531163,-1.360961022646081,2.909970639748171,-0.4070156032308729,0.3915293997742236,0.23129136111832144
5.031504221,-2.0574791926172717,-1.4465359518711252,2.922813436151565,-0.16902632653324648,0.42257960209408335,0.22952434415819503
5.131503496,-1.761335640629526,-1.4631784312603149,3.0095683049505024,0.06824977851925383,0.4458182774975265,0.22500745607340444
5.23150451,-1.462125709937739,-1.4097169658865887,3.075969315246852,0.2971113672842928,0.4704194848784658,0.2209887553140674
5.331501677,-1.1762722312905558,-1.2877762429033919,3.144333717377718,0.5333207197654033,0.4782949841484495,0.21297988946507973
5.43150142,-0.9198025035459286,-1.1029701518816712,3.1861433148599625,0.7591308423617541,0.45116156605419794,0.2006665130261691
5.531504202,-0.7066205517236549,-0.8642014559530979,3.2174411734288846,0.9752284641799165,0.462764362289579,0.17745322954014478
5.631496846,-0.5408422922028112,-0.5816102004510381,3.3303146731089104,1.1478378429337457,0.4886314331432545,0.11193472435196576
5.731498913,-0.41125876250336585,-0.2684193403027318,3.454057755215457,1.2136481192767175,0.49000522330827456,0.004153548100440909
5.831502256,-0.28382089259724563,0.0606445947401627,3.5825183379271346,1.1765568280410512,0.4654392112410264,-0.07564886600577295
5.931505036,-0.13069104902636006,0.38849072345227326,3.6387873631209247,1.0659482951011388,0.43337790762075756,-0.12953792064338499
6.031519758,0.06318631797550679,0.6951402170493546,3.615916392089456,0.8952544972340862,0.37641487894899833,-0.15715755701637732
6.1315397,0.3015824784169932,0.9608952227274262,3.558370987102685,0.6988540858657092,0.3603743296351816,-0.16574441769766646
6.231542725,0.5790959589807877,1.173472447624993,3.472590510698811,0.502827522511232,0.3708994900615082,-0.16429231139394948
6.33149558,0.8863733415233388,1.324824044031871,3.385965149659396,0.30279774656265324,0.3601833176281051,-0.16676549382286776
6.431502607,1.21018271030741,1.4079564259740331,3.30974023583281,0.10403800692605035,0.34105664396253244,-0.16974593305114666
6.531538598,1.5354699615619638,1.42179939979855,3.2137581130615334,-0.0933271671185187,0.3514049659516943,-0.1648710123371927
6.631497922,1.8484322045118098,1.3698424673606935,3.124229019850473,-0.28848219460173347,0.321097722652324,-0.18127627727153478
6.731497387,2.1357932430969324,1.2567365696656205,3.054700020984058,-0.4981523487218179,0.3165482479801226,-0.19744229450219114
6.831498828,2.3847105052700277,1.0879002009965981,2.980394358717082,-0.7210032619809308,0.3488832287754891,-0.2117871080040959
6.931500382,2.5855698661225293,0.8730408140961455,2.91881860179228,-0.9411609206545574,0.35158117031309594,-0.21604467917335146
7.031504185,2.7311484476873695,0.6232086579278935,2.8964053560525014,-1.1664144486258776,0.4439261169873809,-0.23213890618303162
7.131501546,2.8153067934499463,0.3459721437881716,2.9278987877373925,-1.4081007809024209,0.47969972602767497,-0.23824254206461387
7.231557478,2.8327321957399834,0.055374532989831096,2.9085960403807336,-1.644444466613581,0.4283732137085053,-0.22731283906978997
7.331496513,2.7820218416252436,-0.23043496152066723,2.9049517274207366,-1.8826431897047409,0.42859685182017504,-0.23669544695471803
7.4315572,2.6656691832441126,-0.49709495873683196,2.9371330311980084,-2.1176431063746755,0.47238183053499355,-0.22434673348849077
7.531560251,2.4896985667658065,-0.7318464150498821,2.9475466729387554,-2.3413145774420956,0.4532701938795682,-0.2167608735746918
7.631514727,2.262643814830409,-0.9229282897986832,2.989010101257937,-2.564041541669767,0.4456382775322314,-0.22102031672862688
7.731505338,1.9973268516615816,-1.0620132132134348,2.9988492507141533,-2.786691014072122,0.436967381539359,-0.2173484118627532
7.831499125,1.7087368779165946,-1.1398091473611456,2.987953084319918,-3.0182467121547796,0.410516157193916,-0.21703078354009817
7.931499318,1.4111108980984473,-1.1506984561731335,2.9690064045879154,3.0401910158387015,0.39663365261103173,-0.2105325110464403
8.031496017,1.1224154495912497,-1.094424053427267,2.904744722502178,2.8133644697092626,0.3039719060310068,-0.24129663526448147
8.131501094,0.8678155418118844,-0.9748332931257017,2.7649359307260477,2.540835524806286,0.3001885895789887,-0.31741272976364654
8.23150431,0.6603015702129965,-0.798392088764922,2.728799289012874,2.2843108618894634,0.40907136870331623,-0.2432719217372528
8.331502313,0.500803709056521,-0.573906848316945,2.802567040735415,2.0754422094244807,0.46348311179762575,-0.18226310774049373
8.431501086,0.37351819419757104,-0.311737125678378,3.025375127463139,1.965651828619313,0.5400308076761944,-0.06363080494154665
8.531503297,0.2503780658187266,-0.0225251273319863,3.2290714375061573,1.9589955450814547,0.499013380318953,0.024217045612113342
8.631500766,0.11109665542705946,0.2768977557590821,3.3440639314666973,2.012617487815787,0.4345658676118929,0.08667969154069276
8.731502027,-0.05689236429808749,0.5707152215564911,3.3956775469139395,2.1299389596647793,0.37572935357581555,0.13482738407792946
8.831498624,-0.2615407753319623,0.8415909846296414,3.3808268458725497,2.2937259475656373,0.3238892781439209,0.16358137163950154
8.931548142,-0.5060611862560062,1.0723984331780796,3.3456982746448216,2.506332083815718,0.31849937513446563,0.183913567148453
9.031509807,-0.7866604664313924,1.2469307336892659,3.287660104291429,2.7469588376222793,0.338795037382814,0.1928656362796094
9.131573186,-1.0932537904125599,1.3518869993446352,3.2240791968092597,2.976533376128028,0.3654655515636162,0.18284167119134667
9.231502457,-1.4127340211698993,1.3837641001518848,3.218715739647817,-3.0915447428096763,0.42214538919603267,0.1733651411335993
9.331495067,-1.7323627949441172,1.3439457117540496,3.2308733597161035,-2.888231964135737,0.4304928826915475,0.18289533491899784
9.431497674,-2.0394973197986315,1.2363620800104809,3.2696464815074013,-2.6765287955527204,0.4105724128014129,0.18561702244927505
9.531546159,-2.3177427874769183,1.0665777705143216,3.2461000725958673,-2.447544509592276,0.3929848952254401,0.1866894891682575
9.631494743,-2.551552114272782,0.8427963509287473,3.237699083184461,-2.2217376961286996,0.38486855047720847,0.18412108031259494
9.731498999,-2.7285111479491966,0.5754504132980067,3.197536686297057,-1.9977143472197085,0.3642769244226053,0.18102605500356392
9.831503945,-2.8395987359975803,0.2775224231542608,3.171731458084499,-1.7821910963255339,0.35334371122562763,0.17971126586579828
9.931503206,-2.882992145468249,-0.03310511821868744,3.142511792672067,-1.5736466912921023,0.3393410229240465,0.18163940068706114
10.031504466,-2.858696753369933,-0.3415093644741067,3.0996861718026296,-1.3486586278340003,0.29494004805923574,0.19016553304933867
10.131497833,-2.7701537948306973,-0.631483432624479,2.997314399462956,-1.1196986316362467,0.28868402121619796,0.1946672500294853
10.231502345,-2.6213490212301864,-0.8868681043076498,2.930932002642875,-0.891726925894153,0.30203514159734923,0.20528271519432498
10.331502512,-2.420773753168599,-1.0950946395467958,2.868791529122599,-0.6669445092477857,0.305944317068672,0.2156248200252945
10.43150634,-2.179197611813497,-1.2490346090180295,2.8731710250561036,-0.43132858544124153,0.358509247863849,0.2257751646378681
10.531515759,-1.906620577202468,-1.34064720117026,2.8917356657755,-0.19156151025273443,0.41881326883128245,0.2339895233633936
10.631499598,-1.6162354690059766,-1.3649478115840497,2.9524093731944103,0.04282566964361026,0.434478662041559,0.23061979414465494
10.731507811,-1.321755967599736,-1.319722682690128,3.0168309257456065,0.2838404680891298,0.4634842476964262,0.22315186967106682
10.831503226,-1.0405391179079282,-1.2059451386539846,3.062819853530907,0.5288921642014366,0.48773593781641267,0.21977797598719567
10.93150019,-0.7884861031674315,-1.028668358426321,3.107811215331459,0.7457961941459904,0.4618840864073055,0.20735106871034387
11.031496633,-0.5761398827869382,-0.7968342238778782,3.179722326821678,0.9544119683326835,0.474742031344711,0.17749183236161742
11.131512986,-0.40938815587371286,-0.5210876888843388,3.2714238032808365,1.1409051167842144,0.48517348838231183,0.13494744606990736
11.231506676,-0.28240451626379,-0.21346786348350097,3.3947542049183324,1.2296260645551103,0.4984625607960669,0.011991984280876167
11.33155486,-0.1639203849054549,0.1125894005921912,3.534792944516004,1.2089407128250056,0.4696846568365826,-0.07537434191751215
11.43149578,-0.020334050122664343,0.4381708462154157,3.5840345223585195,1.0786159140879985,0.4358822513550575,-0.13827687635129607
11.531502737,0.16811311046208258,0.7401540290192236,3.540061699243504,0.8861587360418582,0.3816295728413179,-0.16312700002339278
11.631504131,0.4036166674619383,0.9986340968263259,3.465502356277155,0.6786486625771105,0.3649558600348737,-0.1604042355462458
11.731574878,0.6793380922687822,1.2023996339940501,3.4008474628264445,0.47488417263540805,0.3988200198637233,-0.1610345477798002
11.831499047,0.9842809199103972,1.342186130075391,3.329025294801115,0.2764337266179787,0.36916919256520797,-0.15813608406251206
11.931498113,1.3042554363368284,1.4146452260406377,3.2526906498083137,0.08331524114195983,0.3516295073572703,-0.16170907156419115
12.031507927,1.6257781068099781,1.4205623566377532,3.179461435098994,-0.11143060239163068,0.3464753984557184,-0.16745490304214666
12.13150327,1.9341593172675051,1.3625369089659674,3.118364875158661,-0.30944606588820783,0.32553467698308464,-0.18107622888426467
12.231504169,2.216380432200218,1.2436563084928243,3.0415599421698047,-0.5212779988697066,0.32779230655120106,-0.19245179421962574
12.331500562,2.4599296328508573,1.0694511276556873,2.9778765982428834,-0.7473591569186595,0.3498807173198139,-0.20353554599156493
12.431500254,2.6542827841408845,0.849740331241984,2.905400849006935,-0.9707110072525496,0.3534119959397298,-0.21397751712847238
12.531564924,2.793072895463145,0.5955459244697583,2.8987456150902124,-1.198569687388587,0.3850503078158781,-0.22173606950457742
12.631496809,2.8683190684810733,0.318830277842961,2.8619914717284116,-1.4411813533472027,0.4171477369892509,-0.2232857561386229
12.731497919,2.875762781434356,0.03408180989761644,2.8627392226886323,-1.6769041278938681,0.4532161721799427,-0.2232836724716835
12.831498909,2.8159989525299474,-0.24678748193379396,2.899201233992771,-1.9060245801002718,0.4540595040940469,-0.22192299107673175
12.9315054,2.6929075334274573,-0.5105700155163049,2.940262295310616,-2.132450670253468,0.47383760020164517,-0.2085363446479752
13.031501414,2.5113678276506572,-0.7428563528645312,2.9529626010197054,-2.3606209348362506,0.4636918944412794,-0.2166696725057364
13.131500959,2.27988970781964,-0.9300271609955874,2.9872262379524552,-2.5906863117575485,0.43963997434423735,-0.2122921506245711
13.231557929,2.010304210684537,-1.0633637669048377,3.0235868114863784,-2.811547182907518,0.44271749786573134,-0.2063172817575385
13.331507306,1.7186662795626049,-1.134962485281536,2.989205228703426,-3.044930320248015,0.4125299713648468,-0.20752822067058146
13.431500068,1.420520203286997,-1.1387634611608843,2.961839655831589,3.0106930363892026,0.3951792434366941,-0.20437677349234784
13.531500384,1.132535627075446,-1.0754409748338487,2.9355524930299186,2.786819104872964,0.375445101767793,-0.20512275260378657
13.631509205,0.8694903688141524,-0.9503751538280104,2.9032906091988004,2.5623364539519664,0.38173236758598283,-0.20708796089892417
13.731506393,0.6444424406001835,-0.7715468048955046,2.8590176344484677,2.3400238973005547,0.37018764661994424,-0.21088156179590298
13.831548543,0.4666841953740826,-0.54790133056369,2.8807569760945464,2.123557980669889,0.42390390185349236,-0.17948594079058894
13.931508038,0.3237168537438204,-0.28789413068863046,3.046497800464749,2.002965766201046,0.5103696804603306,-0.07868267242103937
14.031506469,0.19147304746471258,-0.0018241919074451027,3.231919986588275,1.9856784641721297,0.48697797935791637,0.014995748394173086
14.131502478,0.04738671235968102,0.2948318868563972,3.33583666030162,2.0201594914278544,0.42352738824714875,0.07598777722416426
14.231502834,-0.11970618760061294,0.588308607401421,3.409907794960848,2.1172060852897987,0.38702166501402574,0.1306907678266728
14.331498937,-0.32192128357699634,0.8619341295644188,3.404187570106359,2.2836803202872287,0.3243689998625467,0.16844316548295854
14.431504274,-0.5639845300324646,1.096007658906056,3.323468108324454,2.507464762046915,0.3049231165615714,0.18556158567694128
14.531497977,-0.8427840742907565,1.271030951314769,3.253027803226904,2.753382961983068,0.3488751922266647,0.19256254619628313
14.631506605,-1.147165556093371,1.375019482648659,3.2082393605931623,2.9731680854268228,0.3678303952944955,0.18416845489352437
14.731516068,-1.4657970677800805,1.4069357721155362,3.2106146676291405,-3.1089406004870703,0.4079057761933769,0.1851395871434307
14.831502538,-1.7866130222963745,1.3692592856930983,3.2418894762956385,-2.900476016549953,0.4390507398290903,0.19174109087680408
14.931496806,-2.0945336494743714,1.2647075198393518,3.2658005049386443,-2.692869241672177,0.4060487480473266,0.19175143191243119
15.031502429,-2.374106086647143,1.0968378525321731,3.250805424075106,-2.4546011234026635,0.38219471689851625,0.1953023550705783
15.131552637,-2.6091266288045474,0.8738940241462215,3.2458444794223364,-2.229254626982178,0.38262289651796744,0.1904839073000789
15.231562486,-2.7866826495897445,0.6066658517002014,3.2084727114293785,-2.0020816186744144,0.3752726671027398,0.18516345612447727
15.331499344000001,-2.8988912201294643,0.3097030651333049,3.146713760674098,-1.7803814304341659,0.35499855321492385,0.17985465758681682
15.431499918,-2.9416160034675105,-0.000756907672416394,3.112887803804119,-1.5613459159501097,0.3337330257448933,0.18570046270073431
