time (sec),x position (m),y position (m),forward velocity (m/s),"heading angle (rad), from x-axis, positive is CCW",throttle (unitless; -1 to 1),steering angle (unitless; -1 to 1)
0.132221105,0.1718573088694843,0.18689024296937276,0.00202617350040535,1.513014971667788,0.1375716961739857,-0.023260358295963988
0.232213512,0.17194103823553497,0.1869360525844744,0.007677026343242693,1.5129886578848133,0.75,-0.11993242595684243
0.33222353600000004,0.17162415343355833,0.1867496389985463,0.021166698166536015,1.5152262897883315,0.75,-0.17582934779359424
0.432213614,0.18071460762683442,0.23385578222878844,0.8482665603403775,1.4501272482815255,0.75,-0.2556690080156661
0.532215834,0.22564303718356243,0.3576604230478679,1.6296576167720462,1.2657523859782325,0.75,-0.3116353994890933
0.6322122440000001,0.32622376819899257,0.5315422269437656,2.292715856767271,1.0239187326460335,0.75,-0.32797978303341674
0.732214421,0.4942700586892565,0.7191647167486012,2.646119705226474,0.7451036786133756,0.6337613909555002,-0.3187174618097832
0.8322163100000001,0.7173804805190847,0.8694257446637743,2.7164353505617096,0.46664622240854114,0.4773598003579654,-0.3034592387749289
0.932215479,0.9740934812359776,0.9567611793218189,2.712472304074208,0.18614846693484446,0.41617548912857144,-0.2827653819554308
1.032218594,1.2430288172844706,0.9708579769849925,2.689214453200949,-0.08214003995552006,0.40943205775339364,-0.2616647070606155
1.132221046,1.5053673548878155,0.9132591924223091,2.696053507057899,-0.33929655100101663,0.4227044119670413,-0.24819194540568693
1.232270011,1.7443549671845575,0.78965333134171,2.70705788840026,-0.5846897806440501,0.3955785092242848,-0.23689423169742008
1.332211641,1.945029880352111,0.610803200702263,2.6989675009319782,-0.836189581196651,0.37377676298688417,-0.22401122546517946
1.432275392,2.0965039790630264,0.38875982881267873,2.7066917778779302,-1.0785828117030676,0.3738276397811625,-0.21434548008285892
1.532211562,2.1912315144221624,0.13889599759423926,2.665169242756268,-1.3107236189416585,0.34338542895269664,-0.21675234851833552
1.632215626,2.2253116613987682,-0.1232535286371644,2.635615324543225,-1.5434550323967686,0.33871663368763977,-0.2167396778863484
1.732232516,2.1992294701460153,-0.3831816339677721,2.6090057528466897,-1.7651709495684722,0.360550620425084,-0.2217788058192038
1.832211943,2.1160974574123994,-0.6283853599978474,2.582817991729965,-1.9912886197135264,0.33846948283301026,-0.22422633634691655
1.932220641,1.980638005667434,-0.8466707180010719,2.566433192048267,-2.219678122465627,0.3345820070665635,-0.22708226212905203
2.032217939,1.798869294313058,-1.0274888960151476,2.575354629730808,-2.45109867247629,0.3522270262975211,-0.22740049011507243
2.132212314,1.5803746389649667,-1.161022934264594,2.57060195494206,-2.688627764944501,0.3513924298105096,-0.23762021456215351
2.23222144,1.337919429943943,-1.2401534956627494,2.564405388206325,-2.9206390189043145,0.3564216649656742,-0.23498213355327988
2.3322107340000002,1.0823235243532985,-1.2601003338244072,2.5800885245617597,3.1229240883472387,0.3758621469517351,-0.23237047840440758
2.432239886,0.8279750967784694,-1.2195736373629114,2.5955021313814504,2.8797404512039755,0.3776987677618792,-0.2397504082959183
2.53222229,0.5892633598235613,-1.11921624042291,2.594285736745588,2.6368260379453443,0.3761103564699075,-0.23164814662122407
2.6322133770000002,0.3800638182091074,-0.9641814842063682,2.6288987182361807,2.3992758220205834,0.3931660012075885,-0.2323666112265079
2.73221338,0.21229910629229284,-0.7626840121025189,2.638174091484749,2.1635834192867196,0.402301376889327,-0.22989475245427854
2.8322216620000003,0.0902447798378292,-0.5247784979283027,2.7298400587436964,1.955417627539803,0.4157135987070113,-0.16074098861778796
2.932212658,0.003828231169104814,-0.2609343570165417,2.826145196892563,1.8315860403139046,0.3992086954700691,-0.06906579566815285
3.032220031,-0.07442509541431186,0.017907066855026008,2.940729632710626,1.8352131950166086,0.36614771175795924,0.06280307180900793
3.132244605,-0.17286753040737998,0.29814179312643485,2.9954794840357453,1.9293833746897289,0.31780378093128653,0.14828362255643474
3.232218645,-0.3078632052892231,0.5657983221641157,2.9808961514095484,2.088523560713616,0.29594103322897797,0.19275002843605193
3.332212259,-0.486431321351727,0.80515530806945,2.9766110560522674,2.300133173502177,0.30529309837536234,0.22272285604298017
3.432218946,-0.708628174367414,0.9999138998845104,2.9482940418603167,2.5344934007947186,0.2872868789241999,0.22915490136977099
3.532219334,-0.9658227474067841,1.1369344535997368,2.9028832453924114,2.783183454783068,0.2973690612214972,0.22656412697224368
3.632214342,-1.2438782397951893,1.2058457402774316,2.8473438890849327,3.0410767416412634,0.340244572994287,0.22256504421564008
3.732268613,-1.5266213876974515,1.2029418232296123,2.814728140112723,-2.994773058182347,0.3322845717494069,0.20990043941029835
3.832222138,-1.798119341884066,1.1312985414061938,2.7998040141389646,-2.763295544449938,0.33293299554478173,0.19782591216964848
3.932212515,-2.0462616168752428,0.9999112807117567,2.8144542885525086,-2.5532874896111917,0.3453992570746317,0.19236187661761395
4.032219982,-2.261684619461378,0.8174493274189173,2.826884209815646,-2.347982930979191,0.33358323676070745,0.20195443716028302
4.13222727,-2.435701083203909,0.5932285502477174,2.8510012655267274,-2.1335610710996353,0.3137900940672872,0.20787711355887448
4.232212832,-2.5578846200615417,0.3364248502258206,2.8392134521524026,-1.9122409839805041,0.33871954775751006,0.2198394660120254
4.332258983,-2.6212822753256635,0.06011243461528115,2.833215049569009,-1.6946735783058584,0.3085423949393693,0.21966011257365856
4.432212413,-2.6219298493284655,-0.22234409627631452,2.8171381284363797,-1.4566531951664485,0.30621818733293404,0.22186646512627115
4.532212685,-2.5573557767312605,-0.4950625531081721,2.780046200580949,-1.2105356302457781,0.33161416078544886,0.2281523145070131
4.632214681,-2.4309909743683904,-0.7414449996749802,2.7697806990690426,-0.9635744336995069,0.3216806910223757,0.22107529918468902
4.732215781,-2.2499742095324518,-0.9485700227339225,2.749711926143649,-0.7290456733913141,0.3309023078023951,0.21188715503650632
4.832219171,-2.025795978024999,-1.1075622531992393,2.766907389887479,-0.50943821495586,0.3384290799167468,0.21013590769340226
4.932216713,-1.7698042637749805,-1.212525976050084,2.784511123160271,-0.29240841474728774,0.34610842812093706,0.2161305431277632
5.032216252,-1.495285029664978,-1.2593139515897636,2.7991251327412052,-0.06741345192698658,0.3336877876385938,0.21983875389758115
5.132213407,-1.2165872487856784,-1.2435881391382078,2.802757709440126,0.16874944114014426,0.32547239252311666,0.2169440314110416
5.232214583,-0.9496633192104195,-1.1650568929969294,2.790138341591692,0.40058419199563927,0.3442251721778449,0.22229429768752074
5.332264743,-0.708364189508207,-1.0272739533300235,2.7811487945813638,0.6313438286771818,0.3361417906829143,0.21814376358202214
5.432211855,-0.503916875429166,-0.8384731840634637,2.795005777835575,0.8557185452510658,0.3409220642703713,0.2085287073053572
5.532224884,-0.3459628043557967,-0.6072280797976319,2.8146508375517816,1.0855112998275849,0.35480589141884467,0.21986803581948197
5.632214158,-0.23753664202757796,-0.3460660928304731,2.8445947023525173,1.2549034107642327,0.36172135371445213,0.10913286221200935
5.732216151,-0.15689733972384437,-0.06846328312239877,2.91766463367196,1.2941850522267782,0.35205655489140586,-0.008456846399370587
5.832217761,-0.06669803800209878,0.21279658692195969,2.976799434818937,1.2181411316705706,0.357354691413449,-0.10949027901480708
5.932217468,0.05666991461241002,0.4841052545967102,2.989861098921972,1.0746124112761115,0.3204842767008168,-0.16319897388896318
6.032214171,0.22103755457231594,0.732370780233685,2.9661181132554257,0.8933894648848082,0.31541050320673414,-0.18358848015948653
6.132214993,0.42664336522208857,0.9410516263631347,2.913557310002178,0.6794541264300298,0.337735501166681,-0.21168252154912948
6.232271974,0.6685361292882744,1.0984497727445213,2.8779985947124254,0.4531650284616286,0.3386751298787573,-0.21481810095972168
6.332203216,0.9351720866064105,1.1945000245228277,2.8106087299091387,0.21604903842880976,0.34585285508320274,-0.21225487289438416
6.432225597,1.2143901094402136,1.2250693824277021,2.8330676436167685,-0.006709164699176128,0.3708785892127408,-0.2052406471543488
6.532219896,1.4922789700956622,1.1927858912114335,2.782968462683015,-0.22362570476450505,0.3678143031680216,-0.20602835357910065
6.63221461,1.7550021658369657,1.1000711392035813,2.78552099711251,-0.448404795287814,0.3599067314383335,-0.20488512222060276
6.732215854,1.9901217350507583,0.952348908685959,2.7721854601901916,-0.6624889131659021,0.36896702472427506,-0.20656022524162723
6.832212179,2.186622586244229,0.7575554309119489,2.770342180765955,-0.8815183591188985,0.3613786291973652,-0.21253990799330938
6.932218667,2.3345953261029786,0.5254841834538672,2.7236518246020753,-1.1057987131985143,0.34930908792245935,-0.2146993720528899
7.032215959,2.427382334430821,0.2681023698019018,2.735705698453479,-1.3270560848595125,0.35047344265763775,-0.2098989896121016
7.132211512,2.461545960511723,-0.0014638967050334664,2.715858614091681,-1.544675773737681,0.3488580077168929,-0.21985449551749517
7.232214428,2.4358136531454218,-0.27006625370981807,2.688340349131738,-1.767818723457111,0.3429647264699565,-0.22111257284705543
7.332212208,2.350965557226314,-0.5233057525196237,2.66464627488176,-1.9999000140445835,0.34244770547887604,-0.22786701358222827
7.432215157,2.2115651989843497,-0.7489765929217719,2.643978845473339,-2.226373424177362,0.3657804259015328,-0.23022795102035076
7.532219642,2.025290587359176,-0.9361868699354596,2.6303051751292124,-2.460723081488125,0.3547607938133001,-0.2292229627022004
7.632239581,1.8007547800648818,-1.075632778138509,2.648829156907699,-2.69222352864852,0.3559642422155831,-0.227694135539907
7.732225979,1.5504703582270791,-1.1593849721751819,2.6631665926761214,-2.92671019937862,0.36750648363128224,-0.23393406762371938
7.832216442,1.28753123965285,-1.1828723411014348,2.6551840307769288,3.125896926867833,0.358308394544268,-0.2292826174640395
7.932243397,1.0260090258280032,-1.1451433690317172,2.6469323261381312,2.8905537120283307,0.3670195186036055,-0.22971834144157524
8.032221845,0.7803690866702439,-1.0475116522313777,2.6449832794605426,2.653411981805311,0.3794852998755433,-0.23375534513542065
8.132215538,0.5635809655068666,-0.8951531445048403,2.656038875545472,2.4222302865061134,0.37483055188402237,-0.2298273789972983
8.232214145,0.3880421022871226,-0.6963807147395654,2.6508165197276354,2.18619542319388,0.3803934656792214,-0.22088055792861386
8.33221677,0.2609180595187863,-0.4620973410758604,2.69758306171694,1.9664322188987355,0.3930792442002432,-0.2024139787497177
8.432215448000001,0.17097731143209688,-0.20133608756861515,2.8220983693522754,1.8513373327463534,0.40763459801907675,-0.0551090772279148
8.532224051,0.0853271107952592,0.07571032351471549,2.9521722856177774,1.8622287084051081,0.3706066798353926,0.062018670142067876
8.632273803,-0.022137314329874914,0.3540355677413233,2.9978683644618984,1.9618922290685212,0.3338660400378909,0.13680688106538405
8.732212812,-0.16650773568522764,0.618383726207166,3.0242820092285125,2.1338073300859395,0.3096812098284333,0.18924787848391167
8.832212225,-0.35455751374667427,0.8520668695686048,2.9891975655292624,2.351146028213473,0.3005499000307553,0.21032364930359515
8.932214177,-0.585156389943025,1.0385381079950005,2.9591325585048813,2.593728917359948,0.3032327224919066,0.21278580743634548
9.032215978,-0.8490786378650846,1.1646701856814556,2.902691518252381,2.841418708613291,0.3225503853104411,0.2100333670416117
9.132220344,-1.1317539501638751,1.2227936697689992,2.8759912661865124,3.071979425724557,0.3244851865488871,0.19756646163027075
9.232222647,-1.419395916683724,1.2132142563032369,2.8972787862494065,-2.9917611709192107,0.336397464002621,0.1942822158939953
9.332213733,-1.6984636586044122,1.139060149526531,2.9027187268835877,-2.7651244269397193,0.342994682546781,0.19737414311498916
9.432216959,-1.9539662192734404,1.0045718374756736,2.8833449367347948,-2.53192002973998,0.31912140812279655,0.19720098050310086
9.532220513,-2.170986689330276,0.8176643971485665,2.8482929474383525,-2.3179251171353794,0.36608711212659967,0.19509854091786097
9.632216028,-2.343250960091494,0.5856172196073857,2.917395621464327,-2.096244740481855,0.3198274178532211,0.1983019848668279
9.732221404,-2.462192085950229,0.31982992362859763,2.922218481307611,-1.8769027545556178,0.28572881512770837,0.19639387896204136
9.832219338,-2.5208085737533774,0.03451444729083483,2.8947760354259198,-1.6573952643113161,0.27261040787527835,0.2040003165486371
9.932213766,-2.514841137206045,-0.25212475308200916,2.858593567109459,-1.428205689288011,0.2773816915212187,0.21065457916844138
10.032288832,-2.4453605977102275,-0.5250159877665146,2.8092496530138833,-1.1914052954931411,0.2861808020259188,0.2115738664849527
10.132214643,-2.3153551806945147,-0.7707774305789951,2.784441254416876,-0.9552633622113513,0.29660006161444247,0.2117067353493816
10.23221589,-2.1328723743821967,-0.9775385444279127,2.762052682960928,-0.7286239389712704,0.32629029273527704,0.20263156675418437
10.332214065,-1.908571863780338,-1.1363335811927961,2.7553394612920687,-0.5056941220868458,0.3197062686088274,0.21142680332693561
10.432221256,-1.6531348130509969,-1.2404190239620119,2.7713016906486363,-0.27539275722172274,0.32028824949064316,0.21429086453525698
10.532301398,-1.3808335260736073,-1.2830929150763337,2.7612677823147704,-0.04056486219621825,0.3244754385073596,0.2155505163232289
10.632223609,-1.1057443546591834,-1.2614485117033416,2.7670312270318544,0.19687935085619873,0.3303395182574563,0.21768664570827465
10.732211799,-0.842797184984349,-1.1762000012283025,2.7724726255573238,0.4232778557657823,0.33013825671568653,0.21015495636140047
10.832218154,-0.604106353389791,-1.0334421030500567,2.7905016687924107,0.646639367286541,0.3300319746956659,0.214045751488852
10.932269025,-0.4016142584464443,-0.8404668538898499,2.8175007805335937,0.8725784836544266,0.3429874250414923,0.21746522022860879
11.032213003,-0.2468494573647839,-0.6058176735144274,2.817787729167023,1.1028790168986486,0.3349963913125986,0.20245252474565736
11.132220428,-0.14555982467214662,-0.34169734810994534,2.8436180719662225,1.299647430817854,0.34466780009576103,0.12094082987009674
11.232214725,-0.07712318867744525,-0.06240631241361364,2.9261838325426943,1.3441294771285486,0.3649843728996761,-0.024167333695895497
11.33228441,-0.000836850964639086,0.2208813063791564,2.9558689085324934,1.2621357324576084,0.3363059280400515,-0.12260607918828517
11.432274983,0.1110134991406691,0.49493656128507335,2.9629527910444535,1.1059344649095377,0.31454978700239067,-0.17377452577862548
11.532283434,0.26818800933738085,0.7435685958668952,2.9123133433781563,0.8971296900879618,0.33621032368535475,-0.2070493435606245
11.632215617,0.4701358432702382,0.949818794357139,2.876280281914521,0.6718519358912765,0.32522247484893047,-0.2150825152662497
11.732217588,0.7094596748786323,1.103393110799472,2.8332941728570424,0.44023486904126014,0.34234090128138944,-0.2130385231564573
11.832215921,0.9742343209918966,1.1960971960470872,2.784205641163623,0.20353474496465637,0.3664876713973769,-0.20753864566044208
11.932214614,1.2514219495586538,1.2234494940569256,2.7851197128892164,-0.01767010333012954,0.37439328274531747,-0.2043526833937059
12.032216521,1.5283037499798382,1.1894564529552059,2.7889215992697833,-0.22612270855760908,0.37076435694545845,-0.2010275881457979
12.132220381,1.7913731900392187,1.097180681381024,2.805319960480772,-0.44166840411395136,0.37063511634490354,-0.20133811495231796
12.232218854,2.0276839871531696,0.9506946647897868,2.7840951919451986,-0.6565016840503378,0.36892290288327156,-0.21238064260524223
12.332219484,2.2252044180836172,0.757779597481122,2.761752107842047,-0.8801570265445027,0.35206104378904896,-0.21295999491953765
12.432222832,2.3741491362636533,0.5276662502783317,2.731689172692266,-1.0970880572332784,0.36274491685695953,-0.21030245080585536
12.53221978,2.4685944622719567,0.27254886181519344,2.702253304778213,-1.3188482957719725,0.35920418528913595,-0.22068143862886994
12.632222878,2.5044128338318297,0.0034963283387990387,2.701946568914055,-1.5432925374447766,0.345989758547192,-0.22223656836121655
12.732215237,2.4795785099597296,-0.2649700686642304,2.698120926939381,-1.7662494903485666,0.35321446540870244,-0.2201430226245166
12.832220798,2.39572933585987,-0.518997115174402,2.6779210866520704,-1.9951953610362054,0.36050442228655644,-0.2300165537019559
12.932216363,2.256891574177941,-0.7465398131104711,2.658738936131242,-2.222044023154764,0.3530880812410901,-0.23136334019782234
13.032215039,2.0706368223613416,-0.9357056618278778,2.6493867838901193,-2.457053866588933,0.35925841563164507,-0.22770484328901094
13.132220062,1.846061463932123,-1.0774372469903588,2.661666143247853,-2.6905097939954064,0.37469691603328836,-0.23410684654961314
13.232261449,1.595509621546304,-1.1632128556282446,2.656973434487512,-2.924466764511681,0.35669670962143984,-0.23285764118073757
13.332217993,1.331254375552786,-1.1884659267877993,2.6528274672512735,3.129628292518518,0.36470316966632477,-0.228969448743752
13.432221552,1.0682986186571861,-1.1528640791438711,2.674943042463767,2.899700129609563,0.38631742985785583,-0.23421707966062413
13.532221845,0.8193174780532798,-1.058331542072855,2.6804396973614955,2.6718051731505743,0.3689932940603369,-0.23233721803987237
13.63221534,0.5982305027418924,-0.9096582483265568,2.6701713594143888,2.441283412633604,0.3663953870396494,-0.23157136344719476
13.732213203,0.41624957799692053,-0.7137385156116036,2.6932857931755487,2.2115400799067744,0.3986993479631487,-0.23486225854846782
13.832261102,0.2796497590980863,-0.4808042058989036,2.7366148618550854,2.0029570920250825,0.39934189978926327,-0.18094518739684703
13.932220053,0.18158357611773893,-0.2207284321305285,2.840273484340188,1.869676677279589,0.39343183897264816,-0.07189131750509464
14.032265701,0.09130907588108036,0.05587827163038448,2.9560155440074243,1.8755414376081638,0.3752694141364536,0.05019951577394094
14.132216601,-0.018408134139854055,0.3354418403002052,3.024545420857478,1.96259098716885,0.32888932926183584,0.1355009553901398
14.232287636,-0.1613734433385795,0.6026288309027908,3.030967275805779,2.1125090729881624,0.29516029642661135,0.18588818105461966
14.332215388,-0.3477201270152529,0.8408560852409775,3.010106923855797,2.3334346082517543,0.3070254604453303,0.21045865961819546
14.432274535,-0.5763815909465025,1.0323790756277973,2.9687519630665355,2.5801976162555595,0.3036440796911413,0.22031774802834891
14.532219374,-0.8385294525827377,1.1628715807235896,2.9115240877290645,2.8289096440787156,0.30801187491346493,0.2133885968640375
14.632214202,-1.1200111038549083,1.2251598044818188,2.8727083139908833,3.071502827960898,0.33258416357579,0.20240759775666803
14.732219601,-1.4064458109302025,1.2172082494652188,2.865582106553055,-2.98355462820249,0.34914239858876844,0.19752400130215417
14.832219806,-1.6843251226397802,1.1443401658569958,2.8793731003338374,-2.771923850128327,0.3317202855896167,0.19081515587316442
14.932257645,-1.9405963051039603,1.0122103045266788,2.8872408490839474,-2.5521470419834382,0.32361685030812515,0.19572818775432518
15.032220159,-2.1614825468224192,0.8277243715890547,2.876591866744772,-2.3297516601177337,0.3241994664119701,0.200807002924748
15.132217301,-2.335348354477865,0.6004241274740412,2.86712231705835,-2.1059513896008846,0.3099543596222695,0.19963584535849213
15.23221631,-2.4549445898954287,0.34143714806297853,2.867474493221125,-1.8932753665747548,0.30154802904895117,0.20243088375682683
15.332215191,-2.5144457441471837,0.0628270687454899,2.845279211475587,-1.6703216439902544,0.3137646373526396,0.21066266533062256
15.432257584,-2.511688756837631,-0.22044064392986704,2.8305122493732213,-1.443871387804871,0.29369615713834774,0.20835737194196288
