time (sec),x position (m),y position (m),forward velocity (m/s),"heading angle (rad), from x-axis, positive is CCW",throttle (unitless; -1 to 1),steering angle (unitless; -1 to 1)
1.031623893,1.5182551061071679,1.0920431280110034,2.9001632498217567,-0.26069365626470337,0.3663608584282672,-0.21003053180330195
1.131642223,1.7460887664826665,1.0530131628594732,2.874161109765198,-0.501725194641669,0.33304962143739564,-0.20212618919070174
1.23162708,2.0514383524170468,0.8983127706056915,2.8871930622873223,-0.6982077567590358,0.30858149473467705,-0.19453101621889773
1.331619657,2.2148429519274204,0.6835113164696889,2.870475497425779,-0.9265271858398628,0.3348595091230204,-0.19903854777981986
1.431624912,2.397223824821588,0.4080854049660116,2.792308525575753,-1.1649101687090166,0.302458084015484,-0.19837746085761845
1.531702962,2.4024504732789156,0.10902450976821029,2.841915061652392,-1.4222521632554423,0.2842503857656752,-0.187881888990313
1.631630087,2.4256501833944064,-0.1707373633047083,2.813167969318494,-1.604690976118673,0.2906623650496967,-0.19923885075648384
1.7316342420000002,2.4492359775857335,-0.4259389826125465,2.8160419573098316,-1.8187812006272608,0.2959582873325317,-0.1996957027233619
1.83164038,2.2728185279700805,-0.7071190822523359,2.786163340957458,-2.0223949284235823,0.28297733240737044,-0.1997319475238024
1.931619058,2.163921940100353,-0.9312713879061327,2.733979932042993,-2.30375108051272,0.294132785828074,-0.20683227954955774
2.031623075,1.975945397165757,-1.0564827504311325,2.7625250410410183,-2.4880929455502905,0.3164380184689564,-0.21467104759922384
2.131620624,1.6959268893713155,-1.2083789906965543,2.728282273423143,-2.7765157151093978,0.29503821590316087,-0.21353218696827858
2.231615845,1.4107792207571175,-1.2832389265896675,2.74961776460034,-2.9932993180698007,0.3099911642796566,-0.20573844097513797
2.331647758,1.1328854824598704,-1.3303945404032704,2.784788347744838,-3.228235107292594,0.34175111098784244,-0.2135091773982496
2.4316217140000003,0.921685744287045,-1.1849526692686543,2.73198692595088,-3.471189227998993,0.32455054155957785,-0.21087216036036396
2.531635085,0.6264188992190282,-1.1359519348840263,2.7968971758647285,-3.7617575555733533,0.32782218870355806,-0.20154752446854568
2.631621634,0.3970886843787538,-0.9678820055566494,2.785610539754369,-3.9594443253770795,0.3423008258420831,-0.20166520926653245
2.731696595,0.24678270148396794,-0.6853065091905938,2.797595544878567,-4.164913249703496,0.33197137403956484,-0.20689502645530872
2.831623551,0.10558296450797557,-0.447561981108924,2.8059493401523663,-4.414236938724691,0.36091023385464127,-0.15035525572979874
2.931627985,0.07323549504643505,-0.1989807666741714,2.9343104014722807,-4.538585609227258,0.3666373382097035,-0.03476612542918733
3.031624033,0.0383248007019668,0.1175121238197184,3.03855415826606,-4.537576424635244,0.3158268853710533,0.09239146533227359
3.131704785,-0.059637842444159976,0.49381418189546217,3.0963319805047123,-4.375054840103002,0.27535446210281117,0.17892185595516608
3.231628073,-0.1877299192902931,0.7049588178515567,3.0925519837585917,-4.2236042030393515,0.2622708442896927,0.21379654130449274
3.331639549,-0.3448228699560587,0.9723962211713717,3.031856679113444,-3.935937145121538,0.2615169435060152,0.23278382601695893
3.431624856,-0.5916479426691651,1.152058196638352,2.976155709061057,-3.740201975197186,0.28729941120207403,0.22647916767693693
3.531619036,-0.8238944977257711,1.2507858343287128,2.9490496282311702,-3.457305233432724,0.333424245687568,0.22273162139828315
3.631643429,-1.105158507384762,1.3393019528072454,2.889156866694506,-3.2604913585788893,0.3306787949715692,0.21005471324343003
3.731617972,-1.3896884955768998,1.3589025307378721,2.942638324390938,-3.050612077940084,0.3333561822381314,0.2049423356131913
3.831703312,-1.7599469897099174,1.311155876030147,3.0079136293489723,-2.7789077879479125,0.3474187870498503,0.2196982542758665
3.931624502,-2.0352049466913695,1.1840090212516363,2.9440696012700336,-2.575024588176707,0.29833472865604416,0.21747427270018316
4.031627951,-2.1640821752328754,0.9476081405721748,2.924610762757408,-2.3341309292199273,0.2993959617609942,0.21148067627464898
4.131617906,-2.365099015903693,0.8331464483390674,2.9453334688699773,-2.0912644167954997,0.3305724676257699,0.21333484667514604
4.231621044,-2.5084262718345336,0.5000816722964735,2.872837868292737,-1.8531021373087648,0.31703590803137444,0.20548185257538332
4.331700766,-2.6212775946935687,0.23586800229576313,2.8754858366151845,-1.6764188373752267,0.30803871462039517,0.20866919217985325
4.431626526,-2.597829112757499,-0.08717660726644107,2.886692663397473,-1.4731297517100947,0.3098690069609705,0.20941448743717062
4.531621424,-2.4899301370190576,-0.3672977134566638,2.8892071937962065,-1.3124077552958788,0.30537805834887677,0.21810430041712486
4.631637365,-2.378624173563482,-0.6114070555017898,2.88189567166742,-1.089165546408025,0.29331452673655767,0.2186137640509668
4.731616779,-2.2166711296205097,-0.836742560411869,2.8375799642126296,-0.7625504772223276,0.29505270177470166,0.2167251891980564
4.831644188,-1.9334996741454813,-1.0345659554045261,2.7998592695291498,-0.5647263106518087,0.3112497476844206,0.22220319608315642
4.931621669,-1.8097190980355589,-1.0761523823108292,2.87025146114906,-0.28916288089186887,0.30088955541988693,0.22248343420589795
5.031623556,-1.4890025240181823,-1.1852687253891254,2.838822285111852,-0.0749402587612949,0.3034890899090637,0.2160894845102846
5.13164774,-1.1530921532117673,-1.1649042922500505,2.827787711725006,0.14002017013743687,0.3178544805502286,0.22755513916166062
5.231710347,-0.8764555909163845,-1.067214913545121,2.7948224748575843,0.35460793913494704,0.3081880095255649,0.21498260870099165
5.331626692,-0.691149415697017,-0.9962817105648708,2.806849468604277,0.6180643450123463,0.31256635980803515,0.22196051286216098
5.431631617,-0.49701381359374924,-0.7853713654600701,2.8634269178957377,0.8229881052500645,0.3417202219775788,0.22867032454591937
5.531625214,-0.280702419574629,-0.5263180550458019,2.8284316142125085,1.0838987167038094,0.3214904254857393,0.22897846047483705
5.631623232,-0.13616472144017328,-0.3455818319075826,2.8145927663114527,1.2937361181412512,0.3200695224701626,0.12661856013171466
5.7317314370000005,-0.10532412638555232,0.00925125775281142,2.914949616555211,1.3454739485206626,0.3725225695303178,-0.019208966872006437
5.831621651,0.01611859575718407,0.2582799604420759,2.9773419161924357,1.224857894328283,0.3320608971815428,-0.11980922502684814
5.931617483,0.11116854408002295,0.608640276213533,3.059428024977892,1.0382100887190546,0.2967831138203758,-0.17315674217044708
6.031633368,0.22230727028266573,0.8131388915560843,2.939513828645114,0.874951322316317,0.32132489867409364,-0.19285582280539568
6.131617436,0.5073944401561911,0.9883416484308568,3.0104698792426556,0.6055050016327875,0.30366461182985055,-0.20485752627133536
6.231637431,0.7627130786303911,1.1247671013252336,2.9475766557881222,0.41013301022629983,0.3068474466111329,-0.1973743399096989
6.331620758,0.9655703848614469,1.2473175719314349,2.938864789613867,0.19592835200861264,0.32162789460220353,-0.1924404185521084
6.431660139,1.310881387913949,1.2612694046822637,2.885769169145067,-0.0778285000674788,0.3391493892416564,-0.1976773233336619
6.531623262,1.6247428344322536,1.2041081466364794,2.8681995573070243,-0.2267551037009337,0.31917844874086304,-0.19379495081156445
6.631651922,1.831664738380561,1.1130951788031227,2.8494564207199278,-0.47804941881550655,0.3177082341995059,-0.19579750981592534
6.731639222,2.122138813702835,0.9351897176899499,2.8414276550812754,-0.6788739281460463,0.32894751898778607,-0.1991594092784218
6.831711025,2.289305956757932,0.7107223392355908,2.919389561960414,-0.9361254507669045,0.30234643366321573,-0.1983329468950598
6.931704579,2.391976616461952,0.46182959263351747,2.8963171130584753,-1.1172062089912573,0.293917196917916,-0.1840373160374695
7.031625305,2.5151678707597935,0.20774771471013884,2.8440507784251614,-1.4132766830028813,0.3050198804230976,-0.2047043184229746
7.131633429,2.573257603002114,-0.12203529495073072,2.872045597671795,-1.6231935745261614,0.28603923052815183,-0.20586983489948035
7.231622395,2.5436016974597133,-0.3395730739836393,2.8108487715342694,-1.8595401321243819,0.2943190547665639,-0.19626903207896676
7.33163921,2.4050762863776574,-0.5538007951964438,2.85719700481095,-2.019034765094976,0.3053851375530485,-0.21342563806940135
7.431626988,2.3003584410322278,-0.8775780169113899,2.769098566142238,-2.2780359427539327,0.3026338842872123,-0.20894163955372622
7.5316677290000005,1.9131613846592732,-1.0843939665043498,2.7952758649646916,-2.539445035039888,0.29156380660879444,-0.2131553491864127
7.631630913,1.8222490348141862,-1.2370568826218713,2.768851792498077,-2.723909314684195,0.31781322954003366,-0.21366233441404958
7.731630753,1.516174255460149,-1.2718304643227898,2.851172105597688,-2.950940989826333,0.30847236295704916,-0.21168403154620663
7.831663996,1.2586659421356168,-1.2185757408576454,2.847076288772362,-3.2172772390490607,0.3053256213839932,-0.19358409479434757
7.9316222530000005,0.9612753672008202,-1.2097356693861863,2.7959606851773167,-3.3979625456473252,0.3285364654550819,-0.21554329968501756
8.031621373,0.7383041589087052,-1.0935858817156134,2.7635987711379593,-3.684145714691913,0.3226572284593717,-0.21617132348982193
8.131620129,0.502335104626227,-0.9454555624654647,2.7530692080518233,-3.8684238945316833,0.38697245672280856,-0.21270844226918306
8.231623637,0.3879001787211574,-0.6489339593929523,2.8098536605649302,-4.162556211586032,0.3516852487284419,-0.20222129730613264
8.331622818,0.16674878926787196,-0.4672745733002671,2.8412895865960586,-4.386053505398424,0.3560201110860063,-0.15163872468352577
8.43168396,0.12060405761081597,-0.17453434986802657,2.971489360755094,-4.5262388483658444,0.33571908291102043,-0.04794946218164296
8.531722867,-0.005459674775034361,0.18939388644170924,3.0831443329516666,-4.461337921799126,0.33107362638329607,0.08760967193938976
8.631621569,0.0008558794928809899,0.4433402338880121,3.1376282237048323,-4.3561704459521975,0.2670173644921983,0.1610316411747556
8.731622075,-0.15534299617231107,0.684922303325926,3.139055643721315,-4.189427288521243,0.24948176870468447,0.20534148026350743
8.831621654,-0.36502002020644564,0.9740835279208152,3.0227065712493064,-3.8756922889130454,0.27620827117292324,0.22171076770960824
8.931623051,-0.5946417127511034,1.163395253440137,2.9571084760640582,-3.728877642382369,0.2849104877548636,0.21687051773316812
9.031621317,-0.8318217373791655,1.3116771190272163,2.9106213389303446,-3.4722973073731755,0.3053140771925024,0.19966698726550014
9.131712624,-1.109437445742084,1.3271064763014369,2.9222444195507,-3.23651789876043,0.33950277648371985,0.1915679006800601
9.231633459,-1.4245643165495803,1.347306332685317,2.962475838945944,-2.978809013177185,0.33788360886288904,0.20004977959567377
9.33172371,-1.7374785299135587,1.2590117609877822,2.9346907091700323,-2.7431835189450897,0.3192990601543406,0.20987819370619973
9.431635059,-1.936575253899373,1.0850001865753283,2.9770120662762958,-2.5308924214897344,0.3215921377370945,0.20010265627019927
9.531622503,-2.200551864703251,0.9166745757194993,2.9200966154265675,-2.3028469511384806,0.3146470823310224,0.20842770129457153
9.631633183,-2.3456101898422506,0.6826364915091894,2.937077482145278,-2.1051652278458777,0.30606388549439073,0.2092238669507807
9.73162346,-2.5125772557298864,0.4399485706091397,2.929730398050844,-1.9265676511449847,0.3123756643491765,0.18875706190107924
9.831715712,-2.571623352206159,0.1926050027055538,2.925215299830314,-1.6794991474456225,0.30816105720744075,0.2087664354383547
9.931627099,-2.6701402400173606,-0.04925584840907053,2.86365380432688,-1.4319150685020496,0.29552544990753526,0.21444769357722984
10.031626428,-2.4626915220928294,-0.34899551047214966,2.899775158049655,-1.28910632777692,0.32871378359042924,0.2244206587588884
10.1316141,-2.4435535730510054,-0.612391469895756,2.81913824319055,-0.9960780636489683,0.296620234504514,0.22126944964266929
10.231645744,-2.2725856004457707,-0.8540883957462796,2.8695229763696157,-0.7610577093106808,0.29627256171876465,0.22257857585418797
10.33162378,-1.9985141611141355,-1.0393005169379896,2.8121128477357686,-0.5092500413180481,0.31097419654707636,0.2183583955003301
10.43162643,-1.76101263731622,-1.125147306736322,2.791259834619796,-0.3349991445448051,0.32843098860008246,0.22117593694321291
10.531638688,-1.4591720008876095,-1.2409358377389306,2.8047351123722892,-0.06018959726737229,0.3103798605805116,0.21185486737999304
10.631617682,-1.1807090606672248,-1.2793403547894124,2.817288885381992,0.1811748987100167,0.31302300007231604,0.22118929734564713
10.731643551,-0.9200289024676671,-1.1361311494874893,2.8068623480091452,0.37485226765814234,0.32576186371871807,0.2268767067348879
10.831626874,-0.6920429137211205,-0.919732626582144,2.8440419138289528,0.634084815179021,0.31721907322309933,0.22148585269115098
10.931638756,-0.4272654783935993,-0.7555656342155715,2.834897923551896,0.8352135110201507,0.3234676532891793,0.21973977290638438
11.031631144,-0.2983977677171279,-0.5205510652244395,2.805234201652617,1.0227972139338606,0.3336432938731622,0.2221135964970823
11.131621329,-0.18539869576903903,-0.34414115880513363,2.9063438236761816,1.2010159731211862,0.3464333713241591,0.10950009126358906
11.23162178,-0.07452928771177436,-0.016114815650220084,2.9934461631715523,1.2959665479361921,0.3358822474003809,-0.009380334486432461
11.331631793,0.07310720939561167,0.253918980858237,3.0007774643020464,1.2772312859152228,0.3345671003565297,-0.10268895509898913
11.431621243,0.07589269416012831,0.5098154857351637,3.015842547152815,1.1255587284421957,0.29099339668592206,-0.1675106671931093
11.531635119,0.23241094540338117,0.7141050567676838,3.0495139686829273,0.8464002682704523,0.29374370977002084,-0.18375790648671703
11.631632537,0.5016927504185273,0.9187385167800683,2.966947101226398,0.6398475736106605,0.3193041895725469,-0.20274875983549143
11.731705748,0.7746469465899476,1.2145097849478872,2.878180425753532,0.42257237704888334,0.30961052685807006,-0.1892089127752081
11.831643239,1.020009389232968,1.2074036557364909,2.889697101913849,0.13914883522664734,0.3155211652991412,-0.1974066673144943
11.931645089,1.4068245646520654,1.2009286682983291,2.9296530579242015,-0.10630526304500584,0.32644490967096795,-0.18517206518503276
12.031750314,1.6715745749056978,1.1472799018922863,2.957471045330489,-0.3197259993882227,0.3119484795995116,-0.17272104603905358
12.131618957,1.8719634263382903,1.062368705690128,2.896735745037233,-0.5525362208422402,0.3114709328172169,-0.17857612616706187
12.231638064,2.1298588676287653,0.8043424774115389,2.9293614278056377,-0.7390424408942129,0.3099760108438488,-0.18106627677353
12.331620754,2.2596832199910017,0.6312638728868358,2.894646519056331,-1.023758974232013,0.2908498492387347,-0.18955160459779388
12.431644229,2.497025186175754,0.4081557717929402,2.873668379627978,-1.2056726218861196,0.2957449701490343,-0.186634023952074
12.531641966,2.6138280112312784,0.17043902184067306,2.8570669867052407,-1.389333160383149,0.3019013058166238,-0.19906687149649785
12.631628217,2.524343234111005,-0.14604183372495205,2.837215256068349,-1.6139612446249267,0.2904129759179054,-0.19992928530073176
12.731624158,2.483284139984544,-0.45187156718114047,2.81888819732827,-1.8346323524202977,0.2955256894828168,-0.19498440612937562
12.8316343,2.4024142244183895,-0.6930674397727472,2.7843635557245223,-2.120477157559027,0.31508217900763047,-0.20326628043904507
12.931621076,2.2129959558377443,-0.882414160151528,2.7839528113149266,-2.2815256897329785,0.30121981864926867,-0.20290087376479982
13.031631033,2.0228103475560206,-1.0457479284388844,2.757824718399602,-2.5641728673881383,0.3042992871646156,-0.19758660498340186
13.131636458,1.7530289211217542,-1.1832206484359191,2.7185423893002247,-2.7489612169223703,0.32424757748694844,-0.206838648409378
13.231727597,1.4655268505365573,-1.2690761922860971,2.789884094284896,-3.009041195585797,0.29821956430886165,-0.19842387894589555
13.331620258,1.268312746642824,-1.3097556832981991,2.791878693763573,-3.238085575142879,0.30540610953961367,-0.20639344008219707
13.431737261,0.9162098305229959,-1.2245413230300872,2.77824051181794,-3.4521078254227966,0.3356389802284398,-0.21204490068286674
13.531639323,0.6535294081681096,-1.0314938696994,2.799493503868555,-3.684827472941228,0.32461873725825796,-0.20819802465287088
13.631623708,0.4779741166432693,-0.9450608710667378,2.7989505411606,-3.9076614357271184,0.33036349055586417,-0.19951544703548604
13.731702557,0.30397790269636743,-0.6902767174413068,2.7856593282413833,-4.20083684194462,0.35796999769351645,-0.19816425622767914
13.831625254,0.18767816184574115,-0.44879599974689716,2.8111195460069447,-4.4133851694615815,0.3574163288852752,-0.14140214590744085
13.931630358,0.10006027307461836,-0.19321678643937978,2.9715285074764126,-4.546268389800498,0.34104790106849725,-0.031089648176046966
14.031619571,0.03231210327392228,0.11182882730770576,3.0668733998167483,-4.542409469356858,0.3257430839512633,0.10056547682505462
14.131624045,-0.07387625171961229,0.3963441485106882,3.124754379554427,-4.374483019442538,0.2709116003744922,0.1727047196070863
14.231636972,-0.16955143020710073,0.7224016345327979,3.0845265823924093,-4.232908355360159,0.2517772697725426,0.20375220972523944
14.331640912,-0.3990607577648219,0.9680226226303501,3.0829022369817793,-4.006673525071044,0.2742029995686231,0.23167846091495206
14.431726752,-0.5638264419041173,1.1621730700216144,2.854108290793884,-3.695720790755498,0.2710998999854367,0.22906844660900094
14.531618986,-0.8435566858949807,1.3073867726268138,2.9034017411433126,-3.40763982139378,0.30506030106146664,0.20958489176384743
14.631632247,-1.1040051690965493,1.3593104066007768,2.9055028674359287,-3.27791430515521,0.3445384388203266,0.21215383499910223
14.731677779,-1.4434196789529539,1.3408552511424847,2.9272933277565745,-3.02619268634831,0.3362496302634789,0.20766391260073502
14.831625713,-1.668144946756875,1.3580911187539884,2.9823699514350075,-2.8009281419716467,0.3314834143097672,0.2075568234304381
14.931622909,-1.920949873183079,1.1742533339811254,3.0388757346231396,-2.575811627579188,0.3382065887682413,0.21999704851635557
15.03173913,-2.1704937884904854,1.0060311068867853,2.957886479461598,-2.3759802050202916,0.31172079954193366,0.21389240642643073
15.13161629,-2.434061553110767,0.7242714753242108,2.980744197552042,-2.094876028454223,0.3072249586239859,0.20146566325924153
15.231633707,-2.4853453218720545,0.4820601492037938,2.872642666952434,-1.8937693389074932,0.3262138139112944,0.20533965306233046
15.331628332,-2.584717641208298,0.23356093772010336,2.9169700772015,-1.6889978703357764,0.30651672086055193,0.2100290423761824
15.431620482,-2.5647906888070184,-0.09178937529663306,2.900860592334464,-1.4710614895879455,0.30533185525119083,0.20488364212915694
15.531618727,-2.563796140728882,-0.3360201961173627,2.8795207247509254,-1.2272145788457969,0.3215930253345856,0.22012639617535562
15.631640472,-2.4122168398050277,-0.6031943665532913,2.8709561261580534,-0.9915324353619289,0.296710164483486,0.21985169025685128
15.731623467,-2.180200953465982,-0.8110758323027438,2.8754398461427693,-0.7418645821358999,0.29504237741800565,0.2164384592295842
15.83161975,-1.9401946915989041,-0.9880496499888588,2.831671470017621,-0.5503837724057411,0.3207393002150792,0.22234258043895658
15.931621464,-1.6998311471853627,-1.1025719363918902,2.8125105679403215,-0.27571830273242126,0.3018251999488812,0.2110147380236245
16.031628603,-1.4742155912622263,-1.209805805027972,2.785557185015853,-0.1056242581994414,0.3025112467860066,0.21278606608595194
16.131611762,-1.1032505306313656,-1.2010585692596065,2.7989247102159185,0.18221722357043305,0.3187538953610966,0.21867472714143696
16.231619991,-0.9409526453581691,-1.0972347042989272,2.791290729015052,0.38537379854798764,0.3097637009014389,0.21730285807531663
