time (sec),x position (m),y position (m),forward velocity (m/s),"heading angle (rad), from x-axis, positive is CCW",throttle (unitless; -1 to 1),steering angle (unitless; -1 to 1)
1.025346028,0.76486317389925,0.22352089909648157,3.6025473271353614,0.7628706450312333,0.41241170914937086,-0.15496102220006938
1.125339672,0.984852886030188,0.5561020155770533,3.4971791503655467,0.5720820321538773,0.3523471019878397,-0.17251519324343756
1.225349501,1.3552807704640322,0.6825400333276934,3.4413764140227228,0.43535484062675955,0.29663657792926273,-0.18101940324301732
1.325344707,1.6243317088590588,0.737664413467034,3.357540329762625,0.20130816059377946,0.27823222756000704,-0.18664395506541254
1.425343182,1.9648367312418473,0.7418946032850261,3.2674152496995923,-0.1295422039011617,0.28994849578239174,-0.1982290519531421
1.525362306,2.284607272170163,0.7629995911563293,3.1548024567581634,-0.3139484481444831,0.28943402903677584,-0.20130808988773136
1.625348156,2.5327628883754763,0.6175727495904207,3.154555634860688,-0.5607828456368787,0.3660471796481399,-0.22161412016847748
1.725344635,2.802510187838535,0.4472792304166766,3.0896520059836923,-0.77229750699252,0.3767076489185953,-0.2342290150980938
1.825349835,3.1020887377227924,0.17049896990336671,3.0717372368077775,-1.0503308219912357,0.5078235626416868,-0.237053625079222
1.925364381,3.1907034327702766,-0.029247950993386646,3.0676668023438,-1.272550763168289,0.4516178327978617,-0.2383468346147468
2.025368856,3.1925489575731483,-0.3582990619200715,3.1588637649060884,-1.5005245188036749,0.47833092587732917,-0.22978542143521685
2.125346618,3.2228790728870593,-0.7327634395221461,3.1996949270220236,-1.7467195288620745,0.46963903121567996,-0.23340370353695697
2.225348164,3.1197372711748246,-0.9876086061493974,3.200540511736055,-1.9985070204963635,0.47984564436677246,-0.2256098400212725
2.325350491,2.968265863373645,-1.241574339918429,3.289427799107179,-2.2725276623423456,0.5255265080743399,-0.21960900687303947
2.425431453,2.7864191899083197,-1.5300475037569976,3.332301824220701,-2.445717583397932,0.49799616489408494,-0.20964540539120402
2.525343301,2.4399870416142497,-1.7365699235048,3.398048998072258,-2.66292895631343,0.4780342472554318,-0.20757874580868774
2.625368249,2.1732560116121675,-1.8408620837550067,3.457615145713664,-2.8493138098310826,0.47050757739982285,-0.20366834555722765
2.7254374180000003,1.8117052584468503,-1.9940361187516489,3.3817222030009426,-3.1224195914121746,0.44800171888553086,-0.19936439623600533
2.825363947,1.4675228498123765,-1.916501554356835,3.4049926012700626,-3.3037672241779936,0.41954361022610587,-0.19640156845057094
2.925348725,1.1149261159163353,-1.8153707099646712,3.3671221488171854,-3.5888722555951693,0.4100418239492111,-0.19688407293755322
3.025400069,0.8682510697475105,-1.7037062781205328,3.404583210492717,-3.7275643031526386,0.4114689197450265,-0.19977048423810487
3.125337725,0.5644084159124703,-1.526346014731677,3.3034264686672423,-3.976623932452492,0.408007381126923,-0.19374904225180745
3.225347343,0.38327185922803847,-1.234529366250526,3.4024186595397756,-4.204727600300832,0.4526171932306697,-0.17598202869230603
3.3253925840000003,0.1955683519597159,-0.9131515637246602,3.550534880479193,-4.3143899631625375,0.5468061108712177,-0.07317651233053779
3.425435713,0.09480353585886685,-0.5615421851373763,3.6996969493941734,-4.308814785588136,0.5136838124477746,0.010933267851656481
3.525349849,-0.022222126407951695,-0.19571080521765039,3.818803177556418,-4.3078810254749555,0.4160298196691082,0.06677952895598879
3.6254399409999998,-0.22289728537511747,0.09276092080365093,3.8403681231775924,-4.1715452350121325,0.32975719014415933,0.10739875925694707
3.725354229,-0.4985498072023941,0.421363455903142,3.8435999692509624,-4.01385380102763,0.24235481421783742,0.13351316835251845
3.825348469,-0.7608763289256303,0.693789056215809,3.6406200401134226,-3.8403851557078226,0.18959659006324842,0.1545844458298949
3.925355695,-1.0226059989818697,0.9165060539306126,3.617066845297979,-3.5591829211944166,0.18370567077635788,0.16240718268404924
4.025434417,-1.321510446430949,1.0510836177269318,3.3639163428864753,-3.3826182089509254,0.18938115997603458,0.15349854577520194
4.125340341,-1.7068181824625897,1.1032412803166032,3.1456132041673026,-3.117603541901859,0.23633332842780527,0.15863031178989018
4.225424828,-2.0149399941491435,1.0506053001563866,2.9936517448662903,-2.8337868250738962,0.3034293259492182,0.16239995958407227
4.325346752,-2.231739677240114,1.0149231153520715,2.8804043116551155,-2.6160830689371344,0.07691107686225677,0.2625782641772394
4.42534603,-2.4812778846448253,0.8160825382547144,2.7243848892867386,-2.362578201560082,0.30393942586261385,0.23750759277767525
4.525406746,-2.645517566908279,0.5782180159973851,2.781394254483201,-2.107321395294207,0.5307618982013599,0.1667698399184479
4.625373179,-2.736663612426806,0.42391644391599326,2.9496070080668817,-1.9565674498029026,0.5042249052220648,0.1702045858371805
4.7253770280000005,-2.852523920265345,0.06977300024279046,3.0843759976540395,-1.7225339671116842,0.4388544497002824,0.17875725230726056
4.825360089,-2.8165834207986093,-0.23582620389480866,3.221169766921218,-1.513332247949823,0.4250412643827846,0.19143177380843795
4.925363958,-2.7749477575811805,-0.5226368119261541,3.1268843314644155,-1.2629345014679103,0.39572007006931936,0.19693899808942722
5.025347911,-2.6774571077223976,-0.8336735380659723,3.135388457659258,-1.0119712397214915,0.4103362522760604,0.19718076742352758
5.125336041,-2.487615200390432,-1.0939567423645733,3.1603807355756435,-0.7800825237296101,0.43563663839993466,0.198141311439548
5.225348446,-2.2752621134318334,-1.3152745922766853,3.2270024407891262,-0.4614349497443141,0.4687306252725081,0.20011169847121266
5.325343866,-1.9822321933198324,-1.4004421152299025,3.2134319675100698,-0.3258486192168209,0.45768212835773314,0.20300585305261643
5.425376721,-1.63536389266808,-1.5379271108728452,3.223632632170496,-0.094840599345932,0.4418962320520605,0.19862199221811516
5.52534805,-1.3449523896967657,-1.5312463543846497,3.2559988865068217,0.1394308138267202,0.4597054986697994,0.19843545345328173
5.625436566,-0.9933211212255015,-1.4077644581842672,3.2971035045416173,0.32187670912498517,0.427623879408626,0.19496406324038487
5.725392951,-0.7002329937097796,-1.319915493908888,3.2545440165106267,0.6048650634554175,0.40289517271174385,0.18242654378080833
5.825453592,-0.4678175666330136,-1.193223787045876,3.2326358094016383,0.7920754816201186,0.410429490569025,0.17307556597894505
5.925360727,-0.27810569390851814,-0.889815317129951,3.3016972295053453,0.9777206645702434,0.4240448488587739,0.17398299061570519
6.025359367,-0.06622692915232807,-0.634183045626051,3.310239480928872,1.2281032653810844,0.46917228096274544,0.11187938159744969
6.1253364359999996,0.11434562550018043,-0.2724772634422053,3.45363717513783,1.269050756786811,0.5488219855899156,-0.018720937810906405
6.225368021,0.13680800855528719,0.01179857743491683,3.614692446110022,1.236512899186584,0.4891347057947109,-0.09128515769291903
6.325409377,0.3363642530657803,0.38270811401489496,3.6554203937323306,1.1148483386914743,0.41919290493591815,-0.13365907937555757
6.425350911,0.45143159311317893,0.6945492519898379,3.5871625862929415,0.947305330479875,0.3907862399608567,-0.16190897587219524
6.525358968,0.6870115156205434,0.9324756475279182,3.6085704427109353,0.7215367958102369,0.32539638688114436,-0.16837773015460897
6.625347428,0.956599711643179,1.2371980508576734,3.4792286844474596,0.5735910111902963,0.313098745589285,-0.18723481861513802
6.725419938,1.2457793850955767,1.3521114787327666,3.431395065216418,0.2825231621837543,0.3308235710355378,-0.18226835048620232
6.825367107,1.5790964899603626,1.470217579102597,3.3845570527428577,0.06759435739378669,0.34274417052167083,-0.19084518065206924
6.925348033,1.876288353118765,1.4577052883946773,3.317166661098679,-0.14289913480907815,0.35562117931579895,-0.20177162619409064
7.02539689,2.2498163077210425,1.4057901183085115,3.253707240971021,-0.37615015892998865,0.3801942282632516,-0.2054668376042941
7.125442078,2.499501850187653,1.2453623076763454,3.2004785299204643,-0.5990455972309348,0.4193679326105838,-0.21617871649590434
7.225356542,2.7543240695298303,1.0582604752212073,3.244138946872199,-0.9181685645080343,0.4182761298261404,-0.212241294459493
7.325364694,2.9834812173165237,0.7887980227997882,3.2807936589509765,-1.1045639898508037,0.4445310323148104,-0.22444821052900218
7.425345786,3.0950720071295477,0.5175007801007252,3.327084494821928,-1.2731227589231309,0.4773057658173213,-0.22735083136915216
7.525355971,3.226383219040232,0.17012089276918643,3.259026818519947,-1.5726197560718855,0.45193416002478937,-0.215823440204868
7.625346116,3.2235037395805715,-0.13181850457678854,3.2833791452718706,-1.7393867676093275,0.47703712283926825,-0.2195721877858144
7.72543704,3.11324249030679,-0.46484979062368237,3.3806015299048235,-1.9535986178291163,0.5048485757362247,-0.21450507284466136
7.825343878,2.965687250552891,-0.789665223294907,3.3806956516951288,-2.185974523584956,0.4776863716119,-0.20377143496740122
7.925368079,2.7394161497844287,-1.1249195494039674,3.3954472636563233,-2.3583174505335824,0.46531215549437344,-0.20280266662856888
8.025344362,2.489179572960237,-1.247096912967576,3.407476274953578,-2.6569806721188534,0.47167437266219714,-0.19515755990159558
8.125336238,2.1614296203348893,-1.4903735715755728,3.411112920957887,-2.8518147530922917,0.42796758956831604,-0.19986578029682128
8.225344648,1.8934382079960412,-1.5220376783100522,3.3972963734090427,-3.093763851689165,0.39432127060065514,-0.18887574401936816
8.325347076,1.4587192385612215,-1.4959491260495374,3.3532387719564176,-3.287934982835467,0.38346440470128634,-0.1984796424723568
8.425345258,1.2015359096954183,-1.44821703799474,3.3784388386431226,-3.4601278595805947,0.36331319853852795,-0.19754442426994676
8.525345537,0.8351370710168823,-1.2851833365634457,3.2839223614864403,-3.697003653705335,0.36283913063849826,-0.20107891113434637
8.625344656,0.5472204188955397,-1.1331146550339373,3.2844942557732577,-3.9241208237415104,0.3831218242644202,-0.19162646485303997
8.725345397,0.3574173544979747,-0.8438164501292017,3.310469009965406,-4.126801482774559,0.43996842312766954,-0.1705275280162496
8.825347028,0.23893918315980678,-0.5557933003805768,3.4539170070000873,-4.3067638471516885,0.5031197394224014,-0.08628571256627565
8.925347327,0.08431122896801752,-0.29942657042957604,3.6186237623215187,-4.307275599454895,0.48652153899169087,8.507574179937669e-5
9.025345803,-0.04429214748879974,0.06181425791544265,3.7611255933026957,-4.212705398520123,0.4208574289338953,0.06206168172902894
9.125337338,-0.29712575626681775,0.431237935148495,3.819092413762918,-4.120335230078598,0.31339814916557673,0.10099432245826216
9.225341947,-0.4849384030098098,0.7052879927146308,3.7863735257788482,-3.9955880330738744,0.23973745818432635,0.12438528991498327
9.325350649,-0.7360246658251998,0.9503662223255259,3.6796880321046164,-3.849537871278655,0.19847429790615542,0.15283112789748632
9.425389941,-1.079465813658219,1.2002449060871343,3.488264979787622,-3.5838293571070463,0.17948146581853963,0.16247371323085064
9.525348712,-1.3257094219658394,1.2734250380499068,3.335187098769535,-3.3307359796558806,0.20571287946723169,0.1686417053904449
9.625354158,-1.7023634632803821,1.354176985466667,3.2518415745325724,-3.1043522700483517,0.2646824185804638,0.1701808019595997
9.725450031,-2.000977594093953,1.2660902287235791,3.058986020019587,-2.8600761852981904,0.2998529227804492,0.16805713064048627
9.825345772,-2.2551912627589017,1.1894011427173403,3.0605798664373833,-2.7118575749985623,0.3489309591586936,0.17834853345318946
9.92544117,-2.579130768067889,1.0195434633281915,3.0664885789334853,-2.394654843261344,0.39915823341814566,0.18831466715806663
10.025424914,-2.7424524156805075,0.8079229595659215,3.1347130534023773,-2.1493882399821413,0.40685726775364045,0.191563941386881
10.125335498,-2.9060530779731355,0.5394008598655363,3.079865908969644,-1.956970697337233,0.4164117177335039,0.19694486783658732
10.225348165,-2.9641812443847786,0.25060386260902956,3.092528291768725,-1.7523517489024878,0.4328355391551993,0.18965198691869434
10.325347023,-3.014591906943668,-0.05791341720895171,3.088574594857068,-1.480219964220307,0.4252132309904441,0.1920700609060708
10.425354569,-3.0083561945032855,-0.3228087995305557,3.1957063799825645,-1.2604170968798312,0.42203930038586346,0.19605275530162355
10.525352833,-2.904445669795239,-0.6222091855261788,3.1769856352987516,-1.0903830176877771,0.456641197961077,0.19349402851428907
10.625345007,-2.666562697937553,-0.9155864845357278,3.205828619421831,-0.8164841888032909,0.4593448628648334,0.2074249265773429
10.725343176,-2.4764645432634733,-1.0957123705646525,3.2490069138736777,-0.6154951045959514,0.4427510235565995,0.20637313548541666
10.825344101,-2.0991331425604263,-1.2868099880085937,3.294146915941263,-0.35824037626943456,0.4553216458852015,0.21136033586024383
10.925371182,-1.8773144053563662,-1.4134718365465908,3.2728347495617514,-0.1578353374201352,0.4593510791160511,0.20779471296416363
11.025346965,-1.5322355970835533,-1.4876458887451736,3.273738952692404,0.09153986715703767,0.4356916632269237,0.19260047807032663
11.125333871,-1.1785670035635551,-1.3918014242287284,3.3366385046796094,0.30442677139754315,0.4272584267917479,0.183031090705862
11.225343492,-0.8456571787515014,-1.2799023339566706,3.2708540245967623,0.5220336681387389,0.40779574303772775,0.18839166836414278
11.325358604,-0.5801325394730837,-1.1009414790248269,3.3360527607560115,0.723891516209134,0.3947493654901807,0.1923462696773427
11.42542347,-0.3800792193187847,-0.8069071927659411,3.257647361987554,0.9688858301308179,0.4243758122473044,0.1640974375664557
11.525423570000001,-0.27814330529820724,-0.5347793057859357,3.351599170550845,1.1874043325674422,0.4780764661200076,0.09578680502660081
11.625406314,-0.10887690597173424,-0.23128230136103642,3.40081143040237,1.1977301735152963,0.5009855288513687,0.005657043019917783
11.725359794,-0.006532155664570674,0.10559293079496677,3.6360495679984144,1.1854921554253266,0.48873059575605654,-0.06558863161402954
11.825347163,0.12984128284573287,0.4536570684756657,3.6594506758466108,1.056567327880321,0.4175006529371391,-0.12453168654999115
11.925350008,0.36004522113378035,0.7270792685263012,3.6632339280992374,0.9066873992960931,0.3612162037456634,-0.15569836412328097
12.025370977,0.5893611920857829,1.0050504347051128,3.64624504106087,0.7935646409068486,0.3328921190042846,-0.17466547310156225
12.125336549,0.8975070253584128,1.2229284937351625,3.578039017084108,0.5502233642199497,0.31842640132580646,-0.18674241796470806
12.22534992,1.1926395880362501,1.3725187285247662,3.4623544804797812,0.367677676426346,0.3183092055486883,-0.19103186727999472
12.325346644,1.4903124123292988,1.537471384222848,3.351446549374418,0.12195522619946393,0.3375566778298475,-0.19752391618344034
12.425362747,1.839729812941166,1.570411207343179,3.35683180782842,-0.09403248615141829,0.35415371828697856,-0.20727899871253955
12.525343234,2.1498050264210793,1.453707642620705,3.258273836251441,-0.3706817221167,0.36791181099905335,-0.20576338157007393
12.625346897,2.4736776096831368,1.2923198950966983,3.2898916750292018,-0.5188713153796409,0.41461310023116,-0.22252732515872745
12.725406328,2.7247633189366476,1.1493039029109076,3.2551312833125263,-0.7756407797784716,0.42802534248287316,-0.23092693339255882
12.825343359,3.0024543649165194,0.9470311047039058,3.3059623248759413,-0.9786989649561726,0.4351183215363747,-0.23162615937718917
12.92535045,3.0786048719177894,0.6340226178190667,3.318889019718366,-1.2178043096938653,0.4572739573301832,-0.22813849289133747
13.025346891,3.2095744583350765,0.23814478565425007,3.40070133805225,-1.5465409564028478,0.46852093957707025,-0.23421146965575107
13.12533656,3.2385643649909204,-0.07157643065101929,3.370385098604675,-1.7216761333688881,0.48088402724186924,-0.22449878480977628
13.225360005,3.125998343868017,-0.3628878421167072,3.3770403865069873,-1.9040587738655126,0.4864435232723696,-0.22211096361912153
13.325361381,2.992958671164288,-0.6676121867531459,3.3936391320694637,-2.1602716325332936,0.48386263812548386,-0.22208352807318252
13.425432799,2.7845559973927987,-0.957892328889443,3.445880441147916,-2.360801783971997,0.4618876572151079,-0.2125262439346955
13.525353968,2.495653964403395,-1.1762288219737311,3.383271899392631,-2.5738810395515275,0.4481524159791996,-0.2071594323503275
13.625437682,2.2370532933808995,-1.3269133748550608,3.398173370065264,-2.810410014547396,0.43550950927980814,-0.21114776856402437
13.72536184,1.9163664406679894,-1.4504385187281612,3.4091253276597624,-3.0167645285198916,0.3839162163190106,-0.1978590903065294
13.825454321,1.5881585373164977,-1.5212586759078048,3.405519448385092,-3.258332661123909,0.38386382705789845,-0.20458210156498463
13.925354456,1.2413341950033503,-1.4299185707768975,3.341928660601198,-3.5140842848056306,0.3626081946860977,-0.2010409391658533
14.025392534,0.9002064378465491,-1.3031932574871168,3.286603438177574,-3.7051164422110907,0.3564864633958186,-0.21027531776462044
14.125337307,0.5802275665347179,-1.1463178170932606,3.285972014305922,-3.9091494714014017,0.37416066705507545,-0.20300344457330366
14.225349485,0.37090511479843774,-0.902936236164787,3.272922079416737,-4.106157271001365,0.4221545508020002,-0.1797488472840549
14.325435159,0.25045047572397516,-0.6149812494471343,3.4517737162525264,-4.226730394975856,0.488530477021798,-0.10153097527493532
14.425356278,0.06805715129807409,-0.2837616000453141,3.620353683472173,-4.245124139727355,0.508651254873295,-0.0032368384105547774
14.525356115,-0.09608040685327203,0.02895240916161307,3.757795712940977,-4.269448619499085,0.4212597068408661,0.05360345125921796
14.625365005,-0.3277682459957927,0.3155917660521399,3.8270326080669252,-4.1259093266088,0.3213684488016878,0.09209486991867377
14.725341735,-0.5165574191469964,0.6387948366903206,3.777780297324226,-3.9815812075970096,0.24804620002329283,0.11893577114887374
14.825348958,-0.7313116487163916,0.9333544308131365,3.682250175456405,-3.8333183986710155,0.19607328743431426,0.14364677706938012
14.925347644,-1.0824655912462733,1.1183465628098044,3.4998675147572333,-3.518333475948494,0.17320207521659706,0.15897188265174805
15.02534328,-1.3267301384209045,1.2430248832431707,3.348115464917086,-3.345341265159324,0.20288263529228606,0.1523382878983241
15.125340508,-1.7290684576224316,1.3357829892389455,3.202056711880407,-3.0801202408759574,0.25800868100140173,0.1546888143241777
15.225359202,-2.0206014064780997,1.33737862369821,3.0817411501592025,-2.8695109692244176,0.2995049585046937,0.16507175939781438
15.325358607,-2.289770487973766,1.1552180680488895,3.118706598577283,-2.6311222720106433,0.330792790977565,0.18254341886406375
15.425371903,-2.584125609181702,0.979654097701778,2.9979209462648453,-2.380392268714255,0.3825266141871819,0.17779712676042833
15.525360684,-2.760523891108964,0.7663876463391868,3.034763247660953,-2.190926181485596,0.4132304997395299,0.18883532410380968
15.625346487,-2.897637526305204,0.4845850826993334,3.1368379950685332,-1.987288920278665,0.4273335627375012,0.19455728223466662
15.725346074,-2.9647115277990084,0.17270423164452442,3.1613453370776194,-1.6715765442988813,0.44413883843506274,0.18615297078791526
15.825347709,-3.004282494395253,-0.04433505177165568,3.224924308512098,-1.4836943139854515,0.4251821160114235,0.1977592328229543
15.925343875,-2.998584146153739,-0.3370924739875576,3.2033173053429485,-1.3005840485379887,0.4165292916884966,0.19875029101165595
16.025407819,-2.8893783880104382,-0.716712852335831,3.2117345533775303,-1.0790712507650266,0.44251454576158195,0.203785735866956
16.125339086,-2.712547209369351,-1.0407343088898486,3.187483729897114,-0.752619885629248,0.45853914070673185,0.20415935599440166
16.225344862,-2.4464910504109603,-1.1496077798097633,3.2299481002365287,-0.5758564443421076,0.4591450374333614,0.20010590227619346
