time (sec),x position (m),y position (m),forward velocity (m/s),"heading angle (rad), from x-axis, positive is CCW",throttle (unitless; -1 to 1),steering angle (unitless; -1 to 1)
1.024917349,1.1282876528499761,0.931185647627944,2.6636957908370738,-0.09071069454868355,0.4873377567003114,-0.24839508968399873
1.124914719,1.3224424320464265,0.8291922724860049,2.738560998247101,-0.32669378487574535,0.44517993126517874,-0.2369352443137456
1.224924049,1.6029555112332616,0.7495042573090774,2.8463960662205854,-0.5409707069265554,0.38829000155753757,-0.21449901641881317
1.324979998,1.7799994204780831,0.5554348956660069,2.872480188905989,-0.7371140039282766,0.3481333604468684,-0.2181464658121069
1.424914861,1.9386862323681837,0.3034273543776675,2.814149324106878,-0.9810445377125606,0.31820888288238747,-0.23491133654323465
1.5249135310000002,2.1327901067545247,0.10944644683813318,2.7821399261024493,-1.218510238188431,0.2916780506445651,-0.23643661481428133
1.6249184040000002,2.1604270421911056,-0.14359704344409407,2.6913252249726116,-1.449541794465611,0.2910000418301033,-0.23674144647719844
1.7249161480000001,2.1490337364996006,-0.4750500108927097,2.623708219744713,-1.6799537477034225,0.2897671332618845,-0.24812030212998762
1.8249148160000002,2.110418341239501,-0.7446659605943178,2.6313977125717662,-1.911913457031494,0.285436427956887,-0.24848910063263932
1.92491748,1.9509168483547603,-0.9253868996910054,2.647937363235244,-2.1522197114986534,0.29883431629730317,-0.2508267320529497
2.024917729,1.7984748742451344,-1.1491129237229591,2.7137099837717713,-2.362571857540161,0.32276815722943103,-0.25979843168928035
2.124916045,1.5337199127392882,-1.2589727964009447,2.692264485943159,-2.6012577688846186,0.3189097525177068,-0.2632415034933234
2.224920549,1.3291676243620967,-1.3610229155186118,2.6023440604881647,-2.866877109969843,0.3260433339201635,-0.2590722417874977
2.324933097,1.1031456043535848,-1.478761663822098,2.587234952879959,-3.1624690288257766,0.3627768589944755,-0.2753669103711372
2.424914935,0.849732554170131,-1.3942828497897528,2.671740524803555,-3.3054209012557743,0.35817922107815403,-0.2617549198464065
2.524915966,0.5233261325864547,-1.2767000468067367,2.6836536715889427,-3.626790404389839,0.3761408925334351,-0.2553696653213153
2.624919081,0.39887542119692737,-1.1846356875745465,2.736696271774207,-3.8102085594326986,0.40544423583564226,-0.25140671398815506
2.724926552,0.15232789873092706,-0.9795629398575619,2.736626367397296,-3.9902564394933435,0.3952264372973602,-0.24324257162252216
2.824922166,0.00029244377463997356,-0.7377181577050963,2.79220877160029,-4.2686670444061035,0.4115228021691591,-0.18816116437854982
2.924916318,-0.08618899563862532,-0.4237707173473251,2.995995063922915,-4.396277062611482,0.3926624840642605,-0.08358435948660468
3.024930914,-0.16947950904538575,-0.1192139050038781,3.1141510644438237,-4.413690561716433,0.3482027920759897,0.030293159540544377
3.124918263,-0.26226200777456526,0.12990535749445378,3.141659290917973,-4.362638136370239,0.2911803854600845,0.10370038221634365
3.224992035,-0.42450581457447467,0.3724657382266495,3.1332329790032105,-4.238739964684691,0.2794727011604127,0.17085892503875352
3.32491431,-0.586041261502492,0.6518642086552036,3.0527345468523834,-4.022334379297613,0.2431805763357729,0.20234172439993547
3.424935166,-0.751873078933873,0.9029367635432565,3.0551177038305095,-3.765017616601086,0.2369358541073017,0.22686652998520315
3.524918243,-1.0112095767059164,1.0287522883305107,2.980824639807007,-3.5962922920648555,0.2792271188237591,0.2400332759232244
3.6249169290000003,-1.3827205850074873,1.151091784196993,2.893384374645484,-3.4031734845230788,0.27357629242223075,0.2526026618905284
3.72491675,-1.5963897912744285,1.2197549654783415,2.823221138598458,-3.1636151066053206,0.3065100662566115,0.23677100120127823
3.824920936,-1.9000764037490665,1.1674648586056737,2.74601732035488,-2.9435452138857534,0.3243551935534359,0.23702337572660526
3.924918072,-2.1047974421386244,1.064019445375446,2.780364706787361,-2.7136968471154033,0.33188551200050453,0.24537739218762744
4.024917056,-2.353709057955595,0.9107104490289012,2.8178579136404984,-2.483819295585454,0.33160850282674503,0.2419413287374051
4.124917825,-2.5598462434375966,0.7219171112368563,2.809330454679851,-2.2622928107458353,0.35368768216818675,0.24368894564652696
4.224918912,-2.7257572886267147,0.5020835788168765,2.7684340562401073,-2.0164273831476125,0.33912024862258744,0.2478443998676615
4.324916964,-2.8588260171612814,0.1877667246754169,2.8121978243864127,-1.77854977731721,0.3455637572205622,0.2639173240861026
4.424918809,-2.8592054271562968,0.018089275364749316,2.846657742722231,-1.5826678698082417,0.35561604860359985,0.2510330470077337
4.524915937,-2.871237381228112,-0.3790446264070119,2.784352735666348,-1.369365056340695,0.3669666473367048,0.2568951376959205
4.62491435,-2.7472276334675936,-0.5893734477508434,2.7826890010512644,-1.1008792832081364,0.36501538930941924,0.25372798811791303
4.72491831,-2.6225331382904282,-0.7945663923256032,2.8680012907644756,-0.8602655070951164,0.3652248588360618,0.2498707148641046
4.824917597,-2.374194610262958,-0.9961155327811683,2.8433628259294514,-0.632577561411448,0.3782166766569954,0.25244509209652044
4.924916886,-2.174896410658627,-1.149879334003174,2.8211837046582557,-0.42712926490969744,0.3594762632403069,0.25367822123245604
5.024918613,-1.8546591333340063,-1.2305342423173418,2.8729575907118425,-0.18182409454727602,0.39722802027001664,0.2571697578965943
5.124918327,-1.548326590678741,-1.3463198811992938,2.8831833913013267,-0.01919171410140027,0.3516727889095313,0.25060880776485084
5.224916149,-1.2547205399805106,-1.2529377244081032,2.846252598429444,0.2538022543967792,0.341720476867827,0.26453395946098945
5.324941029,-1.0121427795319375,-1.1895894732739964,2.83180358869187,0.4861863031644057,0.3733371034214187,0.25852123505337365
5.4249200890000004,-0.7934213212132512,-1.0545969859186082,2.8028958100504497,0.7194540838509885,0.355871022236049,0.2457779803751957
5.524916447,-0.6102112195908683,-0.8014254719801964,2.81054117019313,0.90314331537066,0.35480541485199985,0.2541659834866381
5.624919987,-0.44469976190091526,-0.6112550873864574,2.8930157518277104,1.1220001439881264,0.38185043440046923,0.23142553576801705
5.724967201,-0.3202611155647453,-0.2790098555269013,2.9561315414358753,1.3271266104566666,0.39148278667368885,0.06311928110452682
5.824931319,-0.26304806068358844,-0.004625583383924218,3.0590914716786184,1.2335804328102131,0.3900143947693368,-0.1074822621921315
5.924916071,-0.15774331764823493,0.2325082798478533,3.0875744844567534,1.110166327773814,0.36788691578205,-0.1572446660682719
6.02497046,0.044727658182689756,0.538603001054145,3.0904517582031383,0.9845024875321376,0.3138925979158502,-0.17826511040855839
6.124927307,0.19960400193000036,0.7404625493743645,3.0531089714801447,0.774005719827313,0.30430601916183014,-0.24212150285383852
6.224916148,0.5027626237797869,0.9498112143292214,2.971072535761228,0.4724541531589396,0.3247215336464406,-0.23050310537526392
6.324994082,0.7012197738458876,1.071489449854156,2.95693468929244,0.28004205832366286,0.3536057403701455,-0.22086457747552202
6.424935529,0.99552892485697,1.0597977764782731,2.8941716517531066,0.028057714144243746,0.34771318544204377,-0.21018331558763892
6.524943506,1.3160272833359543,1.067906299697653,2.939696469002235,-0.13636090506829754,0.3490871511460898,-0.20456915275876902
6.624916937,1.613793430888453,0.9874040112414495,2.92494407221705,-0.4380180982964883,0.3391603930793913,-0.2194747025831101
6.724919079,1.8535015492883806,0.8333856805891031,2.9126578461125288,-0.5667785191877488,0.32664832786767045,-0.19257371933537754
6.824917114,2.0782676502726627,0.7270151189957308,2.9316696733462417,-0.7786100925676686,0.31579436361970403,-0.22784210716089404
6.924915578,2.2517201717005872,0.4431333693757919,2.890585180606214,-1.04131558760264,0.2935692696734946,-0.23776572416405123
7.024919295,2.311554612565087,0.2032118772974055,2.8242968872367507,-1.3018301774807521,0.2872971519813604,-0.23983573598089888
7.124916832,2.366374436787742,-0.025824902517819832,2.740209970918433,-1.5214252163906035,0.316053710964714,-0.23465234029907964
7.224921674,2.3411513590218695,-0.3282198021190136,2.7847629211425624,-1.759079743203205,0.3053651151295678,-0.23345261993138622
7.324918744,2.3087320970316942,-0.58714846149978,2.7030660642574222,-1.967363913349583,0.30445679794015273,-0.23976590668257858
7.424917647,2.1072753629444776,-0.8479263794188772,2.7461338508449518,-2.1937247234006954,0.3226470562444404,-0.23085467042431138
7.524932046,1.9588362844828995,-1.0739786835096974,2.736085644694626,-2.4121179676270526,0.3284062441211778,-0.24014444911962834
7.624999731,1.7485428095807256,-1.1710173959805215,2.681693812734803,-2.638757754875652,0.3224421287384978,-0.2460504965986867
7.725001806,1.4584998053514817,-1.2585365815597347,2.701629750917065,-2.9402924642655646,0.3278126026077346,-0.24318262921022352
7.824921663,1.312831659380912,-1.334835364495194,2.700537774771451,-3.078626823899572,0.3589574696835272,-0.2479671194107379
7.924914345,0.9371678663837832,-1.2776121337089992,2.718166900327937,-3.3400576044387114,0.3371511640005944,-0.2529899672862373
8.024929342,0.7102922691592719,-1.1608400049332381,2.734647665324528,-3.5753157793160373,0.3498924911717244,-0.2399023821785007
8.124962443,0.5121186814559291,-1.0218851539790916,2.71401429054989,-3.8219174931679327,0.37073632832232084,-0.23528198376661327
8.224917149,0.3457563553973129,-0.8487339367939302,2.7878214060261595,-4.047609130793202,0.3721313380913069,-0.23469355162682126
8.324914697,0.18135976923835262,-0.582803596230794,2.8343418166654426,-4.203000516828698,0.38803994207562803,-0.1765830801676188
8.424982140000001,0.06735322928553536,-0.32850628656373604,2.96272061437802,-4.4181873254136015,0.3786426828406941,-0.0791791698351727
8.524917377,-0.055334624991790315,-0.07835277313386144,3.0422933670350125,-4.380726065418993,0.35066708760401455,0.03565593087997876
8.624937905,-0.12812906135759677,0.24127379972062482,3.05029170062134,-4.329954962353268,0.28782235375031423,0.11374568948653714
8.72491647,-0.26378261931399516,0.5360701147776135,3.0883004098656217,-4.21476445736255,0.2802268936137723,0.16641483944240298
8.824921585,-0.4076883485421403,0.7350958261008635,3.0913734920353892,-4.033661999671097,0.2591720945718758,0.21000433821804543
8.924928761,-0.6505924524080415,1.0204847610484353,3.0063567386156045,-3.784029959383865,0.2544274493140445,0.22967408824019958
9.024915325,-0.9464059985161863,1.169989153791742,2.9382090052162306,-3.5756076865280657,0.27163572948050874,0.23252522057115366
9.12493167,-1.1910618937408628,1.1820158784755967,2.9155463680977167,-3.3054816079644627,0.31136732723201144,0.2266302892221428
9.224916253,-1.4111087323943488,1.2686322291217145,2.8653875219535165,-3.0896503062591254,0.32535567159899287,0.22779282161383216
9.324918253,-1.803875182191391,1.2508384753949118,2.8674738845061745,-2.8998762030978615,0.33247906720270437,0.23279027563388963
9.424918793,-2.040767024606068,1.1535587567064296,2.8803342210634666,-2.6576274614090587,0.3419432335435692,0.24594119085113664
9.524917555,-2.345364662772761,1.0009979669489832,2.8634754585906315,-2.4513302278239877,0.33673935847873726,0.24541581740084942
9.624933491,-2.4213968394019036,0.7893587189131905,2.8709019603090082,-2.2242439284562088,0.3415590499573924,0.24047884501907174
9.724918224,-2.669297642670602,0.535771125550813,2.863069649875724,-2.0131867102651975,0.3568733321526039,0.2531990240476148
9.824929916,-2.7042257072014784,0.3049893877204102,2.8645161549375286,-1.7993449650772133,0.3436224398076175,0.25360418615267877
9.924916296,-2.748254396624437,0.007704578141915264,2.8403445564868477,-1.6026400774363216,0.3446320339626783,0.2568657833252315
10.024924494,-2.7302908736019518,-0.28626435983518544,2.8273422514771105,-1.2899812876409265,0.36311164528049156,0.2685116217540612
10.124917372,-2.699672699171597,-0.5526826303489782,2.826291245827082,-1.103821282418061,0.3611862046074207,0.2571543220122133
10.224916708,-2.5373651411718763,-0.7908118499207444,2.84950491689919,-0.9173626769163765,0.36567136133371353,0.2496555481957439
10.324915725,-2.319790025710724,-0.9184445820225733,2.78640259363364,-0.6840192074289677,0.3650159421217603,0.2443001009703307
10.424915727,-2.0917460952659535,-1.1176307498927627,2.794185653265752,-0.4258263409109543,0.3597616103086888,0.25618716445729334
10.524913852000001,-1.7862225398668599,-1.2266400002346987,2.805665814435459,-0.21690693986460635,0.34947673050813444,0.2571722313444273
10.624914799,-1.5335641099047346,-1.262508367685759,2.880268637842721,-0.0033576967055342077,0.3557562557660244,0.2620515553033917
10.724914669,-1.234559024361114,-1.1929749687639057,2.8198813386457844,0.23093658010851464,0.35756095871521487,0.26254338748693684
10.824985513,-0.9904740689870453,-1.125872019141724,2.774140340678774,0.5156053887098244,0.3541907811157556,0.2506316597194722
10.924933867,-0.8415281726176623,-1.0302210298218415,2.8291902976070986,0.6259605023777783,0.36406271069768353,0.25210185485928427
11.024921882,-0.5601695400927229,-0.7443044266162683,2.8052584849067133,0.9033955876540719,0.36457580774860926,0.2547423348583795
11.124916839,-0.39490469834641156,-0.472380738976671,2.8495675573579633,1.143626893955207,0.3859542845162456,0.16062639850429902
11.22491949,-0.3060539703495466,-0.24500830462886453,2.931515688466764,1.1925850266104656,0.3952719281504532,0.025643729593603767
11.3249168,-0.2182341511801496,0.06574945387548994,3.0310821476212877,1.1799767059158457,0.3804288128741326,-0.06908142341536808
11.424916364,-0.030073816776153468,0.31196859521870146,3.123592347158945,1.080809523935777,0.32139515747696995,-0.13407428856683581
11.524914981,0.10859447184469917,0.5255784013378466,3.0281777769495632,0.9046549436710427,0.30505072211394224,-0.18319423088957004
11.624918415,0.367842893676193,0.7915985108121331,3.02676944165505,0.6777715109282276,0.3131583817825024,-0.2023360692556824
11.724924906,0.565606241418757,0.993353021423805,2.9889684483902106,0.46087060850171224,0.3021408533895112,-0.20374497636507044
11.82491535,0.9173327000590392,1.017672063579796,2.8922384062339197,0.2750209490614711,0.31592290270723455,-0.1999960025619063
11.924919417,1.1503890184778722,1.1008588981900642,2.929256126465591,-0.04478793482357718,0.32141020837306383,-0.20580656709781614
12.024915984,1.447647269956089,1.0433946244074377,2.888641365581585,-0.1586178706281173,0.32190336938610953,-0.20646673371327817
12.124914848,1.7051560301582482,0.9303408190069877,2.847049881217516,-0.40409122619148363,0.31382568173036196,-0.20488139979334719
12.22491933,1.98830329627234,0.8399972536756813,2.8574899411584433,-0.6009415957222258,0.31105775914219136,-0.21345161635818238
12.324980002,2.173997756715292,0.6252607341918686,2.8230507170223658,-0.869827274970027,0.30442278853369265,-0.22180261970132545
12.424917399,2.3171568763251926,0.4458046066541383,2.798302729174797,-1.0616270540485173,0.29782727865281644,-0.2221951966314699
12.524919251,2.42236158413711,0.20477599764947915,2.754502010934629,-1.2423818702049716,0.30947127873700553,-0.2145887224096158
12.624915566,2.494887116934944,-0.13643618593897575,2.81101783872025,-1.5101610195873505,0.31162985533198073,-0.22507336641971384
12.7249138,2.4847996973903315,-0.4296798377634849,2.717994872644508,-1.7410001747588233,0.30010731997465656,-0.22051312474396242
12.824917581,2.3623592087117893,-0.6353174468521949,2.724076030763989,-2.054226924324102,0.31149032354757344,-0.22297223139585068
12.924925948,2.1966281836460575,-0.9239117823106285,2.7819182522820927,-2.252034066197849,0.323920010236728,-0.22934237733404242
13.024919261,2.042442116627573,-1.0648797590928563,2.7044213493607554,-2.432699478565952,0.31771563799415264,-0.2261655878257121
13.124913136,1.8203275372125005,-1.2373499669002255,2.705331826877033,-2.703045848106198,0.3593604670751333,-0.24545740696545745
13.224915467,1.5655704146583602,-1.3168405433590553,2.7964587102777987,-2.962974613438615,0.33395261458856607,-0.2361639554417131
13.32491589,1.2499355958081864,-1.3734147469479856,2.756590773549311,-3.130521262751302,0.3363353578840692,-0.2303543078768829
13.424918419,0.9737932483626666,-1.3063480233960032,2.7003032512511096,-3.4278256033834986,0.36600499029791544,-0.23398588016314414
13.524942946,0.7356851517790434,-1.2381113244638111,2.7757840313254714,-3.64474431475781,0.3491717009369013,-0.2393557317975384
13.624917994,0.5068099545012664,-1.1113029878962912,2.765134250474348,-3.853176022920373,0.359656809029921,-0.23581513300953422
13.72493947,0.36178237178818395,-0.8386873294287952,2.68156293189325,-4.0955847198874125,0.3920483227397067,-0.23151538273068822
13.824922355,0.16668253954952672,-0.639695595515353,2.81218315224732,-4.314799966458305,0.3808146160950868,-0.18386076917286484
13.924946156,0.07556911384231624,-0.3880625729641555,2.9122051574226857,-4.420616014887923,0.3741103685533364,-0.07683470894630463
14.024932212,-0.009146710437617878,-0.0461089171078556,3.1534826136540617,-4.472139788349814,0.37456203003831956,0.05664028350502119
14.125015812000001,-0.1144576114798631,0.25641910982927874,3.0974297991772923,-4.349477242734334,0.3055046110131754,0.13248394888410092
14.22492534,-0.18686040536153853,0.5704652137017419,3.093021483134132,-4.140596963952082,0.27055172884463974,0.18284255857904608
14.324918601,-0.3569310238892291,0.7630078713294903,3.045973084407022,-4.087863656495476,0.2618381869557882,0.21642162377675347
14.424927704,-0.5925417167321425,1.0001262877980206,3.0339937225256555,-3.8375821856625754,0.2731372800336236,0.23370835358342645
14.524914539000001,-0.8417559245917593,1.179553299234263,2.8636179139016305,-3.5670129196184264,0.2775931164296104,0.23265984110667345
14.624921239,-1.106882248932258,1.26204374553215,2.91688720528048,-3.3357966667163597,0.3417071574770682,0.23761876610441648
14.725005778,-1.4381358161482791,1.2992941896396126,2.9131800988116665,-3.1835241327551285,0.3325469791565705,0.23323905285030047
14.824913556,-1.6090351367747096,1.2601645238403443,2.947377167141412,-2.9227920143437935,0.33393403125044707,0.2381386563196724
14.924928948,-1.9558910217513228,1.1132214148698583,2.8837393832549276,-2.6690297913414214,0.33990051052992976,0.23813558355188247
15.024918107,-2.216937574737634,1.0221232853590394,2.8552793274822164,-2.506098602658547,0.33713143164869763,0.24469297515926086
15.12492808,-2.356522347332121,0.8275064793920092,2.862086335979291,-2.2693430238364316,0.33747747112503185,0.23905140005467584
15.22493587,-2.582163217778315,0.5710757381918308,2.8518485365729935,-2.0280583528961142,0.34103900383103625,0.2457019701274467
15.324916396,-2.7039140064891325,0.2610089651580232,2.8435459210942704,-1.7646381478310977,0.3460980382439588,0.2536770610132279
15.424914446,-2.6542943969239565,0.04517795394907069,2.8962485220727348,-1.5500953063647513,0.32697422586185576,0.2531306249686788
15.524918769,-2.681498003792801,-0.2529770387277925,2.8632401807086127,-1.336345236291318,0.3364654844683473,0.25559033391730623
15.624930468,-2.584028007708393,-0.5461681220139352,2.7949140144849207,-1.0320181252332785,0.3544974053108828,0.25676061063369277
15.724913761,-2.430438079797129,-0.7688750039438962,2.7914325633633905,-0.8769253799310583,0.3494796395649511,0.2513916094054698
15.824914842,-2.2051978047577045,-0.9795278678036444,2.808098779373166,-0.658692360503053,0.35399198703822254,0.24868646574601375
15.924917006,-1.9666975282492392,-1.1025825410891326,2.820200501693627,-0.4800873745113884,0.36746384946573835,0.256583969786385
16.024916491,-1.7460837428127494,-1.2129091637535812,2.8069020037852708,-0.20511105335099636,0.3459693099489819,0.2541665336560464
16.124920428,-1.4651223320830649,-1.2548070188093525,2.7990402624032424,-0.0035934795988182217,0.34536290907682876,0.2609456720571447
16.225020798,-1.1523524233231128,-1.2109460641806489,2.8441917367992504,0.284355928178221,0.3598067883835753,0.26394217754527804
