time (sec),x position (m),y position (m),forward velocity (m/s),"heading angle (rad), from x-axis, positive is CCW",throttle (unitless; -1 to 1),steering angle (unitless; -1 to 1)
1.0381724860000001,-1.5525445462724876,-1.204359331184005,3.045815878850089,0.06846020781734075,0.4457232230386862,0.21473790244958665
1.138100522,-1.201413597400204,-1.1006995116049176,3.0857217627025806,0.35365599785587437,0.4708845273262964,0.21290750245521303
1.2381031120000001,-0.9222011073414016,-0.9707874319954395,3.1474989236877025,0.5246490497360573,0.45878540759178177,0.2102176200494974
1.338102213,-0.6302882371939171,-0.775555518218482,3.147464117295998,0.7617112003662048,0.45048731950787463,0.2067056946793942
1.43810044,-0.45909009403923523,-0.5812832666108352,3.1959511340803832,0.9910851792978516,0.4625843111765625,0.20021627978000497
1.5381074460000002,-0.272026515036349,-0.32143522058793955,3.3277358453296046,1.1200240058271356,0.5388498836013905,0.09385233933468176
1.6381374750000002,-0.14926584890022512,0.039385635542531806,3.5333375094488773,1.1873512221265174,0.5426766126789582,-0.00412162732668947
1.73810228,-0.013687149823230011,0.33206503334629034,3.6336050828173074,1.1500453098558565,0.4910523442376935,-0.07158762784846394
1.8381064720000002,0.19735925796044285,0.6679771858125673,3.7102224513609157,1.0116760777593579,0.431235638091386,-0.11450070529527666
1.938094413,0.4151386036781682,0.949728612163493,3.7766113158366723,0.8808216191725546,0.35862811345185114,-0.13624385596354732
2.03809506,0.6189807748683306,1.2548328311342682,3.666990532132166,0.7529266055240955,0.3089912072310178,-0.15641347357890562
2.138101656,0.910742075836106,1.4747177037223107,3.5239693954924345,0.5009261258273663,0.3118363295898144,-0.16836897187773717
2.238099862,1.273859964195993,1.6805250551407682,3.406840081853302,0.3251479730222046,0.2897188200669323,-0.17094152986650213
2.338094486,1.5444212757039735,1.722416897235607,3.2745808803363095,0.08216122465200687,0.2963884927227663,-0.17341552208685454
2.438095646,1.885500825708441,1.7138509796052934,3.207532733167038,-0.06274356434644074,0.3056222880376213,-0.1881575224849369
2.538104793,2.1974538447664513,1.6754064167270915,3.120227002939097,-0.2937010206633838,0.3051537895334094,-0.20375178482810785
2.6381045800000003,2.460328873547836,1.5383551960894883,3.016172174538168,-0.5323248164926918,0.35192396643745466,-0.2211268835718828
2.738106415,2.6488044984650787,1.3925488475277914,3.0438881707399967,-0.715892731406461,0.43478769459872074,-0.23274443705168849
2.83809838,2.8784657405663983,1.1398662918487676,3.0085034936729063,-0.9745416258802156,0.4813049294795586,-0.23526295947126305
2.938125842,2.9585912776154664,0.8481145481513053,3.108746609860163,-1.250732388024785,0.5304819716537156,-0.2330990437547685
3.038098058,3.022518512339108,0.6036978531879966,3.0788257750505874,-1.4675155623671188,0.5694044865579568,-0.23010807675645184
3.1381043220000002,3.0843064183593354,0.22255590163802655,3.2818261784361646,-1.702581817403177,0.5620356560300944,-0.2269449492433112
3.23812019,2.9757075317696615,-0.07341690355660853,3.2932794261652343,-1.8733699938524522,0.5363889755171494,-0.2208656520224691
3.338108839,2.857476671903111,-0.354007690438168,3.2910237146173342,-2.1166830499964426,0.5184888551908221,-0.22568710390529512
3.438150846,2.692476695182773,-0.6597997709190662,3.415316827686007,-2.3295293948744473,0.49463540936289174,-0.21759518104247932
3.538110299,2.4282791655967984,-0.8637425834998558,3.2941056298132385,-2.604116301065234,0.4776827087384276,-0.21042887340003102
3.638101874,2.2116050794204853,-1.0024484627080334,3.290152310637401,-2.8107054019210556,0.4455387840624342,-0.2000696250291304
3.738098269,1.8886071029346034,-1.084569758562498,3.2902578687291797,-2.9667622363001516,0.41202780382492116,-0.20227174121033054
3.838104606,1.450033797527667,-1.1730758069643854,3.185607250975717,-3.211496721663064,0.36740343891995514,-0.2054607433368818
3.938122898,1.2439510369065738,-1.1151332979386228,3.089189900214665,-3.4709312347644925,0.34871745305535196,-0.2037089583432576
4.038113113,0.9539369169563797,-1.0638493769269588,2.9748993062461366,-3.6540188499654835,0.34846735022118147,-0.21391772263336434
4.138104509,0.6704328056361472,-0.8344988975167127,2.944321995730644,-3.844346679414872,0.35266292370161395,-0.2213849012413863
4.238112032,0.5377660823528249,-0.658161123324292,2.981521409720963,-4.096730723573368,0.48454292958650974,-0.16513581985967113
4.338161563,0.32970701371017197,-0.3484728593316837,3.213156902315327,-4.189281178115759,0.5623960107044622,-0.07997486508016254
4.4381031140000005,0.21825035063148807,-0.06420036292365074,3.457336867038644,-4.299515549223784,0.5572161489202749,0.009343584529744207
4.538096593,-0.005518950718277677,0.22312175675141382,3.58465474130454,-4.213733564537936,0.4636275141340147,0.061175615436460676
4.638162754,-0.18831043860245034,0.5783894815853585,3.649012245417928,-4.088256033690906,0.3778062672837983,0.10799818043662397
4.738157782,-0.44852821762130773,0.8182856701811105,3.638951927462878,-3.946520713091827,0.33307961734063546,0.14439488517275537
4.838094313,-0.6793110704849034,1.0470531570425867,3.5678624681973616,-3.7799346104095046,0.28291532624095594,0.16574881105710226
4.938105367,-0.991906895478337,1.2631503122099912,3.419809044949812,-3.573871613623052,0.2901246261655998,0.17372929421990754
5.038103759,-1.2636999794286385,1.3569973313654724,3.3831552800836007,-3.3069635392958276,0.3027022325071361,0.17823140414625183
5.1381000629999996,-1.6405584916498412,1.4199312269963902,3.267943815320573,-3.0173569782515255,0.33582553490669587,0.18151935489707577
5.238096568,-1.9369082417222767,1.3699585178672815,3.263151757953886,-2.821523475843305,0.3885190655749052,0.18938912357353352
5.338103341,-2.194517353408926,1.248321098892686,3.249553111209856,-2.6682882977887856,0.4265576534066572,0.19105796325006447
5.438142207,-2.507673772444565,1.1233234994325854,3.3089258847498475,-2.4150968900609566,0.4271336154760954,0.19389795908988122
5.538104804,-2.735093009028235,0.8912212819205226,3.3041228413600767,-2.243503854097809,0.43163697504101767,0.20571675047616214
5.638101433,-2.910184809591611,0.5817833821908278,3.217594524663423,-1.9457368452756658,0.4304790573926149,0.19635952950037827
5.738095419,-3.004000244297829,0.2665635139840565,3.241852923708775,-1.7219717819699134,0.4231707557698143,0.18627233467856588
5.838102784,-3.0277078672886453,-0.09598292201118677,3.289468670817557,-1.4944035779592302,0.40164205186553587,0.184029625077953
5.938100547,-3.024166908044384,-0.378985706488641,3.235617198049385,-1.2830170475607334,0.398731943104265,0.1871676620507197
6.03812586,-2.876638453229019,-0.6872924361590055,3.2639203191483768,-1.0496613253942382,0.3392264970937294,0.1859809944729137
6.138105093,-2.666902344948305,-0.8893390218599196,3.092160405855275,-0.8172889723880314,0.3468644156746744,0.19942336206917696
6.238100926,-2.524023858080305,-1.1316396946773808,3.072872010121364,-0.6424662198452924,0.3816291999607029,0.20388229709314573
6.338172397,-2.239872019928609,-1.27155494868235,3.0766291933632166,-0.34995623674131593,0.41507094340043016,0.2060798820172083
6.438100322,-1.956770820375579,-1.3647835969428368,3.1551239461616016,-0.1320818137094879,0.43925430368650326,0.21022903102273072
6.538140159,-1.5931234517427357,-1.406623638310858,3.157951911692718,0.09405662133901975,0.465705938938833,0.1994255517204068
6.638103375,-1.3073906158539068,-1.3188654454862485,3.232307885129342,0.3179266198566795,0.4754999145283034,0.2068263016163544
6.738105334,-0.9984490119916902,-1.1995164543038006,3.2695200677855962,0.5290187835875859,0.46068837479518854,0.2047953466789688
6.838096226,-0.7216966641311829,-1.0477642793885353,3.243433063945035,0.8092343554968651,0.46390614688564574,0.19340893399200812
6.938103315,-0.5661163926504993,-0.8170384247515492,3.285291362950915,0.9973641492498503,0.4712232647295137,0.177163499603132
7.038099285,-0.3187685556324502,-0.5163598816955002,3.3849659583202665,1.1244883690409473,0.5367628510450625,0.08917709848517848
7.138102985,-0.17364684508648362,-0.13492081887824267,3.5931920662425125,1.2224769457691442,0.552169200524969,-0.014912377178509443
7.238096523,-0.10588997454593947,0.1985908749247792,3.740008435266829,1.1769693243470858,0.525826175771873,-0.08085001896425516
7.338146021,0.08407308709194095,0.4755191093218353,3.7574061574856357,1.0832414155051953,0.424127794149542,-0.12162202659096721
7.4380987560000005,0.2687672261060062,0.8665123945693122,3.8067748650736797,0.9146037991088333,0.3614957876743261,-0.14370577632447973
7.538138554,0.5765777678102175,1.1150218488304449,3.653300656814389,0.7316704841423353,0.3371503612682278,-0.16008684889496777
7.638094734,0.7814969490590067,1.3036518540280342,3.5750377836068123,0.5334709958795445,0.31356992760503694,-0.1631179442638359
7.738103279,1.102333705537876,1.4801467237946822,3.421337551099466,0.34061774441192877,0.2980038550444685,-0.1730221284961992
7.838094946,1.3509161575772373,1.6102211987101542,3.3001829717051345,0.1463674436987679,0.30126627408137757,-0.17842858254609334
7.938114274,1.7525225891713285,1.6570470503969075,3.1752955941664704,-0.07903807089454916,0.29145773026125116,-0.1850821419549582
8.038097787,2.057901727241057,1.6092341318917764,3.0649280901991562,-0.26993737547685004,0.30718677331808275,-0.2077203238059858
8.138094478,2.3350443550358673,1.4563609268746494,3.0207762023540607,-0.505289827744246,0.3373449063735614,-0.2166796110466027
8.238096738,2.607078224029413,1.245719616692507,2.998788265402455,-0.7726847056039822,0.38649222318971693,-0.22449267052258012
8.338106241,2.7994550562160976,1.0112329318604798,3.002838863190565,-1.037270962133842,0.47732320488314195,-0.23281292358534011
8.438093041,2.9236008267772444,0.773288781864762,2.9765478501865172,-1.2562463852529826,0.5270939728166233,-0.24167591409342473
8.538093764,3.038593450041549,0.49944086419471767,3.08744366147907,-1.412664931243295,0.5497581317170046,-0.24274869059937682
8.638098376,3.000538076547362,0.18146676531504724,3.207173964624582,-1.658155666764045,0.5480996086905137,-0.24176579844861049
8.738185306,2.967342634067345,-0.04503586527878686,3.260181471106663,-1.9112548685687987,0.5435630612376259,-0.23318145362166223
8.838101185,2.813782426954679,-0.3727082699788371,3.2688013528033113,-2.1023068997939975,0.522769696828981,-0.22307473205251274
8.938092261,2.6836191847230197,-0.6576092232942078,3.3482891432585413,-2.287652763663271,0.5013266952020491,-0.22565960987381967
9.038095631,2.444103187386489,-0.9049626262994638,3.3155728405885783,-2.4829898166035997,0.4909292895965572,-0.22072098117177047
9.138100182,2.153301344910713,-1.1123287534599076,3.3090758625539496,-2.7560341201043785,0.44373775996808174,-0.21119280766856824
9.238091863,1.7933267589828883,-1.2392998435937714,3.2381530323479093,-3.0055999009695227,0.4069364090818019,-0.21031352962091707
9.338094249,1.4869769686154333,-1.220949443608056,3.184905876633674,-3.206435544815294,0.3846899612190875,-0.21554375023693392
9.43809941,1.1739264074010842,-1.1764179234367176,3.0193647589795027,-3.417574854893331,0.33694063002495955,-0.21532248911553725
9.538095594,0.9708951142837278,-1.105632460112578,3.021082011614667,-3.6314709365231774,0.33639202373445753,-0.22097467509140667
9.638095797,0.6974691630880375,-0.8750506840361819,2.9188344547587453,-3.8634026035235958,0.37314441109017843,-0.23261047737332863
9.738122454,0.4493359241452917,-0.6682900951165625,2.9717846726671455,-4.053697538882662,0.48889882275543356,-0.16890190914596775
9.838147305,0.33349369730091355,-0.4259619366317221,3.1146939490898276,-4.2473933875712095,0.5665990736895441,-0.08444521837907605
9.938094068,0.15021978784275772,-0.18792218921854448,3.391659136316812,-4.275050789961198,0.5940037993950051,0.008311977332066567
10.038093016,-0.007206331933233553,0.1863926576080968,3.5657211685007413,-4.234889429572822,0.4811025551828683,0.06677789040681537
10.13809803,-0.21505776830508447,0.41080510817781357,3.6239005783616807,-4.137899494147879,0.3867584879029567,0.10355285283731631
10.23809355,-0.4842389504201662,0.7668950175524728,3.614126743733435,-3.969299188000145,0.3318681409823766,0.13851448671504113
10.338096478,-0.7491743098198647,0.9815416246074624,3.5880794794457174,-3.8558049467280893,0.27722788527464987,0.16410423277540817
10.438103139,-1.0010063263841036,1.2002079516461166,3.454359474466696,-3.562184691749174,0.265966893944266,0.1798805426189675
10.538092735,-1.2653343578785123,1.310962860312996,3.34716965071819,-3.280744820090915,0.30066864113066083,0.18205103337473216
10.638098673,-1.6303466163590357,1.4204954749847651,3.263199914894017,-3.051925022077992,0.32862116454895035,0.17551925371654672
10.738090177,-1.9167368572311088,1.3553450869675459,3.1750006315609407,-2.8590614357375705,0.39041986737081924,0.1798060238611384
10.838094099,-2.220465530617435,1.1810346686344921,3.219108504659582,-2.6433495712176995,0.437098097724528,0.18229222157201894
10.938133189,-2.5277886066902364,0.9860592861925773,3.2275732788370415,-2.413917967654404,0.4479992749544978,0.18640785092868953
11.038099698,-2.8034370788034995,0.8201129998603961,3.233398800395564,-2.171479305824933,0.45325028407213214,0.18623854491058645
11.13809208,-2.859988235107034,0.5247242510505358,3.300057066515068,-1.9357652310902005,0.4556837345632764,0.18842264988051322
11.238098848,-2.952405613022617,0.21528285042892575,3.1890218434097184,-1.7023376575770597,0.4134515162921419,0.1840231064670331
11.338095555,-3.021337385213068,-0.08756871919090628,3.336658336451456,-1.4936608699143359,0.38285550527781015,0.18240662968408533
11.438095199,-2.9235208507426464,-0.47250749135613573,3.144337937260502,-1.2758690975160267,0.3618117962779497,0.18226566974668054
11.538094256,-2.850418075716416,-0.7613110608078187,3.1581102791386133,-1.0489684695522528,0.3594476018985219,0.18347086860534983
11.638093162,-2.6618922695778044,-0.9735677537832641,3.059583292700011,-0.8195201082080679,0.3440210389105106,0.19334895691117443
11.738093067,-2.4450975055121904,-1.1959915993438965,3.04990696376008,-0.5900517658333262,0.3744791591644578,0.1990560742355105
11.838093505,-2.2010321086764435,-1.375736802981304,3.026495917736473,-0.3736055787598841,0.42869622676879987,0.20302104759107426
11.938103838,-1.827597434200815,-1.4632813524816868,3.081660638824625,-0.10443476561536101,0.44590296293106807,0.20506487585841865
12.038147852,-1.5820465794565213,-1.469395804994268,3.080808864854503,0.16894305671949814,0.46504695984562994,0.19980495236912424
12.138152684,-1.247828449322315,-1.4135858914119837,3.1859354292116104,0.36529716548534297,0.492197540631402,0.19958428497620212
12.238096344,-0.9952900162364231,-1.206543762209792,3.258606136201005,0.5652316919960341,0.4710028017412028,0.1910468129926171
12.33815859,-0.6867273275853245,-1.0726753105240512,3.2558464807533416,0.7798114276677466,0.5242727701775414,0.1913664984252408
12.438100277,-0.4320498452695062,-0.8179937004198804,3.3541382869085754,1.0134693138241497,0.48470443420305953,0.16661172414127598
12.538107575,-0.36902181395833994,-0.4607631972676136,3.416058373358545,1.2073157945220108,0.5206896183518436,0.0892609223504781
12.638105928,-0.23646205948147306,-0.19376364702918503,3.5945794543122864,1.2953688470489446,0.5343417648980625,-0.011599528596692334
12.738090964,-0.0905276315175077,0.136855025221549,3.72642173044024,1.1822370489517877,0.5209094231541884,-0.0869611552415631
12.838104296000001,0.11835734861008748,0.5146159546734178,3.7236691283217,1.043985063832469,0.4204946633371232,-0.12448382094905402
12.938112009,0.29035070388255585,0.7662431826540321,3.780302187335686,0.9220845204472853,0.357867887247461,-0.14153259689813413
13.038104269,0.6119364016685567,1.1022903051904427,3.6506040621203293,0.7361770631345484,0.340317039494458,-0.15582922289066184
13.138097488,0.8297270549293296,1.3556378805935325,3.5797669833831365,0.5302171711954802,0.3102381421334413,-0.1578314344621802
13.23815899,1.153336918119728,1.4936133680570494,3.432751971801365,0.33315299211647226,0.3059903195441666,-0.16836589053428966
13.338094075,1.4287738244861576,1.5473822343613437,3.298462393948007,0.12794748748495413,0.3016164480303724,-0.17812049007058695
13.438092753,1.7899516095208747,1.609071162604957,3.227473402025293,-0.03416892612432239,0.28753919734224875,-0.18848384198882476
13.538095851,2.048699133028613,1.5180861647814141,3.128901613204435,-0.276382714990529,0.33024182171936656,-0.2026106083017111
13.638091768,2.331658591664262,1.4233363763687952,3.0013868380471314,-0.5257196030165463,0.35200886154421085,-0.22410341878182882
13.738090654,2.6016188776754166,1.2220480413035468,2.965329198505795,-0.7971217206949787,0.38983830842343825,-0.2365100994510366
13.838102726,2.8104391321747735,1.048010434279907,2.965260078748705,-0.9758962598517262,0.47211582032073385,-0.22975897167058065
13.938096469,2.868449980623121,0.8345346364664952,2.9918982779059298,-1.2085530239150657,0.529556845464465,-0.23933892483133745
14.038096119,2.9975320138361834,0.4571083829523876,3.063697191468043,-1.4125544072011929,0.5439480567902779,-0.24437171840995023
14.13810448,3.011895222411904,0.20307070912111444,3.187590394194101,-1.7067739036081828,0.5558790169632913,-0.22882356903486775
14.2381155,2.9854539481654667,-0.1231082452709406,3.193788200760477,-1.8894364783456492,0.5515588481015026,-0.22968794712634916
14.338107203,2.8473936902915122,-0.49327677790726304,3.303684075284995,-2.0555273682143618,0.5259709997941581,-0.22615851081073526
14.438114945,2.67832747680854,-0.6509927544410035,3.273385019668383,-2.295719879946221,0.5044356188003308,-0.22356236294073312
14.538101896,2.3956513414392857,-0.9574322859368334,3.302627255065776,-2.5363539082249527,0.4967068261710982,-0.21975888323189263
14.638118584,2.116143526519926,-1.13158599334405,3.266866642012325,-2.7653894871894047,0.44719776552959445,-0.2100034088934189
14.738111814,1.8708662936781753,-1.1399868542680303,3.2410419860334643,-2.9819414135469318,0.4115540526474261,-0.2107128028625276
14.838108303,1.5403793607571847,-1.178046559978986,3.1540464558661765,-3.1436242594134494,0.40949440473649495,-0.21334200761695538
14.938101375,1.1760520599638489,-1.208802994461444,3.091588455415131,-3.4650058913205806,0.3603578752009434,-0.21434666849117265
15.038109648,0.9500094074819914,-1.098005608956033,3.0024773106798155,-3.6671671214408845,0.33790986700937176,-0.22135934895519313
15.138152347,0.7102979883722822,-0.9236169553669467,2.9996285541586585,-3.8368115660184343,0.3906276795632,-0.22101251972726765
15.238101785,0.4840582571921817,-0.6639004150494072,3.075273502554198,-4.0169126387983844,0.4803303417581842,-0.17748863554156188
15.338110301,0.30388781878693805,-0.43566188404462625,3.1779816716820823,-4.259228284805272,0.5664324146189238,-0.08233560263241196
15.438102024,0.1252014192443664,-0.15722574736810538,3.433489995866262,-4.216712014951906,0.5537286052872621,-0.0005852312573762126
15.538103866,-0.03008829362478282,0.2131814744373262,3.5493882202223,-4.187367119044313,0.4985543228172436,0.06435865473383913
15.638106816,-0.20167667584057047,0.41926336157064303,3.6333606754454384,-4.140004949377754,0.3867120748013765,0.1021797319890812
15.738102023,-0.49519721272124373,0.8326971856812293,3.603663187015019,-3.992005020569801,0.31973306242720984,0.13724262415290922
15.838180016999999,-0.6885591449887185,1.0337430879786738,3.5779578017794695,-3.7532975687609875,0.28489223807105013,0.15986217660556962
15.938097094,-1.066707379443493,1.2032061959730704,3.489338404803191,-3.6023995564346527,0.2847453291926752,0.16539484905127136
16.038094381,-1.3434956536062745,1.2699602553340414,3.380054182890683,-3.285826822531444,0.30476262582163777,0.17574981691265773
16.138106288,-1.67132468778546,1.3480078411940288,3.294893750983634,-3.0794394415727324,0.3313304903675055,0.17731851349565478
16.23815791,-1.970730375809207,1.30850588607969,3.2213864242972092,-2.879040161285015,0.37241609364109113,0.18193187470123542
