time (sec),x position (m),y position (m),forward velocity (m/s),"heading angle (rad), from x-axis, positive is CCW",throttle (unitless; -1 to 1),steering angle (unitless; -1 to 1)
1.02777654,-0.058601386566471195,0.2283777119546014,3.3491449880034514,0.9667882574686536,0.6098986914733718,-0.19004371018731744
1.127865915,0.23840315807763002,0.4940469586800083,3.420553719138599,0.8280172499585923,0.4437823779217668,-0.2042795788567108
1.227795019,0.44771320488503913,0.734279771250104,3.413774179687417,0.6477262828682351,0.3421663545202604,-0.23505347044218453
1.327769424,0.7118840555917682,0.928016365111103,3.279605430268355,0.3543842302182942,0.28453974040347424,-0.2590248929029931
1.4277712710000001,1.0001999547896299,0.9545412193998953,3.2177350228653494,0.17808860752549316,0.2969696110260438,-0.2543547590544057
1.527778503,1.3266725055931128,1.0498422873476185,3.126074449200226,-0.05521042867993224,0.3395377235673978,-0.24956116591601377
1.627859462,1.6477002174692992,1.040498398844604,3.0114886733163244,-0.3094421143892004,0.37073578101601407,-0.24736592316071798
1.7277739900000002,1.9476566673157205,0.8718496283872108,3.051634745074132,-0.48716129869724534,0.41042994102413566,-0.24915042926400816
1.8277723300000002,2.1740502034080915,0.736897117258413,3.0994505061074134,-0.7591230997591071,0.4306063923995219,-0.2519477086922794
1.927780413,2.3974410642486697,0.4101281363097767,3.05826643783529,-0.9399889644124496,0.39976289867294507,-0.24494182609793405
2.027784387,2.440298408696183,0.21324426962706994,3.057510521250184,-1.152147769835108,0.3814779151351984,-0.24337332775541543
2.127773797,2.5747646007678786,-0.07142429370292816,3.052216707238117,-1.5056252607106992,0.39978999630063605,-0.25073673818024966
2.2277667230000002,2.55908647623558,-0.34264338833499836,2.9841196262611285,-1.6050361225641503,0.3557116688580813,-0.24406242615353785
2.32777231,2.5064571462197898,-0.621105460396362,3.055669384265487,-1.9165821937501084,0.3383306155142133,-0.2541266149797993
2.427773991,2.4398509597931093,-0.9405050576320794,2.9748365298424457,-2.1100733217446614,0.3541125926443727,-0.25996030218632066
2.527788994,2.1345740897756786,-1.1878102796284216,3.020140360784313,-2.3853226025409047,0.3305424746712057,-0.2621670013864574
2.627783811,1.9774839307623349,-1.36902290487917,2.949202154804517,-2.589628964394043,0.33595973402888624,-0.26753349907861296
2.727772867,1.7321909125255555,-1.434859883247981,2.8580628472389957,-2.775341192763598,0.3693317366706835,-0.2708465512848668
2.827817971,1.423683034752296,-1.5282044784756403,2.9313834044665024,-3.0659853594556643,0.39302580414941285,-0.28002994074571125
2.927785428,1.1389829415668378,-1.5049507658032106,2.8975776688744896,-3.3497462623897603,0.436351087310733,-0.28866148785735857
3.027769096,0.7972401460471696,-1.4303225694068629,2.9295306631508886,-3.565048434533679,0.4882387300014335,-0.2806793216013181
3.127772299,0.5776428924630865,-1.2779418689360746,3.0088167661596255,-3.854347749726055,0.5111060542673949,-0.2615527355771234
3.227768982,0.35858872938441094,-1.057504885056327,3.0806135136462687,-4.109948736169285,0.5451371940314647,-0.2279642593274852
3.327771323,0.2712281745134012,-0.775636207060481,3.169903887201602,-4.317871260062275,0.5601873065004506,-0.1522226819703755
3.427771225,0.10163423878627323,-0.481365697597695,3.391752257201193,-4.361621854030722,0.5749195261930967,-0.02652912884268488
3.527776083,-0.01814957232805448,-0.1558883681989201,3.542662114336463,-4.3085344290523295,0.47826261291032607,0.05928410868170916
3.627794129,-0.2292089875281527,0.13548267964743804,3.66621889579522,-4.154495986357206,0.3807189790865991,0.08708914223754564
3.727769351,-0.4200260579207124,0.4483603277244877,3.653034783806296,-4.1010813464612,0.31991918327438884,0.12660530870956793
3.82779835,-0.6123681026475896,0.7229706929708343,3.5892919872330182,-3.941222063240374,0.25875658276274677,0.16105074626904387
3.927769821,-0.8692679419448928,0.929870538719096,3.4626318324158105,-3.6648171205082307,0.23034228220375658,0.17436668414354378
4.027773427,-1.1050713318264587,1.1140117304701393,3.4053954724252513,-3.5198972744772545,0.23285600911305676,0.18471455921074723
4.127768744,-1.5628002081993397,1.290160231345238,3.241049721194863,-3.215424334232038,0.23544443096733747,0.18706288452381864
4.227771428,-1.7913294533008415,1.3381229968104305,3.062890263873181,-3.036867409279763,0.26594197113483437,0.19164061052310327
4.32780447,-2.0511000008983,1.1764727293429689,3.0175898828091303,-2.833930197855207,0.2951435238962216,0.20550354520912706
4.427791799,-2.333589166079794,1.140444362153681,2.9268838618424575,-2.620573285873836,0.326276369619078,0.212838542289712
4.527802916,-2.59430626296972,0.9956515376715366,2.909302714705379,-2.338105011399708,0.36603145097801165,0.21812722717203448
4.627779909,-2.7635666047100687,0.6759167989366512,2.9643910824658275,-2.149405595098746,0.3986070270521856,0.23587568301403572
4.727795204,-2.9143230487144667,0.3810971055397963,2.885341456809298,-1.9019495224627077,0.4039357698592433,0.2279568868144671
4.827789586,-3.0267885908202268,0.16506787412238494,2.9991199746907986,-1.7231922254797185,0.43225646374255566,0.22121910016889137
4.927774086,-2.996301992223611,-0.16061667351517162,3.046309653399235,-1.3942498445286342,0.44378751300707026,0.2179578166643653
5.027770022,-2.951410921749246,-0.39306058902848473,3.066390174649222,-1.2478260071736196,0.44468229757248673,0.21251319868112897
5.127787212,-2.821555408112531,-0.6912622612142181,3.083941177063976,-0.9504570357390005,0.444982916351615,0.206324747319725
5.227876641,-2.6256477493680324,-1.0121837303190204,3.0660879169695767,-0.7813930793235149,0.46546567357781893,0.20947900226106064
5.327783485,-2.3859312620560003,-1.1805024780333113,3.0814366771823556,-0.47312553173518057,0.4237212944487923,0.2034534552258198
5.4277758,-2.1912865014954304,-1.2291754147592076,3.0270600520084447,-0.36381828660572735,0.4106672617198502,0.20202773490101997
5.527797666,-1.8263925576860003,-1.338848645888206,3.0890124010297266,-0.1315921507217488,0.40941011465887167,0.2101024584405236
5.627780825,-1.4997993979945372,-1.3793617352167389,3.0730334129719545,0.14309751368442444,0.3785284885451912,0.20843391287755875
5.7277814,-1.2814606736613472,-1.3128182479194932,3.000862631291474,0.3196484153295057,0.37062201733500916,0.20958233503968018
5.827794774,-1.0393463536842702,-1.159293035362373,3.0413971290670805,0.5705288756410228,0.4043033051635437,0.23521800240387195
5.92782098,-0.6815181091086046,-1.037619183903211,3.009926820114768,0.7958935684812061,0.3849640913686036,0.20088150311206698
6.027778308,-0.500623660437484,-0.744448136077948,3.074295665232066,1.0789585440792944,0.44820832793709237,0.185039209297557
6.127773094,-0.3769654709105706,-0.5347207850033452,3.134528409374627,1.2078201702215825,0.5320039218561811,0.08246672237914787
6.227769871,-0.26942902194375357,-0.12678901376683643,3.338008676846673,1.232019441695752,0.5346588985657621,-0.033228417995112856
6.327859371,-0.1666683248825598,0.09543676753076397,3.4717899693375394,1.2407696124166223,0.4794165748458517,-0.10184342176231378
6.427798147,-0.05748459553066116,0.3976318980270232,3.5538136899849384,1.1184705618908464,0.41039255743268094,-0.15389361912272373
6.527773949,0.19499159916127043,0.7226519240227802,3.5096861631298992,0.9271486808713956,0.32784264088400705,-0.19280999838863663
6.627785338,0.3859919370739184,0.9403455319252219,3.4905070114804975,0.8032967335901834,0.28494572089054065,-0.20729040489519973
6.727802282,0.6253226778052813,1.1980309019082112,3.345047230885206,0.5728537544954062,0.2880646836803972,-0.22048447056207426
6.827769097,0.9293905289795754,1.3489030607287895,3.2695408895784834,0.3378948883106493,0.28894471605682354,-0.22754199800249456
6.927790765,1.257104664928902,1.402076504484042,3.2327988103214156,0.10012730275966712,0.32667029523758173,-0.2350973309162601
7.027773781,1.5392100660512087,1.4676120929433616,3.1340730507322156,-0.06035675972202875,0.38536901014708325,-0.24404132010067509
7.127770884,1.8606672244915805,1.324806448887166,3.0251250941683865,-0.35938494882579586,0.4047966205794187,-0.24373030930092013
7.227797725,2.1600647663971957,1.2260035550081725,3.0997462043822614,-0.5735399345766078,0.42815478828901055,-0.2455863449237811
7.327779296,2.4057356178778684,1.0509845802507938,3.186639446278685,-0.8162530834836221,0.4516322492321518,-0.24448977335911265
7.427769761,2.565497820218592,0.7976060821907991,3.1238958469361786,-1.025808192798223,0.4428603931863388,-0.2397616811386114
7.527800937,2.7500701031398704,0.5121814898980842,3.1682633252122088,-1.228031353376132,0.41249898597601053,-0.22966656868531904
7.6277678170000005,2.773572948985345,0.25732270032964283,3.1774705464593573,-1.5431639495089953,0.4026367561871721,-0.23995456744991697
7.727774538,2.755618111869756,-0.11026852404607088,3.110932621370146,-1.7740887437778718,0.3920110512958294,-0.2299784265970454
7.827773379,2.686505701758418,-0.39133406318609937,3.132824952577858,-1.9152968019086105,0.36331045583423244,-0.2371879529913899
7.9277849620000005,2.5584213009876766,-0.619664804028706,3.1095148515799003,-2.096974904461714,0.3429464942576832,-0.24460668298912486
8.027780143,2.372818721159795,-0.8969617428151707,3.0473527286328066,-2.383131184056464,0.34545095497933664,-0.2389380978048171
8.127888566,2.104630171605587,-1.115769262050994,3.00825480686663,-2.5889742456482376,0.33766315732053775,-0.24771403408949094
8.227770256,1.8551627569571618,-1.2644140730603466,3.0342304393813446,-2.893176249812999,0.34864925786909984,-0.25397757591288345
8.32776672,1.5588435849751323,-1.2891283882672173,3.0089486417579034,-3.0858574576790403,0.3844869432340994,-0.25518560285083247
8.427820608,1.2466148376553579,-1.2752435835409761,3.0057541685399984,-3.3650224402094078,0.41029378091384155,-0.2649583761262397
8.527793114,1.0101043280306452,-1.1005544150577817,2.987362431690821,-3.5251551238533527,0.44237771627058126,-0.2638963699579163
8.62788333,0.6949801325624099,-0.9746143299708108,3.012104062678085,-3.7425849482301503,0.5049472929592393,-0.2618656335568969
8.727786833,0.5452593816401273,-0.7660380816613089,3.0229789532217652,-4.088017734450216,0.48983597158132897,-0.2394242707247303
8.827773989,0.31259839786124977,-0.5709006729013523,3.1718689334034695,-4.271084949335008,0.5308197111984826,-0.16091388507022183
8.927791844,0.23448033904372817,-0.26457278605099227,3.393900733474959,-4.241073954559061,0.5774711197032232,-0.036688354855072804
9.027785246,0.08887886820930657,0.061223425357085554,3.551410655687622,-4.207799474889465,0.4607311451627859,0.04007350967410987
9.127800505,-0.12847171749953995,0.4084805223026706,3.6931270181163867,-4.191956699774224,0.37591304339746684,0.0855437079665244
9.227771171,-0.3368858430379079,0.6457443355085303,3.6245286719554928,-4.033741083439815,0.3088110291756583,0.13287730832194558
9.327768535,-0.6139876586428715,0.97737028966343,3.564867575043933,-3.817461361076632,0.2607388975912883,0.1602553197297437
9.427772644000001,-0.8163211157540556,1.2174863331537862,3.396964151694946,-3.694987426649548,0.2428173319748482,0.17309387087205558
9.527882782,-1.1064246582181294,1.3456685079197477,3.317652206670303,-3.4176659427199954,0.2517039319111968,0.17648691486437365
9.627771478,-1.4574848781309058,1.42013118254002,3.22440324104703,-3.1459089272695486,0.27388283201686897,0.18111865834261862
9.727771905,-1.7743913966262976,1.4351360963833903,3.1210870049577797,-2.9840653644436137,0.2866830254213124,0.17844832759421925
9.827766045,-2.038051895066179,1.303456014910206,3.046768161550396,-2.7763937203162183,0.2819584363101355,0.201147573892918
9.927776418,-2.3463771960953546,1.1628765166684412,2.934446016434779,-2.5067251139059805,0.2900982651136855,0.26615483663678524
10.027882104,-2.598741653194031,1.0560891817267637,2.93238558264474,-2.306569101663943,0.37081190583701645,0.23663908803378922
10.12786415,-2.7279973845612115,0.8327360176125219,2.9253833193528944,-2.0161332020193483,0.4330053874395488,0.1914608732533665
10.227772215,-2.8344215886088704,0.5166079273181913,2.9975039731664466,-1.8630467333032312,0.44264625667260593,0.20239875135722185
10.327789056,-2.947397953935693,0.24343437702357903,3.07105651888559,-1.6395467029255835,0.4336024833166009,0.21389594753258967
10.427773595,-2.9546215401434903,-0.08000400597833349,3.0885799804565797,-1.4110389089646092,0.4439921036828159,0.21559503753271414
10.527773775,-2.8235448309158624,-0.3907765726525093,3.0913104111361283,-1.198808842166329,0.4304674840602062,0.2165058485505569
10.62777204,-2.769700747987148,-0.6829239032407985,3.070143466906457,-1.001818420087267,0.4235674330627296,0.21004149228020486
10.727792528,-2.578155933751708,-0.8666869450281732,3.15083146847318,-0.7335291942303503,0.4152585815905704,0.2078901187966074
10.827795673,-2.2573880934150945,-1.0992870917864,3.1416103875439285,-0.5074903663981682,0.4189405954146506,0.20615061587996883
10.927771241,-2.030682613929304,-1.2570646084166348,3.074513250889796,-0.3630755707175219,0.3884719889515964,0.206437410833917
11.027771239,-1.7622076993371543,-1.3000676905380915,3.0433652154583606,-0.09696455320785978,0.37491774563011954,0.20957808264285063
11.127770797,-1.4702552847929662,-1.3914311974462426,3.034479554295814,0.1553513962446676,0.3677810393939807,0.21295471982224448
11.227839136,-1.1095781592912874,-1.2758597901640791,2.990489904240879,0.37213630179585616,0.3647706847086151,0.21333580307261799
11.327771133,-0.923116493059125,-1.0983759938166868,3.0040165845741273,0.6291845092780379,0.3698120308430448,0.2115796133555104
11.427790828,-0.6501050033232926,-0.9700489219044769,3.0606016195704124,0.8003278683656011,0.40273670036840814,0.20918021217383653
11.527771237,-0.44956809588884206,-0.7618860390276488,3.0114616646383063,1.0386044026497492,0.4342154844116503,0.19163573512707263
11.627770432,-0.3218062562788667,-0.46411812197721075,3.118418041858791,1.2225502306740443,0.5055174079480002,0.08469822834539499
11.727770791,-0.16834406318003425,-0.18160006285057942,3.29609594620997,1.262906689735081,0.5269742913078145,-0.030310248322604844
11.827775109000001,-0.051532181256179935,0.16220975842428254,3.470475265727842,1.159414890679743,0.49304777433209357,-0.1002734864098834
11.927779748,0.08809978057308714,0.46525809446427663,3.514505676698314,1.1206495229224145,0.39276018874878427,-0.14952352953972792
12.02777261,0.27104620832374937,0.831449031914243,3.49300191916473,0.9203797921640652,0.32205898931537524,-0.18579561268289782
12.127774602,0.49923584727004156,1.01373491144614,3.4401652707862995,0.7712060006649808,0.3081037076556713,-0.2033092880408358
12.227787868,0.7154494791488466,1.2179095596352905,3.3246065231270365,0.6027316752933839,0.2782940823600842,-0.21365681067613448
12.327872572,1.0453014118924528,1.4331897154098108,3.207456367512591,0.32878624106073756,0.2949153370405518,-0.2211541596989292
12.42777177,1.3430987935754204,1.4840466517188835,3.129648921527164,0.06644158244813908,0.3482695781643171,-0.2237578948016469
12.527818734,1.6829943081177492,1.455227283503233,3.1447088918384445,-0.15817568103852078,0.37224857071458023,-0.23534757259697925
12.627774616,2.025821334464594,1.3163509501722257,3.167634320719119,-0.4036023363876533,0.4076043376789419,-0.23749803716186366
12.727779561,2.202905516217299,1.136128257357336,3.093904483832053,-0.5990923613410644,0.45775784511277745,-0.2419847376303659
12.827801259,2.4686452614727283,0.9698184705539541,3.116778912943353,-0.854374100488581,0.4297802435621081,-0.2363086400854879
12.927785089,2.597410436760776,0.7469753202726354,3.207331045630277,-1.0354689976804048,0.42668159437248426,-0.2356234796970676
13.027770947,2.8243309371136154,0.46167142300184333,3.2174198425063087,-1.2743811023027183,0.4269483845336221,-0.24040411686763682
13.12776909,2.84391920308654,0.15813248961741025,3.17472819239242,-1.4741044092596225,0.41268085138037575,-0.24540700861290854
13.227781841,2.846697967037613,-0.16031894940481578,3.1922712215806874,-1.6849580710099061,0.3990182952859051,-0.229673796675228
13.327875295,2.792237494880427,-0.44231944210842855,3.1021856402740022,-1.9405863458367774,0.40075469397390284,-0.23674620873202534
13.4277702,2.5750946518183815,-0.7786503336892894,3.050970069268494,-2.207192469450991,0.35080012301353836,-0.24059794027029224
13.527805141,2.460331302715729,-0.978544095305458,3.0671139915414933,-2.413656098907775,0.33895883961692075,-0.2474766506965652
13.627850898,2.234820444430755,-1.1468230742229053,3.0313542477976445,-2.594528427278953,0.3646749622187913,-0.24572709390886574
13.727793505,1.9348167329046406,-1.3131773148807648,3.00483935034564,-2.848462732705895,0.3526876303017255,-0.24663375567703227
13.827771104,1.6076267504809034,-1.3364467474446915,2.9786150106501137,-3.0966612151109416,0.3709738949472427,-0.257550438364958
13.927781164,1.2983790651565827,-1.2784073771602469,2.9489633055621116,-3.396648148991783,0.41391973008531824,-0.2622177451722357
14.027872648,0.9727730184614317,-1.2293555260068285,2.950694119210776,-3.6038952562283897,0.4555865889182873,-0.2508470439258174
14.127793673,0.8067144648506193,-1.0653114776025472,3.0172233659354495,-3.8290418429108164,0.48523950878252076,-0.24992641095463622
14.227773948,0.5506429096061309,-0.8330608253310017,3.034832077671656,-4.097159213932202,0.5203389338436505,-0.21700073035512693
14.327781962,0.4183727654279448,-0.6742059136724067,3.1816467155636903,-4.248407344154861,0.5565273410483801,-0.13881073042960906
14.427799319,0.3156142668983536,-0.2295321922006782,3.4117446364038226,-4.27236354451912,0.5342224915790021,-0.02790218663944342
14.527791493,0.19647645520664447,0.04068110674761651,3.547812512168912,-4.303932165853015,0.4587697450754414,0.0474633511597519
14.627836286,-0.056626436193414204,0.4310052126403293,3.6493510978745123,-4.073657291108997,0.3982531863214482,0.09926877853103946
14.727775464,-0.31413728798267543,0.6940751099656842,3.6482300605319242,-3.9726793280367962,0.30852122352059064,0.13101095907722088
14.827771677,-0.4969969916131235,0.9569337660113785,3.661341922238326,-3.903343787290542,0.2679061426500535,0.16012714744206333
14.927796562,-0.7960677015187775,1.187383609448789,3.5006922672358964,-3.715160026308178,0.264168734737517,0.1733868035797465
15.02777335,-1.0987423121981035,1.3167674648884091,3.3593139359533875,-3.5293567915698296,0.24017757012764468,0.18962071667902997
15.127779782,-1.3713875874388906,1.4240006080531997,3.2145962965560204,-3.2251309116351727,0.2611697108353194,0.1766662984957955
15.227774965,-1.6161660370787265,1.4878254238713955,3.1658258800841437,-3.0168610046812785,0.291919566268029,0.19646493605307253
15.32789646,-2.025462167474943,1.3680478047433926,3.0937028683817265,-2.758454788923857,0.3135940540669993,0.20357908102411118
15.42777602,-2.251430565306169,1.238073963176529,3.0045188856192495,-2.6274781016932347,0.3457796435783726,0.2018418610895572
15.527833165,-2.5241843416546526,1.129948388990295,3.05935911091031,-2.41776105390375,0.3714233341496952,0.22177969006415432
15.627780026,-2.715897724538798,0.8272796760304696,3.016084917350179,-2.1921142316346294,0.37556081340129416,0.2266682816751803
15.727793088,-2.800518222332711,0.5811318012067156,3.0276066900001375,-1.9346308574245514,0.4061756140837911,0.22775108959755103
15.827777206,-2.875825015220504,0.25957412424508974,3.0575441712749116,-1.674021313819642,0.4299468998721049,0.2206981260931957
15.927769814,-2.945529968564986,-0.009467965691080264,3.0639595554274592,-1.3816023631089258,0.44666500217850896,0.22503124025151822
16.027769856,-2.9085682301682856,-0.27776359932437145,3.045374776995199,-1.2628099631230714,0.4381238062128926,0.22234637083591802
16.127772512,-2.7376405877441323,-0.605499447023052,3.0695426234815093,-0.9981312863319376,0.4317631018201098,0.2152088679739785
16.227772717,-2.6009644607897693,-0.8064192621242221,3.1394684190990643,-0.7902568169158478,0.4342293344663069,0.21435736193664728
