time (sec),x position (m),y position (m),forward velocity (m/s),"heading angle (rad), from x-axis, positive is CCW",throttle (unitless; -1 to 1),steering angle (unitless; -1 to 1)
1.030492233,1.5019724442118987,-1.3527460465100152,2.9697393409801167,-3.0521454447095984,0.3511450796929546,-0.2560496963059985
1.13048792,1.2086287800416728,-1.3132025042691047,2.990831819957426,-3.253199510143985,0.3944249646547914,-0.26076126446407116
1.2305854680000001,0.9504795725164423,-1.2445669960205914,3.027046865467881,-3.4866618897601382,0.4437304390912243,-0.26466412600945355
1.330487113,0.7380141212681263,-1.0889989741086172,3.0063098883175745,-3.7473864050438737,0.47887393493657243,-0.24992239324059423
1.430488032,0.43306203141286026,-0.9740069751728284,3.0426918665376284,-3.9680683847342926,0.51878078428365,-0.24143466511696254
1.53049425,0.24716374812542605,-0.7528052218730271,3.1613640739280378,-4.253415410522296,0.5611504801485232,-0.1805143809750793
1.630509154,0.08040437501136011,-0.42326072219601285,3.3683748090696617,-4.329201630561989,0.5528189216567104,-0.08126798302064224
1.730500143,-0.02431768725601573,-0.0902184537494734,3.594616205608921,-4.218941982721346,0.4929449332929585,0.013272145396123007
1.83048757,-0.23249077199106427,0.25201765629401024,3.647582353011516,-4.242143385053996,0.412076788723777,0.0669582246629352
1.930501304,-0.3379269898819446,0.49046304035443583,3.6280850019445183,-4.125994587996043,0.3229805833502228,0.11197782466172285
2.030512789,-0.561828653062185,0.7698034316718858,3.6627419907514285,-3.970566572468417,0.2625394466908749,0.14353779116475743
2.130487968,-0.8521584349375924,1.0862982033688313,3.5100873333375064,-3.784345558702723,0.2438393524387786,0.16788669250207328
2.230485829,-1.14279105881647,1.260919737430237,3.4228008804733734,-3.5034078465120437,0.21342035461029737,0.17576156351306166
2.330487703,-1.4331871093606618,1.3461673854637166,3.2796670065847318,-3.346362415233293,0.22853715550171386,0.18168018300158986
2.43048883,-1.7627968760057788,1.4049742231426383,3.1569810457692977,-3.0753668722915366,0.26786176999113953,0.18940340368570843
2.530574128,-2.110959445854938,1.3820330153815288,3.0580459110657086,-2.913437517391308,0.291037369193993,0.1985628533314505
2.630545692,-2.326635464677077,1.3128252512984584,2.973166603298672,-2.6603311712163276,0.32706005069566185,0.20676271177067848
2.730508075,-2.679115338803122,1.1091890663487192,2.9522109754022217,-2.4393572340608807,0.37262379257082073,0.21870327539357623
2.830522121,-2.86866835895188,0.9487709676303826,3.031206608505219,-2.2614192160160127,0.37676907289204264,0.2253074776277572
2.930486494,-3.0118871889040086,0.6663418157763269,3.0588045540179407,-2.017570736822264,0.3962136141606477,0.23402125276318933
3.030488354,-3.134006731273238,0.36921062015540473,3.0020393647528083,-1.7840500488668267,0.4287728186768388,0.23207877746185732
3.130563686,-3.1300312877694356,0.09862200620115359,3.0348478009975204,-1.5066205897726488,0.4639802431818209,0.22495108621654913
3.230586524,-3.1464334625359305,-0.1393457642276612,3.1211064086409315,-1.29456538380064,0.4672567274978538,0.21654643890982586
3.330486123,-3.0240670220136523,-0.5207523214369436,3.084421038803103,-1.0646594679378518,0.4787645978845563,0.2086624505733399
3.430497224,-2.832876695586904,-0.8382730845596511,3.160240209346934,-0.873668372365246,0.48229233988901504,0.21340104005414318
3.530487135,-2.6033473993107883,-1.0470155693271905,3.12347831647092,-0.611771998449676,0.4462690239523928,0.20138616308621307
3.630501033,-2.3671918172312614,-1.1600679505027534,3.1720346688440024,-0.45139181886781937,0.4176331745618738,0.20102436814707025
3.730488706,-2.113674699008319,-1.2367914440409984,3.167614209842101,-0.27523835065064445,0.40968242568981644,0.20753508777339788
3.830502504,-1.799139591985134,-1.3312072065589824,3.1603901708748303,0.019625384181790044,0.37121544297027737,0.2075680238402349
3.930487637,-1.4547827055569749,-1.3301765200829565,3.0357966617390684,0.20247411280699446,0.35439034630577154,0.21078620561201034
4.030611912,-1.1987088617175254,-1.2263783617170323,3.0301522062727884,0.4447324316917025,0.3592468789021916,0.2111182395092667
4.130486339,-0.9080630835089781,-1.102688335072203,3.041015955857425,0.6907662667158796,0.3677958400817714,0.21107674765220255
4.230485971,-0.6999535835462692,-0.8011611090161129,3.0633229659136916,0.9221122707636725,0.4347955701807056,0.18660727307951555
4.330496295,-0.5324019537060694,-0.6282545093442484,3.165695515126674,1.1251384164044422,0.49768791647426913,0.12717985501767398
4.430510874,-0.3164498872788014,-0.3337397620768834,3.3494021703103023,1.1684283757447205,0.5645860770337634,0.015561009335256216
4.530486665,-0.2583966445356629,-0.043443555038835235,3.494076459779182,1.1735460746048598,0.5021841632983242,-0.055604352554629206
4.630504063,-0.09733093701976692,0.27887325908650645,3.619630427405202,1.1073488329593832,0.42331982398395257,-0.10918614649884785
4.730599816,0.13801523572346402,0.5969328933617036,3.600288727592446,0.9594754589828782,0.3633839842674334,-0.15785770099792332
4.830489308,0.33338241348974634,0.8977739755160083,3.6243954408652037,0.816836212730159,0.2818330910702954,-0.18830779967344008
4.930489563,0.5959968325519462,1.0935084165079074,3.4713157573335964,0.5886211451237936,0.2572975959132685,-0.20428165400701698
5.030502821,0.8735694453834014,1.3400296023582179,3.339564903186451,0.37170966876615724,0.273936027995022,-0.21019399085655346
5.130550359,1.2065227347636143,1.48131076914546,3.198312965349177,0.1421215949139886,0.29663576698726224,-0.21508904598747322
5.230601918,1.5295718147992046,1.4124391912035235,3.209660495240066,-0.14128927946567993,0.35148078883722345,-0.22017847926684123
5.330490493,1.8598267096170518,1.4002990872646763,3.1527652188021755,-0.31413147306993816,0.4134215567060855,-0.23118837176975843
5.430489487,2.098813959396724,1.2552747398421729,3.1898934041946707,-0.46873681234691844,0.4242082554021999,-0.23534183896377195
5.530489647,2.323517843050784,1.1075101554284594,3.152287227377121,-0.7331039874093993,0.4304963960105002,-0.23660197497911808
5.630508008,2.5568034091869043,0.756007464950286,3.2200789248428996,-0.9975762688961055,0.44824745908672475,-0.23967318391466816
5.730489107,2.7924419764610957,0.5509908704055074,3.1931203763457967,-1.1360152975142745,0.41763666294093854,-0.23908829796843478
5.830487093,2.840966015021647,0.2942848766674677,3.0899037339272573,-1.4580909104882165,0.40713864049443593,-0.23868666079390055
5.930562393,2.8461084740126585,-0.043885687735987985,3.17529863935161,-1.6362887729990934,0.4399113155775123,-0.2333823866512271
6.030495737,2.7947051079545666,-0.3983628725760973,3.1465340694747725,-1.8247817790052796,0.39286535161988506,-0.2334517436817717
6.130489469,2.625654092940766,-0.6610588115332868,3.102826064971537,-2.1554981185932407,0.3651798821923553,-0.23383924012834517
6.230504532,2.4882774691737564,-0.9400591679675658,3.1744063698018823,-2.3272078396451557,0.35738775470192724,-0.24077903124228384
6.33049635,2.30240996861835,-1.0938540249718516,3.113771507568727,-2.475582189387406,0.3477268901157407,-0.24125453811330635
6.430580278,2.0356707410588646,-1.2881128684018828,3.013303653017491,-2.7585616024476973,0.34536256247727937,-0.24637908214746781
6.530509089,1.7129006003352776,-1.3207163103008934,3.0732122535039315,-2.982960356382918,0.3756376789216369,-0.24829539785862934
6.630485559,1.4370806276375563,-1.3257491284956087,3.0572852216554214,-3.2495374124840906,0.39728144534180715,-0.26463792380573875
6.730499989,1.108586873517516,-1.2950156231452035,3.026050306080671,-3.4712781775370183,0.4359364618158203,-0.2671001120591439
6.830488113,0.8517763101313446,-1.1023529462054766,3.0177651268402186,-3.78947504280866,0.47720578891558163,-0.26355505599352463
6.930486014,0.6359695376688923,-0.9373944280157891,3.0609508819487097,-4.038416199417447,0.5292646374540027,-0.24486127123958865
7.030491255,0.40488506868716806,-0.7452164084311591,3.1492398969863324,-4.2327808158076365,0.5679403591002724,-0.16518865545130565
7.130548299,0.3138173164953584,-0.46681860881525283,3.3541605452904735,-4.360211793187665,0.5660960353159523,-0.0689200229590007
7.230488481,0.16953604578234996,-0.14812564783806834,3.5607813667286408,-4.3226787730190415,0.5302059178942177,0.031081967502773408
7.330502573,0.007260554166837874,0.15100714453550143,3.6583178466038304,-4.2500291612318035,0.41556750961674427,0.07507402612503783
7.430504447,-0.1597922935790512,0.48500614450945334,3.789541287533554,-4.118200710642606,0.34205499652253857,0.11480210335356363
7.530487116,-0.3891742413885275,0.802416316146283,3.6991191677144095,-3.9916640274635187,0.28653722454363456,0.14823415462889156
7.63049022,-0.6279456910068647,1.0396945844754413,3.5375424119544228,-3.8018004551955045,0.2400954172921618,0.17537986490399984
7.730499677,-0.9319697182317331,1.2979220334959283,3.426586262562028,-3.52970587981739,0.22947728792412478,0.18244513888909136
7.830486465,-1.2677178879848796,1.416992351885402,3.344842847327215,-3.353644002999497,0.25400998286073345,0.18172996768304156
7.930484079,-1.5564960370020722,1.4482808414022543,3.2079101605231903,-3.1015157376706375,0.27779700840495436,0.18327216228957885
8.03050535,-1.8586051498650467,1.3880645304937567,3.0481008703585104,-2.8345140733157383,0.32040665056599743,0.18485280371504437
8.130486977,-2.1715109522795366,1.3169027851014306,3.0765164687359996,-2.7196863034850067,0.33884690652492694,0.2033288153163584
8.230489006,-2.429184362202705,1.1691720851339094,3.06445938809721,-2.453534375307773,0.3533298888021701,0.21648957348065534
8.330490203,-2.6780292005076944,0.9851571260234535,3.0553218061160665,-2.285581302002733,0.3814830765251846,0.22227169803401364
8.430485309,-2.7913117933541476,0.7286329228821579,3.0682362887587304,-2.0250811263170507,0.41243447536359007,0.23577049111945464
8.530581363,-2.9935714761870544,0.45030733271855056,3.046221011460734,-1.7887419065292225,0.4166218713093307,0.228888679684763
8.630497123,-2.9430222927173704,0.17069127820408636,3.097593447398506,-1.5404697906521136,0.4386323724813321,0.22243873059475378
8.730501289,-2.9478941462832986,-0.11429872183571442,3.0540642144415138,-1.3457118116943385,0.4509347950803612,0.22434349939698825
8.830577917,-2.902204749052488,-0.4843348000615089,3.1220983805488443,-1.1198824694412461,0.4511857265613232,0.22722206588911006
8.93051674,-2.7234128354307328,-0.7298353338611119,3.1002679211955324,-0.8782221755069918,0.43973168227719944,0.21376018718799536
9.030487945,-2.5441501935340867,-0.9390219772392945,3.2021480552025308,-0.6788115793431199,0.44443535767310743,0.2170674551491611
9.130488811,-2.3332126523651744,-1.1785630157130396,3.160158393661488,-0.47483579569568585,0.39604465139831785,0.222320474954214
9.230487782,-2.0077441951443604,-1.2763717839759863,3.1628933926589853,-0.26951475168118194,0.37139261680384905,0.2159493628271699
9.330490154,-1.7008149297973332,-1.337571907819488,3.1216745283098537,-0.020584591809761348,0.38569752585564576,0.2276299335499833
9.430486859,-1.3363870495325036,-1.3448842523665203,3.0666875294569502,0.21158974003954983,0.35475628190953395,0.21827700644304496
9.530488263,-1.0854920864278805,-1.2963903023187684,3.03171207590608,0.4596680568496827,0.35979098067352994,0.21877395400324803
9.630490246,-0.7956028655321014,-1.0937203396102448,3.0126189350562043,0.591600006887437,0.388899920815136,0.2257301101937716
9.730487999,-0.5956848785892543,-0.9019692942893511,3.1005386680677587,0.8570716763417655,0.4127241013032174,0.20689572932597797
9.830490408,-0.39893654481215063,-0.6715082649135585,3.0672800624963985,1.1045230407483835,0.47559334306470064,0.14731591036113284
9.930491172,-0.2252666737930742,-0.34790839560805187,3.2926042111371734,1.202420080636664,0.5719547353690801,0.024122776497491814
10.030515892,-0.10296827653389956,-0.07304998263304088,3.4462976357641324,1.1536538984040203,0.5161945437380742,-0.057455022739160866
10.130502946,0.07429472353281191,0.2744015374462999,3.574995008146333,1.1021130538897497,0.4305349004577005,-0.11218598783298189
10.230535443,0.2650500496762786,0.5286576477661349,3.5929607035659403,1.0379235466786891,0.3670017678634018,-0.16355683374657076
10.330585653,0.40916019656368424,0.8778928666537444,3.556229741758598,0.8325302809924262,0.28176626432445795,-0.1909327343206091
10.430494962000001,0.6763790702297487,1.1117529357668374,3.5016926118762077,0.6182726023738273,0.2502501322267245,-0.20403351587195848
10.530566594,0.9019673621630192,1.2669601403192723,3.2863230252710056,0.3917960216885721,0.2769792967264304,-0.21472767263916845
10.630493072,1.2998137819312556,1.3882315194746182,3.2212104117261156,0.18950511433678763,0.2892915491525007,-0.225971102139011
10.730486138,1.5647780516969583,1.430743217380543,3.1051016748936218,-0.03365453779638776,0.3318915605089152,-0.2362289210198925
10.830489102,1.9139420671549767,1.3506234226830678,3.097462574625153,-0.27765516996875933,0.3931697445135514,-0.2405615562301245
10.930531807,2.134614276154948,1.218764267399864,3.1928119920490774,-0.5566475805085155,0.42416914177203674,-0.25438539365797386
11.030492825,2.4477449404492546,1.1081004689714231,3.1140969462372303,-0.6698435213070109,0.4372624598268227,-0.26424975915089466
11.130581725,2.640134569323167,0.8344219074619564,3.104846050383094,-0.9162722048704214,0.43898007719345983,-0.2514067532576944
11.230516768,2.8204287044281253,0.5746971672965108,3.1412407669926083,-1.209148862225495,0.44157284476359204,-0.24734749739182693
11.330488155,2.9386502052166654,0.252748857879411,3.165760950733254,-1.3593440248478026,0.4312902812354981,-0.24501441114685388
11.430487979,2.955897311175457,-0.016872641242673687,3.136714325346426,-1.6381469548873027,0.41788923128308225,-0.24133586843732763
11.530496763,2.848289803147142,-0.3462264974496614,3.1097997672416513,-1.8337769786815703,0.41017198361262036,-0.24242486727138748
11.630598304,2.7929121123002725,-0.6466465876571184,3.119113231441134,-2.0002354042758457,0.38553655389715824,-0.24700501802276079
11.730487972,2.6024162521966825,-0.905003435101141,3.0332656866844077,-2.26666059564381,0.3576264203497977,-0.2473336892844601
11.830529359,2.4143901683340876,-1.0321736627760187,3.1092078952779976,-2.5000107897141324,0.3536719362753859,-0.251796806710951
11.930496886,2.0795517326445982,-1.309082426596742,3.0297884876117385,-2.816218678826232,0.36216446701885446,-0.2613891269756836
12.030491269,1.847936715315717,-1.3641341026648628,3.0450761363491465,-2.9948921007374665,0.3639195316547968,-0.25534038445728685
12.130542207,1.5021561689603484,-1.403864546892467,3.0494461505141515,-3.2374981079529044,0.4047496789503116,-0.26582771992519955
12.230498783,1.221162494893829,-1.3111900803105245,3.0457735402543205,-3.4295086984163,0.44108025012754887,-0.2702006287320277
12.330487076,0.8787017268154295,-1.2372684930509044,3.0177929866585833,-3.704123454571069,0.47005287547659924,-0.2684707171165861
12.43048615,0.6912167449187799,-1.019853406872138,3.0925114005748444,-3.9302442683172933,0.5123620612347232,-0.24874518687183103
12.530497998,0.5042378965962889,-0.7757955577053547,3.1352756986604806,-4.138365157792537,0.5478617720172454,-0.18568744853605176
12.630487967,0.3374533965415982,-0.5172635151755578,3.35284003966183,-4.289148916790835,0.5756439714263115,-0.0876572200670904
12.730499577,0.2122308690776877,-0.17535591587305532,3.5687870390238237,-4.289273574528158,0.5148071638340479,0.021719483707564265
12.830493495,0.06318901208768159,0.18786549497773636,3.6689669590061937,-4.213641203273928,0.43578926241060556,0.0758308949309684
12.930489404,-0.1651592960255917,0.5009628670672536,3.7188186083562362,-4.143971306106436,0.34449016641048413,0.11523153381532783
13.030488531,-0.3298459921822463,0.8166485645856905,3.6126318274596803,-3.9991908319407914,0.2918463466180787,0.14454744261213598
13.130486599,-0.5862074497453463,1.0888724794575897,3.5572616798222967,-3.7721519179431278,0.2632539962054123,0.17326751588863618
13.230493383,-0.8975618718529096,1.2501797333361442,3.461657699651077,-3.5012579125160954,0.2292972906939824,0.17556718286316417
13.330488569,-1.2299345657707004,1.3787086647233626,3.3840339641510426,-3.28672134366473,0.24151724937104666,0.18387571782675943
13.4305074,-1.51223647245377,1.3788845961628988,3.2350798103325333,-3.1056759364634368,0.2792110038567759,0.18801499398693153
13.530490772,-1.8326141842114723,1.3816278519729153,3.147166438927435,-2.8742034660322355,0.3033849685486847,0.19253631188181072
13.630487433,-2.144718332274567,1.322105160943478,3.037759877327915,-2.757547868134002,0.2594533480811183,0.25102388785295227
13.730584847,-2.444839096663391,1.1108434895298882,2.9326094141717594,-2.443432990543322,0.33636453173198777,0.2717701115831527
13.830503876,-2.6193616744402775,0.869079421503491,2.9049988869932437,-2.1420017460027636,0.3904526305976496,0.21039911838569714
13.93048875,-2.708260139950077,0.6522858346940281,2.9741558231469365,-1.959326659381665,0.43177981967296647,0.19827920931693246
14.030578203,-2.8680591563698443,0.32642769463195176,3.056900200484853,-1.7471867942245622,0.46150312689512973,0.20896336098542476
14.130486666,-2.851161310418366,0.05829201604417553,3.1206867395678,-1.589555716316999,0.44694804167710483,0.21957934931613585
14.230486515,-2.7942330022864716,-0.227829256842455,3.114550555882516,-1.3292461783446097,0.4184076211504883,0.21986995802392606
14.330487355,-2.76065292568091,-0.5014816876923536,3.1357890312126266,-1.0745689148026834,0.42647374705959246,0.21607380645341834
14.430498008,-2.604826604594582,-0.7988127409080876,3.108320400535403,-0.8722250109728662,0.42825416119975646,0.21537694850128314
14.530488862,-2.368777218426579,-1.0241793610921897,3.100038778595986,-0.639441552561802,0.4090123340132869,0.21077139090973507
14.630492228,-2.153403912492747,-1.2269219503009707,3.0511796113994443,-0.5009693419985599,0.40369873755603003,0.20282620615400013
14.730568927,-1.8682755544793548,-1.3079953456631774,3.0794112778699074,-0.24064071590646718,0.4048567767963182,0.20826934721700047
14.830487351,-1.585939831349632,-1.3506649151449375,3.064570775546255,0.0014399040813084518,0.36971220298672863,0.20824006158978361
14.930488564000001,-1.2842980305751674,-1.3474629740627875,2.9933314981269246,0.2576107175703448,0.36974572801648103,0.20780556176147344
15.030494804,-0.910536506251426,-1.2539095476803181,2.999697733751756,0.512041661904498,0.38524157867737807,0.2138591595200147
15.130488897,-0.7266116900992395,-1.1337055601057335,2.975539678901514,0.7154610574119581,0.38433973490268836,0.2114124481626936
15.230500012,-0.5084868307934314,-0.850669891787864,2.9866643696587727,0.939856535726933,0.4483958830835981,0.1897725397269549
15.330487983,-0.29915149886156606,-0.6197049130467995,3.0955836827237433,1.0483243332080256,0.5198740775904277,0.12413470108120823
15.430485791,-0.18138850211919688,-0.3280040904285545,3.3073411863957474,1.118387517551708,0.5514677437201505,0.025077252534947605
15.530488049,-0.03609547969065882,-0.017539238936045025,3.431014657455815,1.1626775971875785,0.5103571858261607,-0.056416170368348464
15.630583187,0.10551889413340704,0.2914084132469176,3.542561363407759,1.0991393536226857,0.4432791132922492,-0.11667389128432074
15.730494213,0.20343321526076574,0.5812065922776998,3.5838595849819757,1.0237104766582887,0.3324925129139708,-0.16405546295009873
15.830493684,0.46730915953694435,0.9050677946814812,3.5223081649674173,0.8360014114854886,0.27459795613126187,-0.19266429454635323
15.930490574,0.7217030000333201,1.159657262858272,3.424397539052942,0.6309328900488987,0.2733836033806779,-0.20203496908041405
16.030579322,0.9738943507977569,1.3337113342169957,3.2805993482664966,0.3682436872801111,0.26328614790571736,-0.21591589248169338
16.130501313,1.3411221826652442,1.368828329748594,3.2417990737620257,0.13729861128586407,0.2906934956041673,-0.21732760832066852
16.230498594,1.6130850117016913,1.3926485780861788,3.1276433048478793,-0.04799116306559084,0.35559705773087014,-0.22815120514200019
