time (sec),x position (m),y position (m),forward velocity (m/s),"heading angle (rad), from x-axis, positive is CCW",throttle (unitless; -1 to 1),steering angle (unitless; -1 to 1)
1.029990448,-0.334076642580831,0.5880559493144069,3.4311280422482047,2.3967365853866087,0.4876159063881577,0.15117572381980005
1.129986973,-0.6178168215009688,0.7435447238515919,3.434642950534657,2.605593442459253,0.3912403990907813,0.17379322279033554
1.229986367,-0.887965102904975,0.9342084329996864,3.3754494831441058,2.7866193071024283,0.29834897215251205,0.19163176852575228
1.329989235,-1.2743643784398606,1.0527159385191596,3.287279444117507,3.0564971250084763,0.254575296596723,0.19998485759482407
1.42999975,-1.6403939843678768,1.1005000098347129,3.1846306129745825,3.2817782671732734,0.27214425311305673,0.1995998196638873
1.5299901679999999,-1.8718874482378896,1.0469144244984196,3.0042925757983263,3.590453870658511,0.2810896378844163,0.2104878869472529
1.629988977,-2.133950063845422,0.854764730523015,2.9509779248821197,3.7166669702486783,0.3336823456378929,0.21077099263139934
1.729997336,-2.320400042806292,0.71635949631716,2.95238324044329,3.9708620223385385,0.3955477026664791,0.23015988398189402
1.8299867710000002,-2.591224897484264,0.5039956537790767,2.961533896897623,4.170534504987866,0.4177297618553828,0.2359771677122527
1.929987453,-2.735988977046896,0.23856224751073968,3.0535027627797238,4.415149364688394,0.4318326614047297,0.24272024616188692
2.029986389,-2.8258281995418684,-0.057152688904274745,3.001946560709058,4.6510737470559755,0.4782233708375534,0.23735303322391424
2.129988195,-2.775885395523775,-0.3988432954242855,3.032916304114483,4.8565085557123355,0.47317203642045536,0.22974652875390203
2.229998304,-2.688909915074262,-0.74005781252362,3.155954834405194,5.085871135004912,0.4897747563910194,0.22101430307388892
2.330014697,-2.6151853434362473,-0.9622644393193447,3.1572163195241676,5.2943340574588165,0.48042278802930644,0.22676668494056093
2.429992989,-2.4114431900535855,-1.209684748934177,3.103980210107865,5.619997331985494,0.4618793640020406,0.218331867007721
2.5299989,-2.1594986782566834,-1.4499132380905164,3.116255547909128,5.819578919389446,0.43540641312921985,0.21278872308622465
2.629996889,-1.8902872529532442,-1.530031175018818,3.1046356366937755,6.051001691430881,0.4201855719586381,0.2081353237982294
2.730000777,-1.5681669632726178,-1.6063738881748633,3.1324920185143084,6.274350153691462,0.40461482397722454,0.20793646356750425
2.830002231,-1.26919177645239,-1.6126263871712454,3.0894000929264793,6.4931871971358355,0.3900109984142305,0.20581318767479892
2.930007964,-1.0093406308413027,-1.4974492402622197,3.0542249077898105,6.67711738720096,0.4337730757456308,0.21614960620152573
3.030070392,-0.669297223015423,-1.3829566087972462,3.0363806553563113,6.968096983194789,0.40853995618938105,0.21124924709436768
3.130003806,-0.5276883500435218,-1.2514454439967844,3.1077046614293353,7.147515831639754,0.471776010487478,0.2050814664096879
3.229999297,-0.2677403157734286,-0.9479931849445654,3.137085978587834,7.345891869769672,0.5502774253057956,0.14993494714665037
3.329985145,-0.07971578200947063,-0.6533006444475333,3.3973466693050822,7.49554256234614,0.6248392253765985,0.03310637947208914
3.429985632,-0.01515523387265493,-0.3108340489411779,3.5610353289774626,7.483700437297279,0.5807918914915113,-0.05218151800206438
3.5300120919999998,0.12620745141914821,-0.05392408422789326,3.77914831814915,7.444511133450347,0.47017145956612216,-0.10322901670579139
3.630002804,0.28236044023524864,0.3392559843581076,3.7691220065578963,7.345166490894911,0.371191648828687,-0.14826561615511752
3.729992037,0.4959011905972092,0.6674322971699316,3.693569971803781,7.144574324516605,0.27617387670796123,-0.18549161403147874
3.829991234,0.8046390973567233,0.9053779274925751,3.507695345852265,6.982690042618847,0.22869316042988524,-0.19355870493756422
3.930002309,1.0308578567562545,1.088114451525696,3.411586761392885,6.832616473738953,0.21718933983473418,-0.2113892147092401
4.029987339,1.3575660069448545,1.2621286430574685,3.2791789300151732,6.562938763165675,0.2279022682884306,-0.22297249237759914
4.129989518,1.6614506393124606,1.2949284551887252,3.2145095184155634,6.27578799327441,0.2933061189152504,-0.23942641191507127
4.229983489,1.9173986181585925,1.3125653091545535,3.1218308203943668,6.069614811139632,0.3600805051832142,-0.2724259978621319
4.329983543,2.2594509555292195,1.220840065917488,3.073964379587573,5.819398181486507,0.411457203458988,-0.2674712985397052
4.429991686,2.5075515299854163,1.0167382995143224,3.110996226948979,5.6260407528860155,0.46529774764391635,-0.2658381619554469
4.529991515,2.740038120286354,0.878180699660557,3.0868214700838625,5.449036713775228,0.5131033530154552,-0.26384570465172447
4.629983577,2.9319916870563265,0.5865270963606247,3.1528284484845632,5.079766089311843,0.5224258961474043,-0.25921482315410826
4.729999368,3.0036447035018163,0.27782930088780394,3.1704697651706018,4.886809198262666,0.5021594310834333,-0.25389768058446643
4.8299912030000005,3.0979227294723355,-0.029891513708078184,3.2005280663383284,4.623986693812047,0.5156051285551012,-0.23561951086093672
4.930054126,2.9499031253708967,-0.31852196450445636,3.2442902572908454,4.391077880225041,0.48698595045126136,-0.22553895400438445
5.029984942,2.9065784355691333,-0.7256781082066789,3.251602296034028,4.219721698017472,0.45318562468512025,-0.23825933895348594
5.130017424,2.724187720710327,-0.945546427732073,3.1956869955628617,3.9877425022168826,0.41837832674702324,-0.23343206893299628
5.229987715,2.566273721094646,-1.1303114047073914,3.2183165716179336,3.8160695929589856,0.3851482790488921,-0.23668288738289106
5.32998423,2.1637038002792486,-1.3572520310265175,3.239347899574046,3.540603153720527,0.36533760206945015,-0.23958950832821355
5.429991348,1.9026019447906397,-1.3673254555953238,3.1518060469914,3.328722115871437,0.3723864738576477,-0.2473489800482775
5.529994322,1.6015231439046576,-1.498637943111442,3.0458727768821445,3.181692039627392,0.3962072413629977,-0.2569782939594208
5.629986232,1.3407587716038025,-1.3991268100118697,3.1186304866711034,2.8547624305092594,0.4392553390874714,-0.2680192787048301
5.730051721,1.0210424101835658,-1.3293791069732666,3.0752300469215226,2.679964917854788,0.4917751683218994,-0.25860638785137113
5.830077012,0.7439608335872295,-1.073228786345027,3.1601983551165547,2.34636077786553,0.5412072102025104,-0.25330666406882363
5.929987584,0.5135659283092797,-0.8362647268938236,3.2253209448775175,2.1629625048735286,0.5949371147088095,-0.18382123354150065
6.029987406,0.29888285955457033,-0.5865032964424017,3.443356872982634,2.0071480854023265,0.610615897909348,-0.08393932235376224
6.130016131,0.18129270569218728,-0.270287971655405,3.665004557816457,1.9896015524240906,0.581784746150167,0.011043953197838203
6.229983655,0.11714737584686712,0.0890846037265787,3.81102918896796,2.0477959405072457,0.4537586318348455,0.05576912658470104
6.329999104,-0.1762954936585944,0.41738582124647566,3.8086745033946503,2.070527170733756,0.3591641144235506,0.0917112286086438
6.42999709,-0.38753898813013665,0.6725316339149228,3.852883154205279,2.2576595026763537,0.3074979057485036,0.12608513071406316
6.529999943,-0.637547798730992,1.0158457532622707,3.784987457340843,2.53470078263429,0.238041475844129,0.1555453728825562
6.629996747,-0.9702586592488706,1.243711398769295,3.6074666461432727,2.7196678649206456,0.19657022503043126,0.16915893041326635
6.729998878,-1.2149043358083946,1.365188233475817,3.4856698514998397,2.849531900924926,0.2054591883163155,0.17932159618739033
6.830084947,-1.552596460624041,1.3539527057956833,3.2540129422864146,3.1787999214708407,0.22685980597959815,0.17959747817689764
6.930083883,-1.955450385690488,1.421404663955399,3.16174846316387,3.3522893614443916,0.2823438103917342,0.18069918231610846
7.029987552,-2.15194175503521,1.332039427340462,3.0600285005885564,3.578283521745887,0.3237529295774065,0.19999509110399238
7.129984221,-2.4518648530043428,1.199445109460928,3.0578149577080143,3.7595175936367666,0.3587895309489584,0.21679201936579964
7.229983154,-2.6394497472764087,1.0306252957913975,3.075048939788133,4.010779194053167,0.40213035847713485,0.22819811282259644
7.329983462,-2.8866539831189284,0.7122888388450109,3.0810288232142717,4.29187019418399,0.4593261649476104,0.22709371374008738
7.4299882440000005,-3.009908086904505,0.48269848256877806,3.1043479364001714,4.444783272400916,0.48198751639359383,0.22092709015718345
7.530060607,-3.0385559834309053,0.0938101466157123,3.1553553435347097,4.762650503519397,0.5087201605312662,0.21342824366001867
7.629985969,-3.0143348123603477,-0.15390564826809752,3.2240712426999165,4.926000590199169,0.5311941293276328,0.21092445815045707
7.730003642,-2.9610314925373764,-0.5104379877008204,3.2972127139125416,5.151878378402759,0.5025673828798847,0.20533336456382778
7.830003879,-2.7258812074594334,-0.796501501748803,3.220170246758374,5.343248235494137,0.4758175647807541,0.19770829700445508
7.92998625,-2.6144510690065643,-1.0269385693069633,3.221936314925992,5.578012325343266,0.46529491287273234,0.19269916156677402
8.02998974,-2.352987235069152,-1.1936942208145267,3.250120981829977,5.797075120846541,0.42086562007246126,0.19416451255055567
8.130011158,-1.9880589758827196,-1.3953706332076918,3.2506931503180554,6.026760201809213,0.3817203981820001,0.1939857040567983
8.23000246,-1.666315243009618,-1.4523977649337427,3.2344542311094444,6.244474699947219,0.3638219250082517,0.2046047143268974
8.330049599,-1.3983955457315147,-1.4430903686512078,3.206838801203792,6.454035817741726,0.3439335100464516,0.2008977286442255
8.429982665,-1.0825535153820367,-1.3517049043221177,3.1160102843438393,6.700162805276394,0.34179038571694914,0.20362845155130657
8.529989587,-0.7663859572455245,-1.2127430351450326,3.0181788712408313,6.899201086948663,0.3707955444396843,0.21049949580551025
8.629987434,-0.5588284162867385,-0.9998490110396315,3.0242461481424168,7.0825567663953635,0.4265495800851664,0.2146334865514058
8.729985053,-0.34875159250465076,-0.7583316390873253,3.0846688330887564,7.2942971972006765,0.54498531629458,0.1428930838863046
8.830002324,-0.1876488070580885,-0.4917844928612893,3.2917864532830676,7.403270543044254,0.6041022555356463,0.04994173158987125
8.929987488,-0.11005383609133776,-0.1970819636422091,3.568089720716479,7.4375635112637015,0.598749667559328,-0.04735497571502986
9.029986608,0.11319802978165691,0.15445462549813643,3.7605077336125796,7.400046944230743,0.4849581762259725,-0.09708102278927548
9.129986936,0.234471939768811,0.48750453974335844,3.6800862051220435,7.341407100211978,0.3645511264531899,-0.14098869616033596
9.229987897,0.4167430024746964,0.8191744584199409,3.715326294416819,7.207795926829273,0.2946287584881969,-0.18408695129292768
9.329987693,0.6917957672917374,1.075240080282054,3.555603132011797,6.976439707557932,0.22615214803707623,-0.2025561503581683
9.429986622,1.0260730364995632,1.2914838621747204,3.448557780087133,6.720413651752354,0.21578423978140499,-0.22052408049310854
9.529990214,1.3248855355681572,1.341432085628373,3.227773706409026,6.567672185806585,0.2458993795030165,-0.22201557306866032
9.62998801,1.5527990173681394,1.4798923835077256,3.1657396725233777,6.344226936890724,0.3071045184396816,-0.23741556818085102
9.72998799,1.9033866629504448,1.4552125481311298,3.166264252006432,6.068731089471976,0.39002255044410344,-0.2406455735378214
9.829986337,2.1601798410715647,1.3188033622135311,3.1538670129213373,5.786585065490858,0.4762398566654458,-0.25716187128711965
9.930044787,2.428836824161465,1.090770531803194,3.111627456136441,5.587392417809538,0.4872667190489567,-0.2583325318622054
10.029987121,2.7378296967008073,1.0044234591740069,3.1971651172627285,5.391042618834211,0.5045882606998228,-0.2620294567507164
10.130098635,2.8167091924206025,0.6729191611518952,3.2123061251204064,5.146189801438603,0.5387434108308133,-0.2520553197297009
10.229982327,2.9394091411120873,0.3689069936569519,3.239097253175964,4.865787175111016,0.502909876277915,-0.24383427087347742
10.329985297,2.9766485852338294,-0.03775377486359099,3.2302859377472273,4.634693423165201,0.48025521674187727,-0.2301449756846468
10.429985572,2.9390194285328235,-0.3030987965183375,3.293501732143521,4.4207782559047075,0.4755683751676269,-0.22291198896174366
10.52998852,2.802636706950631,-0.624870863912792,3.318080950434097,4.190884518496865,0.44473832205903135,-0.22420119375873782
10.629988754,2.6261458469583028,-0.8869244822156931,3.2646743188643,3.9557545679768333,0.3969923838642751,-0.2258714681319899
10.729985649,2.374072028021179,-1.071894060445028,3.299335239998134,3.8104604244110543,0.39146439190166804,-0.23461204611545344
10.830043373,2.1278319970549444,-1.243505120613466,3.249487805906857,3.5174573456235674,0.34786509011877714,-0.23870310908293724
10.929999065,1.8810400365624844,-1.3639015433817674,3.1724184934505772,3.3634145297173696,0.34024544365808035,-0.2483442998285229
11.029986453,1.503418294754435,-1.3463746481957322,3.1392523812736046,3.0800983202218712,0.4021882607027027,-0.26044843890204383
11.129983822,1.201153490580024,-1.2726813109074386,3.149887141785806,2.910309233104163,0.42088613623576154,-0.2607766338821586
11.229986682,0.9740652981207675,-1.2388176399430808,3.099933680001138,2.6061430171550324,0.4765911347932515,-0.26482500579073087
11.329984845,0.6426301303455616,-1.0805829717004738,3.1320969195882773,2.421853235657854,0.5547810718663003,-0.25514909665999363
11.429985126,0.43355265229778767,-0.8180494684425779,3.2038611323389206,2.157434387016625,0.5886778379876476,-0.17940835684177667
11.529987834,0.255312933252666,-0.526616423892392,3.435812521063767,2.019423131682765,0.5893174842350813,-0.08902650849518684
11.630071916,0.08660288481835615,-0.20403805299117062,3.714611504228326,1.9932722063030894,0.5885475338665233,0.008676970065134786
11.730048182,-0.07906565091831591,0.11137504331420221,3.7798027044253457,2.014310175504872,0.44084729884449586,0.05085431854145471
11.830083508,-0.2294664506539714,0.47024240076923146,3.8427742126499522,2.1378453604180483,0.34816649942617356,0.09139521339942315
11.930044587,-0.48482731251026445,0.8029953149105487,3.8328265769106316,2.3434470015355906,0.2926337341584421,0.12912144977371942
12.030071919,-0.7062980044772994,1.0197618603448277,3.7259205468665684,2.532889359129962,0.22340486191495,0.14769340573445272
12.130037762,-1.0869690150326146,1.2668298363982904,3.5720411910657384,2.703414788328246,0.2005279598695136,0.16361495805731646
12.230038891,-1.3884938486738312,1.3886661824908555,3.4047250594943357,2.914254654970303,0.23003211300773868,0.16515755976516577
12.329998377,-1.6869254690587836,1.379084260099921,3.2865665649242164,3.126013526936184,0.24283806198518948,0.17545344065222096
12.429983905,-1.974924027612638,1.4363190690567431,3.176578106840961,3.3511161184251583,0.28810104437792117,0.18437456382074655
12.529988379,-2.2708354002210283,1.3605239727524574,3.0823107528442075,3.6248676401279853,0.3317287808384784,0.20110800482552807
12.630000221,-2.578331006301216,1.1776672430521014,3.070715854715251,3.833918617428585,0.35656707952022487,0.21307599250104545
12.729981838,-2.7877930992445714,0.9939759463263577,3.1586700852343124,4.0694799659105065,0.4061341805287897,0.2195070837863616
12.829982129,-2.898213692100802,0.7232823261955956,3.0447579014170043,4.316164456461214,0.46518734869447864,0.22273573769804506
12.929983243,-3.11313921009601,0.37804388282177487,3.1218594114350906,4.538396940280989,0.4847187784446228,0.21291352916691128
13.029989508,-3.089696556312921,0.0670558391617693,3.1251267574280295,4.764481393966432,0.5281475175044689,0.20661340027892636
13.129987852,-3.1270923816733864,-0.16496734198371946,3.229783735490916,4.987505417340742,0.5287315833818846,0.20328453089099735
13.229983582,-2.975948473391199,-0.4886495946703461,3.2384736134104575,5.207824508766447,0.5043230053408111,0.1912947897423117
13.329985942,-2.8044866024856936,-0.7725881256690813,3.272199608018581,5.487728124337172,0.5079547616477141,0.17796778713567854
13.429989874,-2.6465334941709435,-1.0110243517452442,3.3128155686913314,5.6614795293606335,0.5076835807118273,0.17670445001745327
13.530053081,-2.2854112771209927,-1.2051187756066883,3.2665322188228525,5.849250879992318,0.4422556822313519,0.17278230683817694
13.629993004,-1.9934831134376894,-1.3223497600849434,3.297335947987305,6.0788781634953155,0.38901906970226213,0.18330395923324272
13.729985386,-1.7127097315300632,-1.3940545049854507,3.216586297406243,6.248883561109598,0.3598635812356966,0.19103535366898455
13.829984808,-1.4061665772052245,-1.3833308257296262,3.1932087364974397,6.482540964530725,0.3365912324585038,0.19378119796577334
13.929987328,-1.0362083434449587,-1.2915631648852812,3.099903644791966,6.749768222752661,0.3345012350070013,0.19599788923835124
14.029997176,-0.8390349081134997,-1.1419004064222413,3.085857497597856,6.9652847437554435,0.36554728484909244,0.19824615716216357
14.129986206,-0.5571816240971211,-0.9864234600622004,3.031188635073033,7.241351679098396,0.4035305501104953,0.20483255759198485
14.229988602,-0.3666265621845132,-0.74089772628348,3.1264562292505107,7.3322602944093225,0.5267801971379741,0.13874793494503845
14.330031871,-0.25447625430701537,-0.4382357312201692,3.3095952640349413,7.530731394290844,0.5986632657171553,0.03384583868458669
14.429984534,-0.09396893069797513,-0.13534788570705547,3.566106802154437,7.468051026533114,0.5813197928508093,-0.05204470736401936
14.529998608,0.0966383446618317,0.21103530186626665,3.7192130063069553,7.3429526745337235,0.46160982536507433,-0.09926090490447453
14.62998574,0.25602912274927037,0.5699524118422102,3.7015603283330045,7.307757547551638,0.35542518881987395,-0.1432557292166182
14.729985923000001,0.41387235807714784,0.881720522161754,3.699872041301203,7.165342300244934,0.2966509392160915,-0.1796897427253882
14.829987674,0.6571226304440569,1.1160698953620736,3.5802808999442344,6.9782960690547275,0.2300051750565974,-0.195601915914881
14.929986017000001,0.9677965844088529,1.3201428621966478,3.407348014355415,6.716361347591482,0.2247934766836669,-0.20814708720026823
15.029987099,1.2865934277769833,1.4359160064691872,3.31012960276505,6.544202339383331,0.26032047745687564,-0.21704036961811413
15.129988785,1.623015672788784,1.46519307608594,3.139195943071562,6.284072324636947,0.3105595302247016,-0.23445171623089262
15.230019766,1.8642888457197593,1.4945454249285957,3.160759443573447,6.118311726121845,0.3898328574268969,-0.24719204496129502
15.329986835,2.240231118024444,1.3549862478389212,3.1755753858445837,5.838965677522759,0.4577669527008781,-0.256215882753378
15.429986344,2.5180538607657863,1.2025333638766555,3.166652531586946,5.532126857024369,0.49098893263492255,-0.2528878484833465
15.529989304,2.633354565126024,0.9651459508803025,3.2193836291019946,5.307867539195373,0.525972520674185,-0.2468371510060745
15.629998081,2.904755791912449,0.6838232047919015,3.272282224298838,5.106683462849801,0.5163323938781061,-0.24297362300334008
15.729993176,2.920646329803248,0.37428915717152944,3.2783171756628433,4.830288036505534,0.5142225894757205,-0.243179416418584
15.829999181,2.974874529676488,0.05854035607482584,3.3024500449580607,4.650708067404876,0.5178665274440372,-0.2179372526693464
15.929997699,2.8905184402637265,-0.27893309906069436,3.3567547411293135,4.3544969259584665,0.475651616540741,-0.21675279599696534
16.029984192,2.804894218650524,-0.5922580799339404,3.2643220176443464,4.181614935045343,0.4262396318882743,-0.21846669528258392
16.129989266,2.6174499730118717,-0.8317872027047045,3.311503059907716,3.9985601860003106,0.3945769769912218,-0.2180973027071916
16.229997118,2.3820029572766632,-1.0891771034229076,3.2626124864647523,3.7944129429705087,0.3707287149142426,-0.22632884005946982
16.329984884,2.096561154061271,-1.1927279240435698,3.125251580224926,3.585118559147844,0.3334008267942562,-0.23524911115229277
16.430004077,1.8299790168628294,-1.3860453366963594,3.1834515499543548,3.3700762419111427,0.33653289197467257,-0.24589824548992298
