time (sec),x position (m),y position (m),forward velocity (m/s),"heading angle (rad), from x-axis, positive is CCW",throttle (unitless; -1 to 1),steering angle (unitless; -1 to 1)
1.023846417,1.743774451197404,-1.2402501774990136,3.3447591846800595,-2.961766673552303,0.41170742559005746,-0.19065126923413994
1.123891418,1.392926588147196,-1.2614892537308233,3.2160939440690157,-3.163049894877889,0.36183682689724567,-0.19546414021359176
1.223826388,1.1088780251085235,-1.214017035765353,3.05998967569568,-3.37444795791611,0.3328422872949214,-0.20047746003156744
1.323900127,0.8196619827807015,-1.0457448393624713,2.999098777261459,-3.616388919262117,0.34562751058453783,-0.20131987138537916
1.423845995,0.5634833716300159,-0.9508187378582744,2.9799941272289154,-3.8705091530330855,0.37033352145793863,-0.21624940904590065
1.523835315,0.3582556152373699,-0.7508777649718421,3.001791227708867,-4.114710504539135,0.5012809059243929,-0.1776347802709986
1.6238461480000002,0.2660682130343833,-0.3544482210225363,3.2099390176873723,-4.24690316172042,0.5615773217697905,-0.10533184973150238
1.723899434,0.08766177474573048,-0.09700694004759572,3.47090014617364,-4.268000526013171,0.5899507533721106,-0.006806352589734996
1.823903868,-0.06610223648147658,0.15160964717804018,3.642772940469937,-4.2564725620604325,0.4816541869475509,0.06061490196812981
1.9238877030000001,-0.2734142586388564,0.5070512344372836,3.6457350219019244,-4.2779527762425245,0.389694073438604,0.095616870583415
2.023879363,-0.4064875280105872,0.8202618406659756,3.638889816830797,-4.009448880743563,0.3150025175826591,0.14055950762164124
2.12392277,-0.7205545833332893,1.0392914585264346,3.5572697260949244,-3.8529860017639472,0.2469111014901089,0.17179021518222318
2.223880804,-0.9314345717796361,1.2841468156102909,3.425424057670288,-3.6604401139987397,0.23474539014194734,0.1836209828845334
2.323897402,-1.290980445529272,1.4338775452709793,3.3123636409498594,-3.41098859291728,0.27419935784739297,0.1911175556863233
2.423828209,-1.5987936320845244,1.4859949023452965,3.221797081289723,-3.197736962901599,0.3129287233709177,0.18767210718665156
2.523904057,-1.9462815973598275,1.4505439745224944,3.1359071600003503,-2.993108574244678,0.35226702512084956,0.19319283846262575
2.6238740700000003,-2.1705410528348485,1.4036651254989558,3.1647864829627204,-2.742444749636409,0.406969091303812,0.19650490752324873
2.723914732,-2.549420774098546,1.2322599605287883,3.227231252887834,-2.5113003131735603,0.4440699987339525,0.21135076688606774
2.8238283,-2.815937613068326,1.0134640868230977,3.21447386561074,-2.3062475424924305,0.4466787429884131,0.21888945969788384
2.9238251330000002,-2.939408459446705,0.8072628787106213,3.22364991337249,-2.0978437374527577,0.48570498608759316,0.20511166536467632
3.023881483,-3.0586393715260223,0.44744512973269435,3.2206130514345515,-1.8592839703576747,0.46791912279960696,0.20744588453945353
3.123831189,-3.166174557863703,0.1465916551199454,3.2635401849987993,-1.610725734571045,0.44349782103526675,0.20923955189993376
3.223831118,-3.133607428454869,-0.15045004721203661,3.386127574106417,-1.3640098391994382,0.4181748126860677,0.2024806078785695
3.323913421,-3.0198953782598577,-0.4584739071326641,3.1821987351948082,-1.1596337464602464,0.41255322098274466,0.20705622444385965
3.423825698,-2.865721322998519,-0.8038026581920109,3.2225003126583323,-0.9384983746788749,0.3662465104625079,0.20642705948377724
3.523825034,-2.6774432000672377,-1.0374180988454316,3.2373194542655934,-0.7249495547660031,0.3934291612372856,0.20935089816066121
3.623825026,-2.383328065446162,-1.2490577519145203,3.1667611736142667,-0.5001028854340194,0.4230576512885357,0.20964322614337572
3.72383299,-2.1100930067097865,-1.2192885017607669,3.0899894719406804,-0.2684991361086387,0.4399001551416105,0.21345226719796231
3.823829417,-1.7934174597644204,-1.3284694520595717,3.237916951050814,-0.00024605753353980223,0.45256932977277514,0.212215654654915
3.923831736,-1.4354315021047979,-1.3493023011299314,3.27103925130967,0.2593375290092215,0.46056832161746464,0.21020151075463436
4.023827025,-1.1189699730613263,-1.2486051424875009,3.268932753372907,0.45587106169214425,0.4558327197139341,0.2093506737260636
4.123888654,-0.90304987562312,-1.124387075640356,3.274369394595665,0.6675398215570035,0.4425149394312269,0.20058155985781487
4.223896683,-0.5987595037526251,-0.8284142382600788,3.3260400119013442,0.8820454675688856,0.4677218791059618,0.19448382431042993
4.323889752,-0.4142828491289305,-0.5893991404800845,3.4018361443095677,1.079166741824855,0.5399668454669778,0.11682518861085464
4.42387426,-0.31041618492734613,-0.29706102299540044,3.5091800460975526,1.197308063536796,0.5583709968076244,0.024938272131242167
4.523829362,-0.1552034815566705,0.07307091248261874,3.7597388334204833,1.18222436494425,0.5294603748615953,-0.04765365164739304
4.623888071,0.006960491264885321,0.3492203090533726,3.8684637368655497,1.0559663316444898,0.4612665528729518,-0.09719327136886484
4.723853195,0.17673156660913653,0.7258128797465987,3.8429942219134814,0.9146778441907029,0.37462466207528705,-0.12203656904740848
4.823859399,0.4482021568202091,1.006521315202334,3.7336265017556447,0.7873516859364358,0.3195057255239476,-0.1481469746126558
4.923901681,0.7651629166094844,1.2062499213435813,3.699289129125577,0.6494394080048452,0.3032077624566941,-0.16075925371062033
5.023876622,1.0729884650612986,1.4462076424387145,3.504827869757291,0.41134358380993274,0.2610010899577226,-0.1663782660440994
5.123830979,1.326354202479821,1.547994896761766,3.36448026620576,0.1918622449012467,0.2662257025884697,-0.17600324873587356
5.223890141,1.733555278619491,1.6308272765416394,3.2194425160760414,-0.07042905075268219,0.2882239622162245,-0.18513038736924264
5.323870027,2.0105858848730276,1.6348886193723566,3.101749525423359,-0.2777833018288668,0.29579083705381876,-0.20104160742861263
5.423888487,2.2435830348301744,1.4582239583679886,2.9974260074606405,-0.5077693097586988,0.35413279108164913,-0.2136785584194227
5.523846637,2.533984112353731,1.2955657893272265,2.9824743714796886,-0.6950688893304932,0.42488817843738985,-0.22659578313545692
5.623831989,2.7149462746656425,1.112129949123353,3.007115636091877,-0.9070308772293488,0.49551988029108696,-0.23915601796111674
5.723830989,2.911061422483849,0.8351691073627124,3.036611818873569,-1.1098999927351554,0.5612678496694548,-0.23865299809164212
5.823886865,2.9962317286268747,0.5074061200436313,3.1592118929955864,-1.4130327625026398,0.5944095986815136,-0.23195075767963994
5.923881412,3.0503355993315644,0.18899515239472675,3.2433332423778256,-1.5870988250502802,0.5820628597557965,-0.22920255542225043
6.023836676,3.0220087244732543,-0.11466326077340408,3.3645239251559507,-1.8724784188902455,0.5550543706910955,-0.22382279308989733
6.123919588,2.914107496711393,-0.45923898318994555,3.3954973154319,-2.022327726615545,0.5392632570170872,-0.22071403343474638
6.223922144,2.7386241159513403,-0.7544896883003998,3.422449473542252,-2.228766376895187,0.503058579443324,-0.21746417810163174
6.323884852,2.4938094686834003,-0.9844164969009213,3.300160073086831,-2.527932237748507,0.4782953258778259,-0.21269570808091634
6.423838055,2.237980355290388,-1.12775435089465,3.322540411873651,-2.7488196573713104,0.46121948073695307,-0.2033320709372972
6.523837545,1.9068135721940749,-1.1941674546622714,3.244744496153529,-2.9146977226618938,0.43165437014556446,-0.20627111381215735
6.623838081,1.6353125394452097,-1.3281469187116934,3.251446622430271,-3.0989365671974816,0.37314935542822736,-0.2160309671474153
6.723834777,1.2812217676093165,-1.2951336597625873,3.109306749328139,-3.2957818687630525,0.3532594823742309,-0.21334414528075396
6.823833695,0.9887889333784199,-1.2092086972150884,3.023164813483883,-3.6056390950656287,0.3622212159566122,-0.22027885248042617
6.923837078,0.7455272142976195,-0.9908885415339221,2.9747655534665354,-3.8314049388402402,0.36441269723950936,-0.22621329316457103
7.023875017,0.5010098070635138,-0.7734345311101569,2.9565570212190244,-3.982764430302213,0.48698074614444253,-0.19571392852619654
7.123876418,0.3389558978256708,-0.6018723077906792,3.1983917508008224,-4.152704432845144,0.6201618599483822,-0.10707717206269234
7.223874762,0.1679987957989134,-0.30716667088595745,3.4728192490848073,-4.240019072026473,0.5897232603717687,-0.023443536699113508
7.323865305,0.0009943716602959715,0.05047005089935053,3.6312838693279508,-4.218209382172371,0.5029060792520981,0.03911548239112988
7.42387814,-0.22486164616682397,0.3045477732600159,3.7885734251854704,-4.126357386125591,0.413283078821366,0.08731901551245541
7.523868443,-0.5026442367785752,0.5938680507039318,3.721789833202125,-4.0174220321146965,0.32830665112247326,0.12564022920644663
7.62383012,-0.6528324379355634,0.8638881014837797,3.5735587318846576,-3.8154840330646445,0.267425159589597,0.15539360925638895
7.72385912,-0.9777416761400849,1.0774747520171217,3.4434219506149617,-3.633434902298546,0.25716170853668946,0.16539780041036123
7.823879241,-1.2829375741018276,1.30611640429897,3.4228960764157943,-3.4174316487604615,0.2570416778618809,0.17660448349537497
7.923846141,-1.578286458510346,1.3262354223081465,3.27260946095428,-3.142552163797565,0.2856214033799147,0.18555572334378448
8.023871659,-1.9820269057560915,1.2929902408884695,3.112424224755967,-2.915456040752339,0.3537618642195663,0.17921875618005545
8.123871127,-2.194927323111093,1.2227297548400518,3.1096959159926714,-2.705335853196331,0.39172902400241855,0.18877150804370452
8.223864936,-2.4487090578823305,1.0720093266135902,3.1283053287794176,-2.371894347107382,0.4211205543204468,0.1992514622816807
8.323830296,-2.6913637394986694,0.7948333120973464,3.155318368985428,-2.2228009131140443,0.4587674469825166,0.20415931383576988
8.423831171,-2.894337892677943,0.6265093225381384,3.197643407042026,-2.0185432318856895,0.4724858710590523,0.20299069735816846
8.523875513,-3.024433114025995,0.2686052183631297,3.2427522372801114,-1.7938331095009814,0.441776389450672,0.20101647303433592
8.623864591,-3.0622047019167185,-0.04180086136785712,3.31286600984972,-1.5947774420590382,0.4225432412398185,0.19865022249817096
8.72384124,-2.9860522025921816,-0.3358817093486644,3.2306927239263046,-1.3408944361909052,0.4128455280893044,0.19430858636514678
8.823834209,-2.9122558163409034,-0.6664711780872171,3.1970437874745574,-1.1135835220307133,0.3772635193431009,0.19012294791268095
8.923835778,-2.777377205559534,-0.9001614937914932,3.209304680722407,-0.9232644772621373,0.37114710816922747,0.19391067112166208
9.023837024,-2.553687969946085,-1.2102513294950659,3.164764550735584,-0.6447432098106132,0.4113725981556001,0.20141407878133752
9.123836794,-2.2710215592806997,-1.3305371568887594,3.145169416225313,-0.43218930457871524,0.41947077299209673,0.20645255873292914
9.223837264,-1.9962541044668087,-1.4538637506111587,3.1410781114205593,-0.18813082747079043,0.4358500128942633,0.21004627998535627
9.323825616,-1.652334717626038,-1.4564404769950547,3.212730718942807,0.04318693018425802,0.4671078961469232,0.20667426988801835
9.423878427,-1.3329790254293383,-1.3829153673367454,3.215197446617615,0.24594645663147424,0.45098220324539334,0.19933976173083867
9.523830068,-1.0610435658614454,-1.3345219887866502,3.2726573059957045,0.47799462743286547,0.4533014052547622,0.21568684126625798
9.623831686,-0.7652013456222309,-1.173870196334109,3.2825225533272735,0.7442355356918482,0.4572556486410175,0.19595309219007917
9.72392246,-0.49858729254713036,-0.9755613636298536,3.322185941049168,0.9348986935986232,0.45418439077448886,0.1903504832687893
9.82383816,-0.3562204181826252,-0.6455591901577302,3.365871953810344,1.0995851662958058,0.5272711514175802,0.1217231440812715
9.923834117,-0.23306067023457025,-0.37592263598915576,3.5398200602577634,1.1414158008352469,0.5592908616648254,0.02186974665813923
10.023893165,-0.05347999760126424,-0.04370632251964615,3.7069293082296317,1.1893956664331617,0.5465006367186445,-0.05515513487395078
10.123826697,0.1359467159996474,0.306627702790823,3.778786306313617,1.0750588590127994,0.4469754870414658,-0.10132202764907697
10.223877302,0.2806157928945453,0.6387251572936369,3.767850153545076,0.9273601980877146,0.3730943843272941,-0.1277046959459995
10.323888901,0.5484494370005967,0.9766993633541908,3.7838022626151426,0.7769384621943931,0.33784835866683033,-0.14900747686040144
10.423886694,0.8385373569262815,1.268709226190956,3.594657252773415,0.6077337849345626,0.2987514527202617,-0.15726172823775328
10.523830674,1.0799244835210104,1.3658745105631773,3.4654933793707285,0.3060910945427259,0.27835873592505844,-0.15743814174154175
10.62385103,1.4487124490395356,1.512708540377916,3.346539702007864,0.1619637854965627,0.29994853140841565,-0.16190460516095923
10.723832634,1.7012301574209685,1.528609655947333,3.226547990042234,-0.08988682953379229,0.2821977012563256,-0.17573377751117786
10.823836088,2.1020824621476697,1.4993568490615508,3.049838924637393,-0.25462398056839664,0.29592966027568074,-0.19528425095266252
10.923880082,2.3937927839187787,1.3622090019129445,2.9923735677505983,-0.49819758374062295,0.34275876031359753,-0.21477864277957892
11.023874392,2.6373254379848023,1.2439586095166597,2.963004511708029,-0.6598507546443501,0.40117826713837373,-0.22755173563097839
11.123853304,2.838841498640131,1.0202137585490643,3.051250618219264,-0.9378383902807675,0.49087440955022804,-0.2420168732172032
11.223835206,2.9644452060081283,0.7174244425492523,3.0353374211392343,-1.1493453969281333,0.5632782455987321,-0.23814292910134136
11.32383392,3.140333630852452,0.44651065812007534,3.101400543713487,-1.4335859932427755,0.5921394658259872,-0.23571836617580566
11.42386447,3.1072356314953797,0.14647050751357296,3.267384921229114,-1.5719975123085146,0.5885184067073677,-0.22996091650797076
11.523899368,3.025867056138178,-0.14683743865335472,3.359934157310385,-1.8338561563949007,0.5895415035324898,-0.21650777553375194
11.623831722,2.9044096593458075,-0.4955661063157189,3.3412964859390284,-2.077247795482283,0.5457203964982191,-0.21869439145164
11.72383635,2.7980863772468196,-0.7865735942945116,3.3613867016977683,-2.33208981132343,0.5123761567712609,-0.21567593218523348
11.823884979,2.4664604397002465,-1.0261142673081742,3.320773703563659,-2.560070726510127,0.512420231587362,-0.20559020997923066
11.923878517,2.2194871112398395,-1.2408848817548563,3.3464728571309252,-2.6832354923270847,0.4631577617001858,-0.20187056026831893
12.023875068,1.8942001682364906,-1.3042451583009076,3.249304367074578,-2.8994287752728045,0.42907743672080434,-0.20256692336597948
12.123835715,1.58950429516109,-1.3553929289798932,3.1170077780942242,-3.145159023385911,0.42821018956797047,-0.20908306501574916
12.223888546,1.313940406924058,-1.321000452089801,3.1394133103647794,-3.3793567739894566,0.3679038489584981,-0.21263882892375996
12.323836065,0.9728995350335441,-1.3160446485346022,2.9421010988056553,-3.60231190631291,0.21117175417597384,-0.28474389159714925
12.42384407,0.7658508769578821,-1.0791420326929018,2.7940489224711835,-3.929243466162244,0.37327698296259665,-0.30135607734243375
12.523834303,0.5836406358913097,-0.8456640132858645,2.889540463327528,-4.10360835956696,0.5471019577471002,-0.18047141647721268
12.623838248,0.46203218008869135,-0.6206433604673454,3.1381107834305704,-4.260208779543559,0.6371492511449218,-0.08265902410525068
12.723834026,0.2922742642942599,-0.2986812716185816,3.504567258628803,-4.256659884264851,0.6068811006908864,-0.006546699876203606
12.823832837,0.09875721001416791,-0.05473513723819766,3.5780865226284297,-4.194213544081131,0.5173157598296094,0.05081514188573086
12.923891449,-0.08508940174330583,0.2972222435448687,3.6841999311504496,-4.175579882977502,0.4056403827209645,0.08875300195264245
13.023939121,-0.31300436511939544,0.5911225833664259,3.7314375182891064,-4.028694392557946,0.3706187190978438,0.12398705731552458
13.123836998,-0.556653958175169,0.8433279211643292,3.6129288794796226,-3.8767703707826326,0.29440655461904497,0.15235792450614977
13.223844251,-0.8447901609405101,1.0904247473583033,3.5567248792846464,-3.601980346770414,0.2492720708533586,0.1802929237098006
13.323829486,-1.1103596726675549,1.1824575794222238,3.458727068128989,-3.3345897360466155,0.26812998988264725,0.17031653207248185
13.423871559,-1.4792820955313148,1.3128411053471427,3.330108973648483,-3.1537181565843846,0.2902965732738957,0.17394259618442154
13.523866038,-1.7653022000188816,1.2846005409457457,3.176221867393305,-2.914326522660455,0.3422917080298629,0.18864952954687844
13.623864941,-2.161820582583698,1.225710018171803,3.150876617850052,-2.6942705257560853,0.09516492710182194,0.20676304320570554
13.723837235,-2.3692296474088277,1.0596647597700262,2.7863082309575833,-2.4002395573206274,0.17361604387186502,0.26775696281022693
13.823932463,-2.5247146533616394,0.8250224997270497,2.835903006402669,-2.1346137003178116,0.5372672730673576,0.20305306179320187
13.92383276,-2.693234059763006,0.631419939925912,3.0417393530809607,-2.000703612651404,0.6011038127004529,0.17390118818269565
14.02389986,-2.7961374531170002,0.2818176767422576,3.258733245925124,-1.8066574575324432,0.5271874991177359,0.18856248158354155
14.123933947,-2.859673437588581,0.00019084759952735925,3.33250146981261,-1.5704385431582621,0.4292854458714388,0.19657920720274918
14.223836599,-2.8322778623617664,-0.3765315815194372,3.2700173148009206,-1.3489919459738373,0.3708238699008535,0.19699111068032463
14.323891538,-2.7097937796580576,-0.722621335669378,3.2349455641878198,-1.0862642763108874,0.3516047200244136,0.1936985895291957
14.423896362,-2.6254543636817114,-0.9509855594342462,3.1758496108728322,-0.9285881482251629,0.3588475231759944,0.19183143745649955
14.523903662,-2.3373807582607635,-1.1602884985889972,3.092450580325464,-0.6677566615894167,0.36736524745096616,0.20058643733545886
14.623891652,-2.1381692358004427,-1.3372605447266523,3.107988634538033,-0.428132714820906,0.39711147272398795,0.20417266588397098
14.723867149,-1.7765134188170542,-1.3953390227739204,3.1566736248263414,-0.1638909334682781,0.43178607323585383,0.21788297874329485
14.823906592,-1.514731227472187,-1.466294820082939,3.0543716831111194,-0.025445507384710173,0.4311907037307128,0.21439941199890844
14.923829311,-1.146732456240229,-1.419574386198292,3.1365157522585547,0.219170472103691,0.44308397700098695,0.20655619326897096
15.023886511,-0.8448199874413488,-1.3265468465810082,3.1578066422040623,0.5278688140363543,0.484814379643446,0.2063412766770136
15.123887662,-0.5791107037777035,-1.1303102529896516,3.1629598067589955,0.7311346315364742,0.46327217908869067,0.19776494198035885
15.223830223,-0.42736903584449354,-0.9038006741857747,3.2733432881279234,0.9179781901893568,0.5000146361376621,0.17396256963897605
15.323840424,-0.18411899161408155,-0.6602435849041849,3.390007739413289,1.1412091654397984,0.5389642615288521,0.12857036958373616
15.423839612,-0.11941808760293318,-0.3517435675550681,3.568799001296706,1.254270382795686,0.567531651282421,0.018697911447615692
15.523904419,0.08552451351207024,0.06078974413106638,3.678656084993388,1.1850903940340105,0.5104457370044764,-0.062369628219708276
15.623878524,0.19360191933832424,0.3482420943711102,3.7844556120977964,1.132081176931546,0.44162215474765876,-0.10682215623903236
15.723885912,0.4280646720486085,0.7068463653398327,3.77514445103796,1.0044437348289934,0.37170786072126105,-0.14049147562029868
15.823829514,0.5716552773817024,1.040571488289903,3.7003744451301865,0.7781185482342029,0.3131776458732989,-0.15208043412850278
15.923892388,0.8486480815148771,1.1921557262389253,3.526775669932301,0.5516810154787479,0.3262880682091406,-0.16171885930952612
16.02387842,1.1851298701137989,1.3650475611322626,3.4028060096316435,0.41634933790677764,0.28546447042512146,-0.16103993297023642
16.123833849,1.4830712140114701,1.555003121362613,3.331694225045477,0.19410323882053326,0.2782321467905438,-0.17559521759932364
16.223843427,1.8421536511189613,1.5469797130819603,3.2084261283563986,-0.035267903480740895,0.3010196364110044,-0.18653337654421598
