time (sec),x position (m),y position (m),forward velocity (m/s),"heading angle (rad), from x-axis, positive is CCW",throttle (unitless; -1 to 1),steering angle (unitless; -1 to 1)
1.036862757,1.1143569923607963,1.1056982203884693,3.0465167352289897,0.14599690739860996,0.4336929188987711,-0.22324187587339403
1.136861927,1.431248386758255,1.105629021089471,2.93288732760157,-0.07126787554944808,0.394335872467328,-0.22162672530751343
1.236860748,1.7188132105220149,1.0986775316087958,2.886730943722084,-0.30855490927841883,0.3600595117444725,-0.22834083076834136
1.336859991,1.9646978827026969,0.944236970672481,2.909413206451832,-0.6471196033799944,0.3772325760160514,-0.23929652333270793
1.43690697,2.264487634010114,0.754931562175533,2.887141572956531,-0.8301024641492705,0.440753386122465,-0.24405138435418922
1.536893936,2.340945860295681,0.508046953237177,2.8430670132418054,-1.0900179469121765,0.47129788626945734,-0.24727209573962353
1.63686724,2.4336792843345934,0.27610268649746705,2.8583924200129496,-1.307288855959522,0.5102980857168962,-0.23828288193863925
1.736858317,2.5136698970690263,-0.01680657631506825,3.009490625442904,-1.5606943067246724,0.5362060781360944,-0.2417652344093517
1.8368602850000002,2.5154462402882087,-0.36535113658227875,3.010536936066509,-1.8154453514244764,0.5120881212030902,-0.23522409795954824
1.936858903,2.4128268338739063,-0.6173747178684373,3.1731121623819503,-2.01417227002452,0.49418300852375135,-0.23066144528514404
2.036857556,2.2647824720902947,-0.8954487128916018,3.0718584897569707,-2.2370343651647233,0.514403019695562,-0.2264780791503843
2.136858664,2.017644771502781,-1.1439413825556177,3.1365144906190405,-2.4770774827225632,0.472092399480624,-0.2188785044010849
2.23685781,1.7823048104497308,-1.3591929174908661,3.1459150957184927,-2.676414783320486,0.438621549143035,-0.22174293980643064
2.336858722,1.4826200624139574,-1.419542894547206,3.058554363491639,-2.831678983293385,0.42777476036592804,-0.21791723020306838
2.436903899,1.2145485956859734,-1.4813060506733542,3.053336964591981,-3.0573092406067275,0.38914636146943854,-0.2192104137806558
2.536911059,0.8807401858933085,-1.432055388675074,2.9997874207871695,-3.335768625338262,0.37829963173955244,-0.21792098078694286
2.636906142,0.6234660750779395,-1.3397563680310585,2.970688206867661,-3.556058680805752,0.3967115078718964,-0.23068633569238947
2.7368742040000003,0.38109196578534965,-1.191596909093126,2.9320991425236915,-3.8022879588231953,0.4033895801907633,-0.23460328549530998
2.8368652990000003,0.15424671880958835,-0.9773571143546181,2.9405085210033883,-4.082891298238936,0.5063487914942435,-0.20771879509608351
2.936866004,-0.02295762857769825,-0.7568422541396143,3.0445666032300216,-4.2455178237123254,0.6242331889177488,-0.11438347113078647
3.036866219,-0.1267099388679332,-0.4278821924740937,3.3961298318659474,-4.293520553194348,0.6102755692801303,-0.01807647184010808
3.136857575,-0.2855467390145231,-0.11286268709353281,3.5516712156818415,-4.287583060799479,0.5017648137702688,0.05434686228022359
3.236859257,-0.49035794570089075,0.19885965058761682,3.576612257930393,-4.225795003653667,0.4205356379581639,0.10117320354062245
3.336858039,-0.6918485534131996,0.5140771824823464,3.6078996665916367,-4.107408717274731,0.3102764859636256,0.1346279418759856
3.43687714,-0.8876953757994379,0.7482283601627969,3.556219829781114,-3.9085729082703664,0.2538422528984703,0.16217280285654279
3.536860726,-1.148212098283195,0.9661542148330508,3.4761096935368827,-3.6822064752877477,0.2539855267380925,0.17932105221679465
3.636858573,-1.3882953018366657,1.1383326526638387,3.3096214832956683,-3.434269900836324,0.23208406830341652,0.18484989876346267
3.736858574,-1.7071541809524304,1.2562051551092999,3.1548490721561557,-3.1691722760661762,0.2862521194805775,0.1874421486607553
3.836863271,-2.1284972216155036,1.2135106115874434,3.167480737392972,-2.9253199992457843,0.35019362903939794,0.1940020247190122
3.936863432,-2.3446168142438304,1.1426973125173518,3.0396922661932773,-2.7331335275288415,0.3751900778130356,0.19853504896024385
4.036857654,-2.6145103894174917,0.988817535146944,3.045176038991248,-2.504971784735868,0.41944441141085853,0.20248305812590275
4.13692865,-2.870754599365243,0.7980796072552254,3.1168846590947163,-2.238159872554959,0.4493924045066929,0.20972073875623443
4.236900561,-3.054990756960454,0.5701155955922668,3.1657606684298516,-2.0671834010560346,0.4630737152196149,0.20908664893202078
4.336864502,-3.162686883657788,0.2357884422964442,3.1790230815275073,-1.8086710863310578,0.44611310270203564,0.20438837271603283
4.436857544,-3.1981080461210922,-0.07212942780905464,3.191020911270399,-1.6129246706058846,0.42732833255674896,0.20338404197080479
4.5369151930000005,-3.2452528746665212,-0.39376246803168174,3.176009705884098,-1.2799865930059198,0.3884275621382946,0.2077895214951627
4.636856996,-3.1318246558300515,-0.6293704388286081,3.245467738740217,-1.0764336218798412,0.3686305901109217,0.20719211887527045
4.736862089,-2.9341474461349306,-0.9849851151638863,3.1246638669989397,-0.8823183656773727,0.39224849980363957,0.20367999693077193
4.836894048,-2.8063017143769726,-1.1860454704441077,3.062380405114118,-0.656725096289003,0.4388329590886327,0.20248617223766868
4.936860421,-2.5048555985561443,-1.3538581764033857,3.178534415698419,-0.4493765491700393,0.44007894476483655,0.205844259638956
5.036859994,-2.1884083308283278,-1.4443751911942913,3.147132044879218,-0.19905113075857117,0.46123055043994265,0.21000330802955314
5.136908268,-1.8862140611741074,-1.4792048281201375,3.223504186284943,0.023703388357981376,0.4930468868989476,0.20704655495581112
5.236917001,-1.5848316695655245,-1.4786325611421705,3.2584326619446418,0.24677491922494907,0.47682834931700385,0.20271994868259086
5.336882798,-1.2444485616548673,-1.2992407124720327,3.31242262691887,0.5303462451294403,0.47025613895907403,0.1915996265638695
5.43691839,-0.9721491060151399,-1.107935118803267,3.3016472136852206,0.717910499326501,0.4834835195033771,0.19487298088736804
5.536859787,-0.7636529650863301,-0.9893019475451619,3.326626735353821,0.925471665162031,0.4706387813740692,0.1766128950052895
5.636864757,-0.5551397717191559,-0.6657283679650725,3.3642995379306635,1.108905911136504,0.5096846280058124,0.12677554969985977
5.736865406,-0.3816116768444069,-0.33818638139323687,3.513556427440655,1.2160414479454968,0.5893664729155507,0.009380827691111263
5.836861554,-0.2513093791084088,0.0031238768724814094,3.769343212284597,1.1868335331720377,0.541274727139247,-0.0710456725208031
5.936860435,-0.10316091138685787,0.31617635877859346,3.7786060299524586,1.037871997220672,0.4619026395830076,-0.11444497466766636
6.03688457,0.06290989646727149,0.6630802519305918,3.8036927954666178,0.9599401886371738,0.39662684325973147,-0.13626851318622457
6.136858472,0.32262553578645553,0.981531320715695,3.7258437336955934,0.7206482001096276,0.35486686380342125,-0.15163770035986845
6.236858996,0.5100290738508909,1.2387651750989717,3.5998216196696866,0.5672810903592795,0.32307274912953066,-0.15685963320944857
6.3368574760000005,0.8687564149673135,1.3886046364538969,3.4839494534774316,0.409821837220042,0.3250343458153035,-0.15988976022973325
6.436859607,1.1727389385947615,1.5043428807271984,3.3855158520360136,0.19006903986564677,0.3005996442465742,-0.16659579555559215
6.53685924,1.5650423366434736,1.482509570191426,3.2813501319476637,-0.031122522143608104,0.293740163681692,-0.17940068010502816
6.636883757,1.8222540697118055,1.5153645165188836,3.1360121706909685,-0.2150948736673386,0.3234171838429835,-0.19163690907311448
6.736897928,2.1165703202417707,1.4160917512708557,3.093110088394714,-0.44458544515115966,0.33220809290217007,-0.2019787905945565
6.83685552,2.4346191769102563,1.2670450843249312,3.0325971801575515,-0.698356781266717,0.38981108545930215,-0.2143490212425684
6.936856974,2.594647018842438,1.0144179058777145,3.060480356368254,-0.9028863510007916,0.4633164819186886,-0.23151235554434044
7.036909844,2.773814635426422,0.823360096864848,3.058135325166856,-1.1438915257055398,0.5168644605298524,-0.23521968794090994
7.136899053,2.9063631419189764,0.4966518213515543,3.150401938451807,-1.3191599686037156,0.5379790676479856,-0.2342167463682019
7.236855563,2.885778287943326,0.1779682519972649,3.1446622813780443,-1.5870176632105308,0.5631214388580358,-0.22650254458552538
7.336854735,2.8803823591598503,-0.20464697240393545,3.2498416105349563,-1.8755831719129072,0.5419208424866213,-0.22083873322316297
7.436858522,2.804315201083542,-0.47709800802752733,3.384725188367339,-2.0211282521483933,0.529862185554678,-0.21466904323740257
7.536856437,2.5906636515161954,-0.7112586936295533,3.3252029199417263,-2.2905370959073763,0.5278340568460969,-0.21204288694589818
7.636951255,2.367877065425126,-0.990208531206852,3.3152499058813203,-2.4684582548064515,0.4773760671628082,-0.21057470005920165
7.736858707,2.1302427788907,-1.1356801681942876,3.251644393891563,-2.700715944424162,0.43379320083318174,-0.20590805457666567
7.836867343,1.8188765558010735,-1.308471117250291,3.2635569297538685,-2.930756267481964,0.3985093062591417,-0.21051973577064875
7.936863131,1.4591000815775768,-1.3550495555691826,3.1875283006209134,-3.1221536282986335,0.37996152148226464,-0.21174060957027646
8.036860394,1.1227749092741226,-1.312531251278617,3.0754674538075646,-3.3476733806682546,0.3451073882447644,-0.21314242585962972
8.136861125,0.8723024163169809,-1.2838326558291395,3.0188787615369836,-3.6085186847537556,0.35308551373716285,-0.21618499923298737
8.236859919,0.5894517751141677,-1.0768343429810936,2.955280020725778,-3.8670234965051105,0.37395710864520754,-0.22481198931122737
8.336859857,0.4739973170938839,-0.9002849990217069,2.9588702355103487,-4.060981796403841,0.4850096924114649,-0.1843114190630299
8.436908504,0.2086560360959459,-0.6321928439820098,3.2165160440403198,-4.171120093634531,0.5641077456866253,-0.12009243115862782
8.536864919,0.07202705615956596,-0.35853430859082885,3.4028555694006934,-4.28457935710187,0.5990539710431718,-0.020568444574093726
8.636860062,-0.06544001356072364,0.024785489060016035,3.5869767562351615,-4.269691798460489,0.4989664846076268,0.04781935651876595
8.736860056,-0.25621853823127827,0.30839161793551434,3.6807203121724617,-4.1545780967016634,0.4124702297334723,0.08917913855586058
8.836917589,-0.48039400017829165,0.6030250474085943,3.6817807984268773,-3.988168080356036,0.32752133360969404,0.12997671817642262
8.936906733,-0.6900028678430432,0.8801057379546194,3.571554673702193,-3.867285923727268,0.2659807222992295,0.15834342309179866
9.036858411,-1.0367951511798292,1.0170327688327,3.5177576899043057,-3.6516577861307407,0.24636461015387928,0.17380214277342043
9.136862592,-1.3214066424954822,1.2369655665189032,3.334893783826136,-3.39518424453035,0.2690036026773576,0.1752934474850699
9.236860878,-1.571531547791571,1.271673640271828,3.2262623776335766,-3.1074923367376166,0.2997710957695188,0.17660690870707693
9.336899189,-1.9510609496834548,1.299122578676606,3.19852363419495,-2.9280429165685082,0.342860516647396,0.18507862759047522
9.436863844,-2.2540453055052727,1.1615686619806938,3.12359629028954,-2.7064608621319146,0.4044091542307115,0.19063924127001333
9.536856649,-2.5426122191714047,1.0941896615396074,3.150597760950031,-2.4661003637526187,0.42116700135898527,0.18972495921486426
9.636868673,-2.743352323512221,0.7823072507633735,3.1194277635925007,-2.28342526007797,0.44446027051917214,0.19277795814096088
9.736864654,-2.941570327039701,0.5928723202824305,3.2234265010787264,-2.0243609252788155,0.47355962553037373,0.1982233834645936
9.836861651,-3.040371867289928,0.27573201583279855,3.290588765774713,-1.8975166943221864,0.4327706808961807,0.1950095908464514
9.936857976,-3.107090685661531,-0.06414156503347197,3.2678518676059314,-1.5549926703641337,0.41510639274205685,0.2003580410430776
10.036864862,-3.085363216347132,-0.3353812423796264,3.1724882643364194,-1.363171377218045,0.3987925779606132,0.1957249873726955
10.136864812,-3.0070983971994125,-0.6625737240109243,3.230377101781377,-1.142464835384448,0.360553322841863,0.19306027484951907
10.236900405,-2.7997844747071987,-1.015348549474592,3.1832636628641025,-0.9159611037066235,0.3670938718060456,0.20169251723424325
10.336857386,-2.697082039366438,-1.1574484728442285,3.113215648259171,-0.6897708861646197,0.3984197002499031,0.21173505747144777
10.436861881,-2.4155189072102394,-1.3309056219729845,3.1029373438856784,-0.48897163956366924,0.4087596123264375,0.21565116633845538
10.536854712,-2.084247921811188,-1.458267113010389,3.0607384792791152,-0.15263927248670422,0.4347856572640699,0.21710033392149303
10.636863748,-1.7874531925472852,-1.5374917605160878,3.137798398963677,-0.017549945858851976,0.4966491764871101,0.2099512113313906
10.736857238,-1.4012565896766644,-1.4943516737243017,3.2468086211703753,0.24298793377739789,0.4775966828992735,0.20261011474107396
10.836861476,-1.1796422171661352,-1.3501685754077462,3.292866036816179,0.4469296342253412,0.4809964037759819,0.20628205624049123
10.936859678,-0.8577623075354308,-1.2299993432605334,3.2770747720941293,0.7208371572567027,0.4982057126339055,0.20071737929921887
11.036856637,-0.6573852754712266,-1.0033173553212391,3.351281799953099,0.9326826842942214,0.4852111995153354,0.17671312239716142
11.136858893,-0.46641125867020444,-0.6998399485308697,3.4209065881740512,1.0670130536449682,0.522060016402869,0.1263389140840564
11.236917098,-0.27743200965444587,-0.373285932779502,3.573993042810305,1.1922981405953061,0.598031149582781,0.014149618407401303
11.33686024,-0.25095250105567446,-0.030832299214568114,3.693928918847783,1.2077587001960008,0.531474862015183,-0.0663931095998288
11.43685758,-0.05057285296210911,0.31628395612073934,3.8140921429382026,1.1270283065568223,0.44801306172860156,-0.10735676053577003
11.536861206,0.16675397686291166,0.5743484262094811,3.809429479609593,0.9578614750277855,0.4196512683585791,-0.13634653601968633
11.636864001,0.3749260031705948,0.9737381799293315,3.68121256404572,0.7793996489328495,0.33808325306571146,-0.14681594221047573
11.736863218,0.6968316245003973,1.1779197462784157,3.6422355761754477,0.5910724853713673,0.3212050303108081,-0.149169923271041
11.836860057,0.9954293864039444,1.274285258047343,3.5461751150027876,0.40967712122894817,0.3090796138783315,-0.1612451483470472
11.936863668,1.3695552493030045,1.4503565173025923,3.380748323716737,0.17673693109785177,0.2789502579665845,-0.16968851863831722
12.036928578,1.6895570071634711,1.4825296473314105,3.197450709811069,-0.015297476252382161,0.2875081557437393,-0.18118067194228066
12.136864371,1.942493645077394,1.4612719746843565,3.128111861697994,-0.1992954417683932,0.30312715869991563,-0.1937400256899571
12.236897083,2.2367052325963512,1.4380000591968418,3.0241615156517407,-0.44466741272685034,0.32294173541628673,-0.20944741470249947
12.33685915,2.560938444991647,1.2706833514471616,3.041273526260139,-0.6815858725381482,0.3863352727227542,-0.22673503856620295
12.436859902,2.6960116882056377,0.9880014243464506,2.980127916400535,-0.9034350386663189,0.4581119199140082,-0.2336401055519626
12.536859124,2.846316031214006,0.7772290405553933,3.0426099484329376,-1.1161293013913853,0.5157151391071834,-0.2314947560476796
12.636868639,2.9303405839804557,0.49313537906457217,3.0927322253905487,-1.4485361096892064,0.5537756095456192,-0.2314292038645911
12.736886646,2.9978241247041066,0.16059257116858106,3.1416602290545064,-1.623076278770943,0.5706703874299683,-0.2292381079339866
12.836906919,2.9152987723184585,-0.15056072470851956,3.2873403324533057,-1.811328751408288,0.5402452784852301,-0.22432955415853137
12.936927003000001,2.8565497677770573,-0.5163629821120062,3.272310021234477,-2.0629547273116704,0.5266423416049226,-0.21970425039827773
13.03685987,2.6340228585807957,-0.7874625980520986,3.3126258422261565,-2.2574755151216164,0.5186926541672747,-0.21654312362985442
13.136895696,2.425196832764801,-1.0003399410777971,3.3162194298142964,-2.497362945367786,0.484172678344231,-0.2091611856013969
13.236918978,2.1693707866516267,-1.1697249772602254,3.2865280963757404,-2.66962693490333,0.4656449022097555,-0.19871979097094025
13.336861556,1.9234129362495604,-1.3273489934252318,3.2446354739650634,-2.933848886622457,0.4435942807491429,-0.2074034912161933
13.436865704,1.5709695612387935,-1.369725192141096,3.1567052075852207,-3.1852680127227972,0.37730405095359065,-0.20959519177581082
13.536857552,1.1743948182088861,-1.2919594159744425,3.064597377398348,-3.393699972236989,0.3485325941802382,-0.21441464668062948
13.636859125,0.976541678260647,-1.2437215358777072,3.0223022449341004,-3.5876406803590943,0.360243433248255,-0.22006448663986938
13.736922832,0.6739482805520772,-1.0495846382050698,2.9267306283022956,-3.8500317632297665,0.3668453786471277,-0.22455042925072652
13.83686021,0.4579156480016354,-0.8925305717926373,3.034879592674981,-4.034999703263757,0.48167201825684086,-0.18833940249559175
13.93685683,0.2367835855386471,-0.6174903022490168,3.2879907629730187,-4.21951573750324,0.5621557266696932,-0.114515230919572
14.036861084,0.12287586390212912,-0.3366967646364865,3.3706013303043676,-4.299781992861865,0.5918991699008088,-0.014312684757687936
14.136864267,-0.04958681626472461,-0.02706237084632119,3.6429522717030336,-4.230321769555896,0.49596125937286367,0.05390056298185988
14.236909843,-0.23389495629994148,0.31709830211027973,3.679831229627494,-4.166651979198235,0.40443683774526595,0.09146754177423443
14.336928921,-0.4437829292629819,0.5925425004941391,3.621260685119961,-3.9874792067113174,0.3401719741327608,0.1300407165075454
14.436902751,-0.6419089655104645,0.8437106925591905,3.6074339623389684,-3.8357185245966696,0.26997216260582524,0.1571343757544264
14.536861583,-0.8961181770952646,1.1256330177415421,3.538616631852062,-3.6272357404127145,0.2446724783485998,0.17661721954734344
14.636911809,-1.2811480687518442,1.2155749134457263,3.3347960623621575,-3.4389112068021666,0.2714070833818383,0.17547665390410483
14.736856921,-1.629341884137776,1.3128281730737885,3.1808401873657934,-3.1881825681963463,0.3033507807105978,0.1735908734318505
14.836912623,-1.9102112759581926,1.2819491832885428,3.1888170318987243,-2.95516215933567,0.359165270243037,0.17256737649420562
14.936894209,-2.217266473393771,1.1989007720181795,3.1707649146290993,-2.782358953114535,0.3917446072536009,0.18916467514115368
15.036911555,-2.496713981833901,1.0803150913428972,3.1457944677132157,-2.4941881113085054,0.4033985018057589,0.19863781149739695
15.136911256,-2.6881355099275077,0.8669370208804505,3.139057263066182,-2.2369554060810777,0.4465968925108449,0.19558431434949033
15.236859901,-2.9109513581823494,0.5941282818110006,3.224303935144297,-2.1018592890023036,0.46814707730482397,0.19668645570602092
15.336861966,-3.0152562761445934,0.2546681526085271,3.2790464908012424,-1.8293139020582592,0.44025643781821333,0.19524796178461648
15.436855245,-3.0787505413569978,-0.07302173129356754,3.291477407109965,-1.5322914266574683,0.38809379149368917,0.1982945918779844
15.53685962,-3.004349143070307,-0.34639893889354734,3.254486430409484,-1.3295513053565355,0.3829851564315292,0.20020121448358982
15.636920111,-3.003994791225027,-0.7254140213743979,3.1696975793854234,-1.0985209533997697,0.3619792081109525,0.1942995589805607
15.736858747,-2.787603500958785,-0.9181221334740929,3.1334119103497993,-0.8953765442148517,0.3605261447999648,0.20197843095633883
15.836864063,-2.6577496946628365,-1.2027672641138176,3.0773560978923733,-0.6683266098180368,0.3975303952942299,0.20851926637869977
15.936909253,-2.4148745047263502,-1.3084937091913542,3.076374896031454,-0.5109025197513917,0.41915321674199973,0.21392294198766804
16.036857051,-2.0811665951076743,-1.4656048046713495,3.159894273506472,-0.25554655798057196,0.43001038089709215,0.2139406591283128
16.136910778,-1.7479523543548199,-1.4693876927098621,3.184269009709087,0.034114933553442556,0.470300304251801,0.2108142364678308
16.236911254,-1.4085053690397613,-1.4742797543175163,3.1770295827151527,0.2599428972903279,0.4885390739166918,0.21041738511869482
