time (sec),x position (m),y position (m),forward velocity (m/s),"heading angle (rad), from x-axis, positive is CCW",throttle (unitless; -1 to 1),steering angle (unitless; -1 to 1)
1.038134499,-0.7530678817323899,1.1846364705678456,3.4543308744911134,2.6147727177865456,0.3790269165371129,0.17186266267328407
1.138132522,-1.0743621583134813,1.2448053025407728,3.384244714465641,2.8020815871175975,0.2659612237819929,0.18267765199649788
1.23815281,-1.3540943820937044,1.391845656615047,3.3227055133811136,3.0336302117965928,0.23561787337437634,0.20322070005304904
1.338130328,-1.6656858437186248,1.3814519840998392,3.1099454004936624,3.260595130667094,0.27173982411852055,0.199484616697634
1.438130951,-1.9676033974199418,1.3512489099632528,3.0854052060275894,3.4741363913443153,0.3046374002328466,0.2043462048946376
1.538133034,-2.2385620726233926,1.2825339554228197,3.024462611046556,3.6735834328179187,0.37025368207581116,0.21333363097822786
1.6381450069999999,-2.5163387889269595,1.096539792046178,3.0438469689647243,3.947185993761246,0.44776998871533735,0.22566527835018801
1.738140618,-2.7349520911644367,0.8722687654951415,3.1162975238986106,4.126816380346036,0.47677989904575785,0.2329668352977845
1.83813591,-2.875170360462702,0.6310280529353186,3.1417685403169466,4.386612793935601,0.515989899977242,0.2240090692987931
1.9382145990000001,-2.9561001995338367,0.2683808135135824,3.180255478583865,4.617611607659427,0.5540730082017868,0.2135733792113166
2.038146944,-3.0361676586657596,0.03325060745429083,3.2808117806161796,4.816666572861474,0.5454239972817279,0.20904915293340517
2.138191318,-2.93618674516136,-0.33527539327809674,3.352377452661438,5.06370350006462,0.5212300175791053,0.19728037383806668
2.238143153,-2.8271843259581244,-0.6912467490123666,3.432854380074156,5.214198901193716,0.5049284738590767,0.1895241836040138
2.3381360620000002,-2.6080994631957215,-0.9523871019114629,3.4043826480639776,5.486373339638594,0.4724612140041988,0.18869122398144264
2.4382351,-2.411586686804667,-1.1878135851629696,3.363692711949164,5.689166895873031,0.42509244550750624,0.18462841205473637
2.538232876,-2.13385676802732,-1.4034998308968072,3.3313094114808934,5.8742651019645535,0.3890253869173766,0.18886925295297066
2.638233079,-1.802007311184392,-1.4706363386478125,3.320654346366397,6.1961230311114965,0.3433534053168629,0.19787203582438123
2.7382137230000003,-1.470518954976055,-1.4999210797490656,3.244047594888341,6.347849286494762,0.31610392180274643,0.19974883135148522
2.838138468,-1.1135013075306184,-1.476875585474174,3.1278768116133495,6.5290785678409575,0.3203447515927383,0.20696766819895962
2.938134416,-0.8453858395541449,-1.420596675347864,3.0947302512167663,6.789490474928211,0.3463233393608316,0.21303807928711183
3.038136155,-0.6028120812491421,-1.2336016694522718,3.0849025611664316,6.975025494714273,0.380950218843078,0.21382706316396624
3.138149172,-0.3126115707052992,-1.020838793179105,3.0953472138337172,7.242437554342813,0.48677235761318655,0.20346994474772773
3.238188713,-0.20774110379295982,-0.738989136872352,3.337466593246253,7.3788284248980345,0.6452597952492721,0.0979401899716052
3.338131094,-0.01017887769349022,-0.4030846554078978,3.590854811083381,7.394777128437292,0.6117102136575264,-0.0017791925782735581
3.438135296,0.0751703820877494,-0.11265798633504062,3.767375909338066,7.491382922298444,0.5130075183418352,-0.06240022593623183
3.538164974,0.23842371142227212,0.17240026987561455,3.8019407948342523,7.382648406305368,0.4211563663089721,-0.11078968930039719
3.6382620020000003,0.4253682599674268,0.562309219510432,3.8553504285010045,7.381741045631831,0.29111558893718026,-0.15539319377771232
3.738142583,0.6909067357971841,0.8919338036261034,3.718169553635973,7.119766647733459,0.21861820865558046,-0.1935739156765195
3.838131291,0.9243159694730375,1.1816127609081617,3.6024214197605455,6.846884301376193,0.1742483075123807,-0.21306438582032652
3.938129361,1.2266108748346916,1.3638542084324847,3.3678366628343652,6.662101012359633,0.16475071943130373,-0.22417497021465327
4.038131512,1.4979050938866518,1.4691505981621502,3.259813247764578,6.432007155960084,0.23348305336079558,-0.23807851821806555
4.138134304,1.8735928535698008,1.431143790331673,3.1330499537835714,6.251591375606519,0.3250935081258815,-0.25584291333401055
4.238146765,2.1300010760729147,1.4112054301996568,3.051444389058869,5.997710391824734,0.42687692379404846,-0.27518555704278624
4.338133908,2.4196234271360777,1.2313535213616562,3.069829245222684,5.740314624302164,0.49720720151170067,-0.27615369791844413
4.438155137,2.6689421792724217,1.1273783821446262,3.121630279656289,5.466504271907311,0.5668190877468758,-0.2751962217494349
4.538224463,2.8625671593639415,0.8375494918897678,3.1392595220864914,5.13055200824936,0.5694978775896723,-0.2607787065952005
4.63822795,3.031963839013229,0.565091037722827,3.3175588331388735,4.964315365388355,0.5728426932568401,-0.24732177932812419
4.738214843,3.118182648823551,0.23682812155275634,3.2821513930980544,4.6925976996311185,0.5786054397357335,-0.2340494700471037
4.838134887,3.0625867331950296,-0.10322701679157871,3.3564209881903966,4.456098467371473,0.5418910865224006,-0.21787524426092875
4.938145306,2.983536423552377,-0.4362097077184102,3.3381977047114697,4.333304306309775,0.5024383890685035,-0.2074429531251362
5.038229105,2.823051688593505,-0.7384450512249985,3.364929825179519,4.0391717576284485,0.4839978507886302,-0.2119575405695316
5.138135086,2.6124371790914416,-0.9573055191383883,3.3569212509906556,3.832665258472422,0.40196158171562074,-0.21796318492770814
5.238130342,2.3580160615577035,-1.2073375654163137,3.4091930674185194,3.6833660381376685,0.35368162400268044,-0.22107564565416618
5.338134261,2.0064261957914336,-1.2836424414340875,3.2833344000820217,3.477201325364662,0.3374248258904145,-0.24234332568437197
5.438132174,1.7186703390175175,-1.3726297743278277,3.2330040694506725,3.2143729558642673,0.3197160064266986,-0.25095420777884864
5.538131895,1.3370431347817702,-1.3962779750393004,3.168229520656873,2.980671638321124,0.36271305109938573,-0.26553812666606375
5.638197034,1.082455219899383,-1.260391472050967,3.2158288778649653,2.7542651461224406,0.4566215332953288,-0.27823023363795707
5.738134502,0.8169592371173339,-1.1291329916579487,3.175434967388758,2.5182502266612237,0.498643748992282,-0.26660544339479497
5.838129718,0.567851482855554,-0.9176636344345358,3.231019980299863,2.256678529964121,0.561619064406002,-0.2257683088705045
5.938225891,0.338165581234952,-0.6385683548349593,3.358096740263659,2.045403918769982,0.6347585141401171,-0.1398576839478969
6.038130997,0.2431390930250747,-0.408213007360043,3.5763890987935594,1.9907499749405027,0.6107272650710821,-0.03510422682746632
6.138130291,0.048294244460814005,-0.046799052549409886,3.7484882294227404,2.0520336317890857,0.4955551240097038,0.02918658116633791
6.238133088,-0.09845863296265994,0.273967197166744,3.907315980686888,2.1140580703047847,0.4186321271614542,0.06998638188047289
6.338134196,-0.37546232410683295,0.6186669275534341,3.8709962688176147,2.224109591329172,0.307862672914266,0.10606220700895305
6.438145493,-0.6274430137094865,0.8930423787856353,3.844707059224319,2.4086040486425517,0.23692563273241635,0.1279210748196253
6.538239385,-0.9143370012036363,1.1499677465114027,3.679482097734329,2.5554462853035136,0.21161859070710973,0.15126854044687033
6.638131229,-1.2302781640147087,1.3311976759481456,3.4606936737156877,2.810655131875547,0.1766353524078565,0.1636994838519057
6.738131469,-1.5306266357412261,1.3809511975781577,3.296995886120506,2.9887181122689084,0.1936966999578782,0.171897223598644
6.838134771,-1.8460795765037765,1.4083714814031283,3.109970916020295,3.3653198186055615,0.24808263022035806,0.17967767529087575
6.938131554,-2.2017327859961253,1.331818899297996,3.0156488061439393,3.4857052067324554,0.29297684610414365,0.18720898330025437
7.038152363,-2.4101649819392135,1.232215966699593,3.0042478886129573,3.7422764940720588,0.37081108021931686,0.20948311352951857
7.138132969,-2.650006726708356,0.9945453837745374,3.0083605268687816,3.992423510352411,0.4449055141054501,0.21849011059116655
7.23813132,-2.8608254092339096,0.7876743770304593,3.059724490599917,4.198036067282565,0.48193537156329996,0.216814574916587
7.338131262,-2.952528923688076,0.5421889837533186,3.1310305488705565,4.468115233300297,0.5307961635525408,0.2110755525811875
7.438132754,-3.072327710366453,0.21736424136508886,3.215255426617204,4.645326318055439,0.5774872095323818,0.19437584718749862
7.538130603,-3.0959364495244484,-0.10156154179555216,3.2153405481639763,4.917425232234074,0.5650411152396847,0.1903453629107442
7.638149393,-2.923275065015945,-0.441128531672625,3.319015858337532,5.129178791595193,0.5552828930372552,0.17719350261388586
7.738139429,-2.872839715965197,-0.7126212774189388,3.363769659067836,5.374410000210492,0.5209060186729834,0.17079167919727256
7.838131032,-2.634730285590494,-1.020309131293444,3.382357772303204,5.501621428096324,0.49417646697481427,0.16870520791169757
7.938146716,-2.341458722284665,-1.1755734175239863,3.4002883449991175,5.773053423179608,0.44254240863481276,0.16497837108416724
8.038154825,-2.0668931433044126,-1.4180680829834174,3.3266607152602194,5.980122202753942,0.39781206215529463,0.16762987346018426
8.13822256,-1.7329617924824514,-1.5029936869761464,3.3218011779840824,6.162187881741296,0.35319361419401557,0.1764065170821601
8.238145257,-1.4138513205798262,-1.4990613203765777,3.310522817461542,6.377520826052334,0.31973998364670503,0.18082412167665438
8.338144077,-1.0788866496154021,-1.4120997934584967,3.2004924606128284,6.629902920789128,0.3190345132674789,0.18918671320831804
8.438131892,-0.8485506424915987,-1.3156599342312738,3.058438203849073,6.849730319127322,0.3476943370749136,0.19381653561740955
8.538131809,-0.5096810813807676,-1.1033916835192845,3.0356717981641728,7.0740011276684465,0.40190564635494397,0.19927434567007776
8.638135795,-0.3710985657061557,-0.9817150062488148,3.112095719250651,7.335723511230739,0.5228610514109677,0.17284154546986238
8.738164684000001,-0.17716575964829737,-0.6727844303770876,3.3126532999935465,7.473600767813012,0.6181230904109226,0.07849218378146244
8.838142966,-0.0810769089963766,-0.36037448840500075,3.62359363523159,7.497390246585801,0.6190724146815426,-0.01566588535023477
8.938236004,0.018934505137198687,0.03708964622022145,3.6798961780214148,7.432484076717323,0.49752162907086817,-0.07610283762627443
9.038150459,0.2681400435778685,0.3320701904662159,3.7514712685651572,7.469434837694271,0.38517870065470067,-0.11902271362074315
9.138141433,0.455757093239858,0.6880562736611453,3.8245072699978433,7.294660181501944,0.30249580154393435,-0.16631250032473666
9.238135366,0.653339830013684,1.0433052544891097,3.7438178868352923,7.1142618462385006,0.2108553417276006,-0.20282154502293392
9.338151364,0.9049272520989079,1.2927712841602523,3.4398495090292194,6.867354803304984,0.20547975935914464,-0.2084815988863774
9.438207054,1.1806303355724397,1.5143651145546844,3.3566952881774146,6.655573447183322,0.19334754028007298,-0.21875983715063774
9.538131318,1.5019927036446543,1.4928446234878974,3.158501482224561,6.441791745054609,0.26287739981965075,-0.24141686153197625
9.638147286,1.6919831625140551,1.5503284915396462,3.1431403361047296,6.234473200673899,0.3690293560685231,-0.25989164900782213
9.738220537,2.1308854984920496,1.4970305931482173,3.0247602358662515,6.005809342568977,0.4295796736208862,-0.27464378047596544
9.838139419,2.3763907726480222,1.3488641045615457,3.117240706034782,5.627736783393236,0.5060514366453848,-0.2759179185447881
9.938139974,2.6252108156114957,1.1634059048672936,3.1428776331465516,5.523063396019556,0.5915690393575475,-0.27199709941103306
10.038240578,2.84419021295683,0.9353548950496172,3.1411130567454224,5.22924612794244,0.5961603244132109,-0.260384379037648
10.138220608,3.012796455318437,0.6043283912323256,3.2030872570920716,4.903991138395296,0.5887049384494546,-0.24648869839592866
10.238210755,3.0562930387890836,0.341481693125125,3.2692027044084453,4.687743277238305,0.5666471033940851,-0.2257479965617883
10.338132476,2.996167921554905,-0.03447290682286808,3.3187681515265255,4.423283485451284,0.5654891013612813,-0.21209868467346127
10.438146075,2.900666155586721,-0.31309470337940276,3.3784075619587055,4.260022801462164,0.5047481680338853,-0.19657716681697332
10.538209382,2.706742946360512,-0.639504572341531,3.351229315913304,4.037994792549751,0.470695569103496,-0.19111119703953158
10.638130609000001,2.4927680931580354,-0.8618487369566307,3.3645706635625414,3.897113876278446,0.4031509116233205,-0.20503996092329876
10.738143754,2.2546349710434432,-1.1354619504891907,3.387299659627115,3.7206728294172002,0.3349112512744852,-0.22454248171664531
10.838150829,1.948572661090612,-1.2265775495864109,3.2916672812263053,3.437761265318869,0.33093351740070504,-0.2460980334871065
10.93814759,1.6439754263939146,-1.3136092321211583,3.230514950170766,3.2261074514331796,0.2977176720011912,-0.2600166664480917
11.038144096,1.3706004297898817,-1.2831532862141104,3.166375222739778,3.0098275430648243,0.3356874893148611,-0.26783494562563465
11.138137748,1.0380660889380318,-1.2232663009998885,3.0732322046938565,2.7737860550950755,0.4198224591686062,-0.263619012957899
11.238136675,0.8209390719552735,-1.1164116861442048,3.0519314167851506,2.5416231557840505,0.5059432790348495,-0.26591858001582863
11.338143289,0.527324175279974,-0.9058381339704085,3.2307756487033306,2.2061145945967002,0.5787277629591071,-0.22298395187588388
11.438132912,0.3306851097248784,-0.663219159690376,3.338174271638252,2.069919198948428,0.6481065972261986,-0.15034546050029696
11.538132791,0.18600383387771882,-0.30959987347905893,3.5683311914378932,2.0183029130274797,0.6048050571464479,-0.03465369756125759
11.638129492000001,0.006743827263363439,-0.03669586742223596,3.7058249283347764,2.040087986188448,0.49961269934997443,0.03250046345260914
11.738133352,-0.24557038009789744,0.33145068432446106,3.8287933184691108,2.1590963284248645,0.4201920366404675,0.07112788456261598
11.838131796,-0.3364131639005407,0.6291697257757815,3.870773377426477,2.2185390568400187,0.3070632275134943,0.10563968471472822
11.938232427,-0.6053986055420281,0.9131343548256698,3.82097821649342,2.436774102780222,0.2426347657308873,0.1318831652059683
12.038148653,-0.9288376827258279,1.2205944740614256,3.7212900367342243,2.5373875842183082,0.21993179686298983,0.15922045172841928
12.138143696,-1.2285836113438062,1.4030622416734313,3.4543608566405086,2.8438347373363593,0.1751964208779998,0.17562198228521392
12.238129971,-1.5738450140500577,1.4628810305058804,3.284727058058427,3.0802658952261255,0.20114587640811646,0.17150152050304712
12.338210777,-1.8590837415116672,1.4450021041412056,3.1187945526778806,3.2505136963024275,0.25001983230221697,0.18067827535311812
12.438150202,-2.136891994095865,1.4149704208578977,3.0999168133145134,3.5366935859632234,0.3135179902155383,0.19247291865459337
12.538188668,-2.406880633241722,1.3287443083696262,2.9829875639241834,3.707386827829336,0.4004192120530895,0.19952163014569058
12.638131247,-2.6834104805868706,1.059663792522899,3.069044851387355,3.9450094906057003,0.45377327064591355,0.22123146096646004
12.738132211,-2.840956654368103,0.8571583695099599,3.12635929480765,4.214646587392653,0.48586520198013866,0.22154281262602832
12.8381341,-2.984563234681288,0.6195539807516875,3.1747422531570852,4.464834585554416,0.5418161157009033,0.21365612604305537
12.938185109,-3.0115554415472086,0.36563209450869094,3.230581132468684,4.667057894552847,0.5540648412891315,0.20876469535751918
13.038133067,-3.1046405299679325,-0.027622430556912513,3.2416741749172457,4.911481226968346,0.5559370476524713,0.20255175141971743
13.138147903,-2.9995070224039373,-0.3132648782861,3.3205877520752805,5.0915560880657305,0.5718446971459392,0.18936122038067885
13.2381344,-2.924261867550387,-0.7206749815059692,3.47276907176689,5.293926173434661,0.5216545131006741,0.17922743638286143
13.338137173,-2.695310285777931,-0.9616647799384525,3.4039282859712383,5.5217686084125175,0.49206751380856606,0.17231237273909375
13.438129613,-2.4239991838898485,-1.1287279502227723,3.422777220185536,5.738006554939057,0.4812698201856629,0.1755052415880566
13.538128706,-2.142480329654239,-1.3024368216946793,3.353891310100322,5.96693608155975,0.3957708885536624,0.1677627695483747
13.638192364,-1.8600615367501874,-1.4835252121658784,3.3700328920787106,6.12569940915767,0.34710619963781536,0.18159396594285948
13.738141942,-1.4718979489090898,-1.48541498028289,3.228761345760599,6.33310527336943,0.3410530028536556,0.1876436674230538
13.838142952,-1.120461258450793,-1.3884321150484769,3.1722780674110997,6.612006932492653,0.3178266902965672,0.18975146560290299
13.93813164,-0.8787037772863123,-1.3556974429840836,3.0918333595461935,6.826535220322313,0.38962912528781596,0.21526438415792942
14.038134604,-0.7060473327795984,-1.1559639838146782,3.0891718313689007,6.9813345987413635,0.40373216070336404,0.20129909507778798
14.138134145,-0.41624612479651024,-0.8707313659271936,3.1270206231851603,7.255886644456884,0.5255305242175353,0.16316728877247916
14.238134685,-0.28547204018900957,-0.6081483089375598,3.3332348318741043,7.449263943857967,0.5856584161132581,0.08535896085675099
14.3381341,-0.13502245675430244,-0.30854270832513553,3.5307896154650558,7.45332352081138,0.6315850419560393,-0.010995781193811865
14.438130518,0.02094867458661004,-0.034578616411780005,3.6855083296340894,7.434748794874017,0.5086629865479417,-0.06967380671908324
14.538134943,0.23072017451891363,0.29779189593986916,3.7828101537203356,7.434826334139749,0.3956959876202151,-0.1154518847459734
14.638132082,0.33089327481785413,0.6599712521851254,3.840200051269142,7.339237945235379,0.31893356663681516,-0.16552285930206007
14.738133635,0.5892634266335292,0.959601150765781,3.6768598037609075,7.101955671636173,0.22248875909289845,-0.19821925690111092
14.838136548,0.9000376577947956,1.2106477991361344,3.5279201331753822,6.906868722622964,0.19110761658494996,-0.21117730185427877
14.938133463,1.081377827811768,1.3759638898499955,3.383531738696785,6.664448042416749,0.1988317106509881,-0.21957952763352426
15.038152647,1.4664481520468653,1.463154228928895,3.19424591659593,6.414483314654846,0.2533255225079324,-0.23310138531185465
15.138134973,1.7569809347726186,1.4818147579331238,3.1053797689668685,6.22675739443083,0.3520073894331,-0.25399545166433596
15.238147969,2.0887348784242334,1.426013332250344,3.044311306326055,5.97326513012293,0.4333257517059545,-0.26965552326198955
15.338181971000001,2.4239414535068255,1.2951333786445012,3.130589400428319,5.680362754528336,0.5114527063147237,-0.2717084603315016
15.438135141,2.5843430115908985,1.1050516658605138,3.166370263187509,5.483668132457345,0.5844816002338157,-0.26599186989211104
15.538133062,2.83856026231197,0.8601100430206685,3.205733126082333,5.2106365916693775,0.5693328851796131,-0.2578894269078085
15.638134943,2.9542974626095684,0.5550587148853027,3.2826460330922336,4.943030752486337,0.5424149562495607,-0.24240973451338044
15.738132585,3.0306411297985467,0.252754556010053,3.339885148945459,4.714975943363032,0.5605826036393433,-0.22809324280946067
15.838134305,2.941349915995826,-0.08812935380982165,3.386343012244545,4.505201144611543,0.5278609171757251,-0.21930809970412074
15.938133431,2.8640639181252063,-0.3768756144944786,3.3648874800118094,4.256527660996096,0.4771003576208927,-0.2095382461427452
16.038133995,2.758200563899857,-0.7012850798442426,3.344034478516746,4.071993728426341,0.4652051922533512,-0.21543677713663353
16.13813557,2.515966945687369,-0.948186440720416,3.390013673013515,3.9005524629642747,0.37930888559397935,-0.22100041662570277
16.238134731,2.288673439571356,-1.1617547383526403,3.3702616698713217,3.6617914778619576,0.3443613340080459,-0.21867054512699677
16.338135869,1.9303620007026674,-1.348487169646437,3.277371395584434,3.4646909825199774,0.32050366232105315,-0.24379609910659056
16.43813044,1.6904907104830549,-1.3472133962025534,3.138330662094338,3.2180863970032587,0.3157723984361801,-0.26231882048268834
