time (sec),x position (m),y position (m),forward velocity (m/s),"heading angle (rad), from x-axis, positive is CCW",throttle (unitless; -1 to 1),steering angle (unitless; -1 to 1)
1.029015088,1.9078667341779896,-1.325557539532828,3.0915255235715313,-3.3883760793418514,0.4587965820950318,-0.3302126924105982
1.129020175,1.6415240767864114,-1.1411028413875413,2.9424968120443364,-3.657508855420869,0.3930030218422305,-0.3209656134105316
1.229009882,1.3088077622219305,-1.0178429845452823,3.0137400464108843,-3.9682204240712133,0.42492701197826566,-0.2533300387252384
1.329011547,1.1629497805945266,-0.7661641206992261,3.105726540694968,-4.160601991296486,0.4504062662270791,-0.14790959810234133
1.42902252,1.025466175955634,-0.6072243891473265,3.287863379629733,-4.183542395802244,0.4845643939413493,-0.011823910846928293
1.529006741,0.9045073062492995,-0.16152172096844844,3.436632415049383,-4.243700873637017,0.4180630439496461,0.08830347390424384
1.629018328,0.5896679030445904,0.0668094220119908,3.5590315082861803,-4.1525691565206495,0.40733890953040897,0.1463665299187881
1.729016121,0.36272355395739053,0.4337192618096385,3.6255736143061745,-3.9853441014448188,0.31729552144551676,0.17111812441019222
1.829033457,0.16702953967065354,0.4822385627838345,3.5091515462949014,-3.6781812597415926,0.2811856524397272,0.18302769604732846
1.929013308,-0.16578462853596196,0.7374892773779594,3.3722447540260045,-3.424052743845277,0.33627189312396255,0.17562242101413597
2.02900762,-0.5571334927413779,0.79590879649268,3.2067807841308613,-3.1466447571287635,0.3240359309533949,0.1628768623450738
2.1290114190000002,-0.7846771463286194,0.8929913259832698,3.182978754034932,-3.0169666916618088,0.30304093317932324,0.1483186708369438
2.22901121,-1.1411337070418905,0.8099223781759446,3.0991389435128394,-2.717605025011511,0.236185738785318,0.15731013494444654
2.329018482,-1.4191943160109817,0.6677067814742914,2.969530821698838,-2.6803429330451154,0.20129095579164644,0.17006795115777895
2.429012748,-1.6027795905371445,0.4332529756516175,2.9268549028321615,-2.2934689216008928,0.25099634046247143,0.15382673022060014
2.529045376,-1.8282920399486042,0.21586789663266262,2.9027882611545213,-2.2288520771082463,0.25294237074444653,0.1758086389013959
2.629014463,-1.9854426447471312,-0.021146697459580366,2.8125221206752102,-1.851029993650472,0.2595040436182176,0.170434958384789
2.729009058,-2.06967032104773,-0.35799423102728023,2.764635609599106,-1.7843841252739558,0.23640071423265388,0.18257160776922435
2.829023918,-2.0652222077282607,-0.5518492654539046,2.8461336210366612,-1.4979515673356714,0.23074215917712274,0.20240214647860397
2.929003728,-1.976222299085151,-0.7778766794124179,2.7148261432339527,-1.2904338266366948,0.23231770483688324,0.2139832844538602
3.029005219,-1.9266243212394858,-1.1645443219957712,2.592368069947076,-1.0024972206593628,0.2626444248352043,0.2297407618999468
3.129017295,-1.7825505002158502,-1.400270297753173,2.566734857970566,-0.8665311062771628,0.2720069083626257,0.22819840319820547
3.229016365,-1.5482465041535265,-1.5137377833319783,2.5593946487260455,-0.5322824201070394,0.30408909669616047,0.22580260592503051
3.329012328,-1.304598653061707,-1.5471550920032637,2.604906652117898,-0.2766950308416161,0.3458305719251422,0.23170914748875898
3.429010287,-1.0332771363873285,-1.5490958507456793,2.722518419516265,-0.02177033400310227,0.351984514265057,0.219429849220781
3.52901968,-0.7727109525075216,-1.572651570327907,2.750885531184447,0.32620233064656684,0.3769895518399139,0.2186199879445224
3.629032626,-0.5706015787386411,-1.5126696941170905,2.7791155256423354,0.448161541968071,0.3819256950891278,0.22005389858701352
3.729013891,-0.18793453326832227,-1.2995835375423423,2.8533623201153744,0.7225900674338329,0.3743231421433042,0.20771869919798946
3.829015854,-0.2167609723886908,-1.123066892690447,2.888652914104242,1.0203356178706882,0.383965784803835,0.18678823938819752
3.929021444,0.06131713846260122,-0.8638193635019124,2.861163683287191,1.069328567206482,0.39220207232992854,0.19327643034923336
4.029004764,0.15992484586830405,-0.5904467983055227,2.997916271110405,1.4022605745261196,0.38698336725236243,0.09997251462600026
4.129025025,0.21536413591895007,-0.26006951711825055,2.982673736908011,1.5416345321490716,0.3660309775462831,-0.02176087115385449
4.229010915,0.30528173807213166,0.09507409342144514,3.09675959107227,1.267764728049649,0.3422947874628728,-0.12613758512109483
4.329018166,0.3617813619575564,0.3159365063358645,3.12693990763676,1.2103444144677693,0.28754958205627884,-0.18607443412547026
4.429023108,0.39429573736500595,0.6357798562065768,3.1088069927974193,0.9554491749865253,0.2761728296104876,-0.20983056283976023
4.529018752,0.6615214456700153,0.8700574417732047,3.0131073807457667,0.7571611761090201,0.2976976853872901,-0.22404202404130721
4.62905221,0.978491809178238,0.9563880897268877,3.0534716918615668,0.5497488783022304,0.29849351524272627,-0.21643647225276388
4.729016631,1.166754774594946,1.1869382977653649,2.924193975828278,0.2534570108624942,0.30713146036636263,-0.21682431353445125
4.829012526,1.47629091002488,1.0936140172055129,2.9663348871399484,0.03956402112002885,0.33299851568922567,-0.20565039187506895
4.929017159,1.8503058774149717,1.1671289699757579,2.9004061569619695,-0.09529223334620061,0.3217144940810454,-0.20947925845682455
5.029031757,2.062126845867263,1.1202005795575787,2.884131192098165,-0.49592015763816,0.3257838510653923,-0.2061281805146397
5.129018746,2.218074974437955,0.8737061647289514,2.8988170664349457,-0.6336605275966283,0.336016765616896,-0.21509133427299734
5.229018078,2.4606548646305586,0.6949939614632776,2.823080715004073,-0.763753567217959,0.313137772153743,-0.2189752094370638
5.329023782,2.6722786341492486,0.5545207680939208,2.859699470301178,-1.036282529402856,0.30511371854156843,-0.22616100278374993
5.429021146,2.736326896211713,0.3273819654368587,2.7934063150671555,-1.3722286105498476,0.317541033393886,-0.22387398300513597
5.529013181,2.9531168301270956,-0.03546164656007555,2.8524525705984436,-1.5387713907217022,0.3284477414748069,-0.22305222539772357
5.629206174,2.798870204814382,-0.39861786697555057,3.0249700945960503,-1.8421104995213013,0.3294058564833468,-0.21824849809441504
5.729024105,2.712802686227032,-0.5725724916846293,2.901086363808421,-2.1525622154359088,0.34264550332209864,-0.21825040485930688
5.829015164,2.48876089731494,-0.8266306015777041,2.8384335065318993,-2.264497841415527,0.3464881169692264,-0.22123461297166208
5.929013855,2.2718452866653083,-0.9850801037362029,2.9412354582694302,-2.4888780079959316,0.34940863614050893,-0.21733183224329505
6.029014153,2.0554660756066063,-1.2440904066027203,2.98451731177515,-2.6331528800262896,0.3545162233278544,-0.2212213238780496
6.129013839,1.8244787064498258,-1.3254337367167501,3.0069903232097297,-2.997190417665042,0.35364876655056876,-0.22005442213627882
6.229006251,1.4649414207151328,-1.3017243044522788,2.972647607310991,-3.1180860667894046,0.34414253736879197,-0.21701334268474023
6.329012478,1.1507257852302388,-1.2292350287370675,2.918530901134153,-3.408259059765278,0.3374926956085894,-0.20922827220427626
6.429011836,0.9842104254858953,-1.1519685147824112,2.9767889679950392,-3.6691249791790033,0.34390250553597845,-0.21078107602094165
6.529008869,0.7023968450241883,-1.0915486813100352,2.9398995970841986,-3.8979737602792524,0.32650661534753106,-0.20328186376909202
6.629038761,0.5072964763476102,-0.8061313588169196,3.004959631667272,-4.061190507271055,0.3278770721838342,-0.1968664717122793
6.729014662,0.4782215412053573,-0.4755424529125155,2.776650340612441,-4.352074789053199,0.326343388067365,-0.195722947838937
6.829010858,0.24823591335589293,-0.23441271141144754,2.9706376459006667,-4.531681982840396,0.35764147258596213,-0.07178187018904851
6.929010812,0.2500265828500768,0.0577359811701516,3.1855390241647874,-4.465094114809966,0.36048814521596023,0.08718564536252434
7.029006811,0.06531714134688692,0.37668162200178446,3.259631813534332,-4.318793961440353,0.31531815420245635,0.15675434218135928
7.129017406,-0.03897145191654798,0.6884999470887664,3.183442051697813,-4.116653750872607,0.27531881103002726,0.1868782910401045
7.229014007,-0.28819175647408074,0.9493522786883543,3.1915099802848172,-3.8877846903630213,0.3163325353125067,0.2023430494594956
7.329009244,-0.4964630212808634,0.9384198818664151,3.097097222422135,-3.655435880293302,0.3155538513193842,0.1934158688605766
7.429004719,-0.7560130897670246,1.144627208792113,2.982416341945186,-3.4264893762770647,0.32109516080434913,0.1785339681667902
7.529105802,-1.078937018879835,1.275686702605177,3.0015706205735744,-3.131114917234901,0.3513560272037333,0.16415242433798405
7.629022285,-1.4074782372548729,1.2403491509645455,3.0699702256096617,-3.024842893308901,0.36032218137062577,0.17251527741946723
7.729024198,-1.5528796614102975,1.2384421069500433,3.0166912023765513,-2.801411772029572,0.3375776569429071,0.17276237381428056
7.829018521,-1.9069549186511416,0.9574664181231815,2.985108685953431,-2.5706773048962406,0.3150813774736285,0.17658944513754568
7.929015457,-2.1241132857755636,0.7732100098364753,2.94776169257723,-2.397274177334493,0.31096070779103363,0.1759707735576771
8.029028865,-2.3297098907303884,0.5498045691368347,2.844416388518056,-2.126162545782799,0.2935572517373903,0.17675367427064767
8.12902634,-2.4351985708320845,0.3643626603203385,2.9826542952875883,-1.790202794542362,0.2899471114572934,0.17338362420580872
8.229012599,-2.546120391937943,0.06232882927774136,2.8592531223348603,-1.6600002046581432,0.30226407366521485,0.1839192683244976
8.329030672,-2.430134326100304,-0.22389736965152157,2.804263383825046,-1.4408178970588368,0.2821633859704794,0.1864078403356533
8.429006518,-2.412362813678461,-0.5789053039174876,2.85324517869144,-1.0903448941922245,0.2878374651601472,0.18983685428516048
8.529024258,-2.2487371744442277,-0.7673123642426246,2.860920809582673,-1.0169864662375374,0.30916550439499974,0.20309257992346486
8.629009332,-2.0805219812339124,-1.0307853255649666,2.731779931921896,-0.6858687079557678,0.308096643359626,0.20214644857440248
8.7290113,-1.915521892070879,-1.2726932438660703,2.851487689121418,-0.5701335590599848,0.3164298712604757,0.20268316123145824
8.829009539,-1.5789659743177995,-1.2424937161020349,2.7957704026781816,-0.2748728406940812,0.35736225090567575,0.2095755480859354
8.92901174,-1.383425615358396,-1.2569120666211855,2.7511949044048345,-0.1094719690152485,0.34238584097579333,0.2069550841217094
9.029007553,-1.1144704055160983,-1.2054788356983974,2.8230138446238477,0.11815321449693277,0.35391266352560585,0.1991573726686327
9.1290137,-0.8227305530917817,-1.136414207286783,2.9002713359811616,0.43986520435001686,0.3805114692154991,0.2002519866839234
9.229008241,-0.48473675316258846,-1.0712575598991003,2.9075312010171994,0.8153633344990332,0.3538392344450856,0.19448005622995282
9.329005793,-0.3421573301793853,-0.7872901025582896,2.8795549342534668,0.897336839164238,0.34113351361614414,0.185546346499016
9.429014807,-0.1662896301481703,-0.5323698338622467,2.896550175696342,1.1432761696845686,0.369032805571535,0.19379955937190962
9.529011018,-0.13878395473450306,-0.3607363798072196,2.971402708802175,1.2715788139488073,0.36899281026739444,0.0974035919685993
9.629007486,-0.07618140730417523,-0.05290598151615486,2.9220790915934787,1.3776347403327376,0.3401210306444612,-0.013410073063385503
9.729011225,-0.07506682930975189,0.2735143860451868,3.134672487761525,1.3241074451361892,0.35544763985961997,-0.11730151038005655
9.829016235000001,0.13243455227873427,0.6062811969746671,3.1428671173828073,1.173318464936711,0.3020041153160569,-0.18561927506568526
9.92901163,0.3162248023761286,0.9045140563250289,3.009129656321286,0.9151567817331803,0.2857345661761855,-0.21361243261884894
10.029015151,0.5426934920233646,1.0894061411384799,2.9271363950942098,0.8946413195463269,0.33383882216348737,-0.2262054659437322
10.129010586,0.6633855789329999,1.2249026815797612,3.0231420897711816,0.419203673602819,0.337883598805377,-0.2191180016646734
10.229019762,0.9724222440057382,1.2459126304636428,2.8511824603095373,0.22076999121609567,0.4261956471456486,-0.20880745833395986
10.329014118,1.2439859517471554,1.4153882176521007,2.9146664933961515,-0.02174494608885815,0.41224636331238007,-0.19787795362350943
10.429005592,1.4384470991957827,1.3799012097599619,3.0088078910392717,-0.2943462938127319,0.36560326224880396,-0.1902536063034976
10.529012419,1.8799329381925047,1.28741672009003,3.031229610271634,-0.33193526504427007,0.3456468529021163,-0.1926738622349805
10.629022352,2.215593450043818,1.0206117811768163,2.9663696388358396,-0.7041857819930114,0.3224766595419291,-0.19079643613732472
10.729023145,2.344943161654555,0.8822740960256348,3.052159801987589,-0.894991072613592,0.31880450287056006,-0.19909834962452536
10.829009368,2.344331792901812,0.7064455122780727,2.9321804059535777,-1.089493584852406,0.29381280340373855,-0.19454695657682314
10.929012106,2.5659079203879207,0.3822546982460077,2.943433385591803,-1.2786042438672438,0.32855582584970944,-0.2106958135826551
11.02901222,2.6731822319585676,0.09038914918585134,2.976999562105422,-1.4744140238280476,0.29683124430715085,-0.21143707305446877
11.129012876,2.6463215062253744,-0.30559342198299094,2.9649954288681712,-1.6608630951498662,0.2909166409473768,-0.21349577521846536
11.229005941,2.5348116424955083,-0.525069547533136,2.8413553336950508,-1.9489417861604448,0.33480899928919744,-0.21526452720965927
11.329009645,2.3922011193289814,-0.6483877149165098,2.8327286544209436,-2.2030043999081883,0.32523246234902076,-0.21172736511077733
11.429049415,2.2015807379506147,-0.9800939922225991,2.7941658968876535,-2.4814565549524206,0.32572537850051875,-0.21284550176714026
11.529012541,1.970989516646502,-1.0299732637655892,2.7980079908827578,-2.6819290208902595,0.3644280397384925,-0.21540063270160226
11.629011697,1.6547499476379863,-1.2010496517380924,2.916364061302192,-2.9741091639225776,0.3361865802696993,-0.20878361612111293
11.729003514,1.4255509024752224,-1.1880688618186521,2.8405140862967335,-3.171412957331478,0.3263736077920641,-0.21315266150700268
11.829021021,1.064673243458173,-1.2265227931031542,2.9135602757559003,-3.4044264281985224,0.33311266753721164,-0.20694736550609463
11.929013869,0.9160337440464642,-1.1503660062192684,2.8861014690930133,-3.7007883278598896,0.34523812688993016,-0.21038408452645596
12.029013813,0.600478811475774,-0.8925747954834186,2.778168282516926,-3.8753431056188417,0.31866021873710476,-0.2128366854791275
12.12900968,0.426063644762599,-0.6897380054698334,2.9069179849603244,-4.056610681192207,0.32429258679533807,-0.20370932889121604
12.228995987,0.23282272654817726,-0.5008852312012778,2.787805028218539,-4.260953870455493,0.33948511147454663,-0.20887842982972896
12.329019279,0.05354805448050026,-0.17769406404736254,3.048320574096927,-4.44370009191613,0.35452036507448187,-0.05034786540246205
12.429028797,0.07954714193380495,0.13942436618425294,3.171981742614123,-4.308944700487053,0.3447237965409404,0.06441003784533238
12.529008152,-0.07134461166232663,0.4359356608748747,3.3396232994570725,-4.304044948247494,0.3233154702277726,0.13664429417299723
12.629011636,-0.22681086162281774,0.7059113291355404,3.1656375308375733,-4.103293872713626,0.26914246009137266,0.17999604707507563
12.72901284,-0.4078063120006199,0.9639472286849425,3.18828505249184,-3.915403660080361,0.261248005191787,0.2030535494200751
12.829020678,-0.5897583774375114,1.0896774694070461,3.0281646855334943,-3.6558072402031594,0.27496963088576637,0.20822707979966099
12.92901668,-0.9331705253154347,1.300897366721804,3.0092828133842375,-3.422962226638786,0.30648905647596436,0.20059880859607457
13.029009695,-1.1587445277804138,1.3857658011500398,2.9302969910576184,-3.1827392448581757,0.3284190726648929,0.18854370089927555
13.129013556,-1.4696115836424029,1.3519123971267948,2.99924096250323,-2.9618062193523707,0.34384604696153925,0.17658959109392403
13.229021137,-1.7313358860508745,1.3155324913635629,3.072548900360719,-2.7587768692184906,0.34667112283858215,0.17660453707809134
13.32899959,-2.081500012040606,1.2041985782491378,2.977562148957176,-2.6019221709131477,0.32757232271324616,0.18548621609183608
13.429012231,-2.253353332117689,1.0005185490673887,2.976220758419029,-2.331938816419093,0.3098696831368678,0.17483321451660505
13.528973836,-2.3975255478924637,0.6052146373393185,3.1094248953212196,-2.0875427751877305,0.34080892487321673,0.18681305477616697
13.629009245,-2.632329725655267,0.2866116002141216,2.953841880409138,-1.887142195302334,0.30850069630636523,0.19051559409144883
13.729006402,-2.6245784105892365,0.14839589941826575,3.0106152252863567,-1.6705918637321808,0.28468267440053757,0.1940696023754809
13.829074621,-2.6236871525481287,-0.13382194685757318,2.914574289365292,-1.5255141423963414,0.3222946780274589,0.20196468282948737
13.929012566,-2.623393852677518,-0.3989534640095835,2.8411829962652955,-1.2188805572235213,0.2888884388218833,0.1954758442564838
14.029020006,-2.492135449380957,-0.7191066150822158,2.7913439698079303,-1.0502846222997257,0.29754003943349794,0.20901598979877123
14.129013822,-2.2826722028552577,-0.8519032527470924,2.8372848586980597,-0.7172622688049684,0.30784825863854076,0.20539823350757658
14.229029539,-2.0146497832663632,-1.06481099947406,2.8248402203868785,-0.5897059896279977,0.33592511946784953,0.2093475739520127
14.329013299,-1.8165196911363988,-1.1566652462099802,2.89511941958133,-0.2801145685288172,0.32554484915060217,0.19820049060222697
14.429022467,-1.5483027097532318,-1.1898155798122994,2.9152036096509373,0.01313674660935741,0.3337421343205525,0.20759801770465697
14.529012877,-1.1999871159914552,-1.254163097304274,2.880588264216327,0.06725902630883467,0.3593108448848187,0.2091675628126864
14.629019915,-1.0175736609271342,-1.1813548714225772,2.828964090527317,0.511594297963068,0.3412227375208798,0.20398578308563806
14.729017403,-0.7497520839294631,-1.0166361366476424,2.8195968748592946,0.6361030023265337,0.34068150845151735,0.19241165937339588
14.829014959,-0.4974552035315804,-0.8444234415040661,2.999367750295851,0.8340836303043413,0.3520839526139548,0.200169111629315
14.929011817,-0.3417826018933118,-0.6287200651145387,2.9068851086993908,1.117675635816968,0.33774466461880176,0.19273585444110894
15.029030862,-0.17342121826564014,-0.2927516840572697,2.8859538641803306,1.303512032404391,0.34676864117831363,0.1343616702618836
15.129004984,-0.19908707501361902,0.07025109776808432,2.9961947513923377,1.3218122466906954,0.3726514537217329,-0.0167375581182484
15.22900884,-0.0662851642535726,0.2162043598142754,3.165269804105854,1.2212320435297581,0.33617011086141196,-0.11750858313779602
15.329007475,0.10951345039530187,0.5365795891179231,3.2139518118247157,1.1957498095872168,0.3182118462560324,-0.1529078214797144
15.429019148,0.1412313433263967,0.7486801141291048,3.0028915995909906,1.0140270243084542,0.3111042143518542,-0.2041598764582974
15.529009979,0.3728750536763876,1.0968887112257235,3.1041186547479964,0.6461192023938386,0.3051329619949371,-0.22067103385006212
15.629010159,0.6396610562773856,1.283972583838361,3.043797660767361,0.5412721678705719,0.36889769669249795,-0.221949381150766
15.729024685,0.9298162076688786,1.3370373677673109,2.9814942037437513,0.2516825944972661,0.3569195960406862,-0.21369703073092183
15.829018364,1.1304454162168864,1.3948302923394038,2.8763724120595775,0.06855390501732081,0.35246376352637915,-0.20253356594331925
15.929007524,1.5312330034801942,1.4383472975517098,2.963608963884171,-0.20773196677196956,0.3554048204234058,-0.20028812339798904
16.029011872,1.8166080079636542,1.2734721448352901,2.9937297002670005,-0.42092749453540557,0.3595489822002238,-0.20237789096930436
16.129016701,2.02603360245096,1.1608257622872147,3.0363700066252752,-0.5896900249495892,0.3314966462383951,-0.19413864843225898
16.229023628,2.374366727746616,0.8570704023209861,2.9255481250413577,-0.8791453092428768,0.3206647102732984,-0.20512783069451745
