time (sec),x position (m),y position (m),forward velocity (m/s),"heading angle (rad), from x-axis, positive is CCW",throttle (unitless; -1 to 1),steering angle (unitless; -1 to 1)
1.032577387,0.6924538181395057,-1.3184198236624767,3.3367987982270737,-4.1049952278247845,0.6868189236204174,-0.14757017447199616
1.132569007,0.5311929115219116,-1.0973688397377628,3.6717864712126627,-4.092242689260242,0.6490884968476233,-0.03324979856636909
1.232563614,0.36577654056897385,-0.7203976207859899,3.896675759258239,-4.054576967203702,0.5531719263711932,0.03537544562977435
1.332624847,0.08422580474575592,-0.3780501383481212,4.061702807283361,-3.9630571072289302,0.44765915973624476,0.07569535810888157
1.432668526,-0.07421639456936255,-0.11678388757696886,4.102133870051357,-3.941642445165588,0.3412702203147817,0.11217965473798232
1.532563965,-0.428270696320565,0.20514506676030453,3.955085002333268,-3.697489430509179,0.24765425560833706,0.13531952731657548
1.632644055,-0.8232429632135665,0.3682109697828304,3.786210463240368,-3.418288912918086,0.19510627158705596,0.13392353765243523
1.732587142,-1.1529711015100246,0.3949973438438916,3.5891482415251628,-3.1149653586026433,0.20183703604248301,0.1510786606649854
1.83256451,-1.3944967458246522,0.5352711999173971,3.40522079160494,-2.957621563631801,0.20021189621520796,0.1307114832283564
1.93256923,-1.8491946475098215,0.4711625472699077,3.2006901383032393,-2.8578026332255826,0.2235060295881113,0.13865765079536066
2.032589203,-2.1498321029049423,0.4071192814668726,3.1231421604149037,-2.6404948120074976,0.2395409318074805,0.16069407783383577
2.13256888,-2.462879991067144,0.10646044234179478,3.1166725415853715,-2.466770108795029,0.23644866368696418,0.17498334048469455
2.2325848,-2.672422324330185,0.01766708251589934,2.9639506929069253,-2.191510448331434,0.26892837871901015,0.19026835905537134
2.332657845,-2.767781517987503,-0.25857169849820943,3.0058354443097737,-1.9745926968860705,0.28924939860526727,0.21100598878216112
2.432586299,-2.896385206298805,-0.5195908629083296,2.849465327479942,-1.6222064175405482,0.3017670510650059,0.20779882369907057
2.532575049,-2.9130677825175666,-0.786585848153389,2.7989585006515085,-1.3508178963419013,0.351542729249975,0.20948191870615276
2.6325849960000003,-2.8508633233728795,-1.0598770415752228,2.850014342642233,-1.2105501531279976,0.3939050583873003,0.21586058077629122
2.732581188,-2.753817080489755,-1.2086506334517266,2.799975410474041,-0.9565730786681937,0.4140741356880668,0.22939198983664957
2.832564217,-2.502793116215478,-1.6646032724041355,2.937624672492145,-0.7554619891208828,0.44431945944936807,0.23418996321125363
2.932615898,-2.265561125405022,-1.7188099800132115,2.990068927150359,-0.5267769197655543,0.49196177211119113,0.22918489585974236
3.032609494,-1.9638444713561312,-1.8315735972253628,3.0393098257802915,-0.25656228577423434,0.4947042857372804,0.22401324998880323
3.132569775,-1.7221506851733301,-1.8118681613636372,3.1975345056586955,0.07440476294566203,0.4950793746293232,0.2174562499599024
3.232567703,-1.4428126753225348,-1.8816718614231844,3.202536754769192,0.19289126684060035,0.5040020315474903,0.20816554382019375
3.332567365,-1.124390812957222,-1.8660343939579893,3.249526174788446,0.4808022537569641,0.489829302045833,0.19588787304839508
3.43256875,-0.7453724214365635,-1.6448728853928765,3.2993847741338937,0.6488605245999836,0.4702214921703495,0.18569623130611537
3.5325594650000003,-0.49159010502801975,-1.3930835018204795,3.3610550524563396,0.9604325861560413,0.45717240101124335,0.1834825399989782
3.632685624,-0.23473723016470116,-1.122164844002392,3.287128208629628,1.0678166444118775,0.44101499528176535,0.17614068245338751
3.732585604,-0.2473727566464783,-0.8543545847011541,3.4483369954655574,1.2013506060456902,0.5035493632819816,0.06784914360157258
3.832565825,-0.11001425669708009,-0.5376328676047559,3.6292864953999406,1.208449584794599,0.5125476467455148,-0.036725220597312716
3.93258569,0.022662027678336777,-0.08988389411614317,3.5719673739388917,1.0942468028991064,0.451744563442529,-0.10028784136328561
4.032643492,0.13374826144398194,0.11574093810147523,3.6424483903983327,1.0722686179932097,0.4004059641708388,-0.14302458115652464
4.132569912,0.4057899608648822,0.4111619381168348,3.6732486232058648,0.9103809898986659,0.3431376131452941,-0.16662268449079867
4.232568672,0.5608865259339304,0.725936318635899,3.6193705688782356,0.765826769892397,0.33171784217009537,-0.17133258334332102
4.332567196,0.7791731933625061,0.9527254704891951,3.5381962673220615,0.5092001756762237,0.318070408895545,-0.17748286723851217
4.432574557,1.0621316155594742,1.1468187086159891,3.406175878022429,0.181445755393513,0.3157785335548035,-0.1805275923704165
4.532669618,1.562162133427386,1.1313817984297363,3.3759941371548337,0.04868540217081117,0.33400296014787256,-0.1880080839036139
4.632567768,1.8961923491994999,1.3096078454910662,3.2431677764428986,-0.22835726586602267,0.35111578812012506,-0.1953101539981648
4.732571759,2.2038160305374386,1.1679647975975143,3.248032158441188,-0.3660449987474985,0.3475365993455725,-0.1884690630346377
4.832584712,2.448734641273925,0.9191410730338249,3.2673187065996023,-0.56981875636969,0.373172342743342,-0.2054303861363601
4.93256692,2.7884578045598847,0.7657160461835644,3.1608885295964537,-0.8051044831878026,0.4028500594138597,-0.2179433419579905
5.032646017,2.9435519502182763,0.4435184002626043,3.2217927450709,-1.0168615992149899,0.3921211559513497,-0.21469749724887482
5.132572859,3.048807165272162,0.1448082515127514,3.2282444235538987,-1.2241892748647003,0.41418720707104734,-0.21187068217365002
5.232584256,3.129896383988792,-0.027915699813544984,3.1877183608932675,-1.5552370629976942,0.43753260643965824,-0.21555492316175598
5.332576104,3.0360828884706623,-0.4123694634566134,3.323616085320658,-1.6810961363567594,0.441059133309431,-0.21935595564638988
5.432655613,2.990535144733605,-0.785434897222375,3.32034569598319,-2.028813932325349,0.4426830467302158,-0.21211293101548276
5.532565407,2.859115135414938,-1.061476247114623,3.29012851179696,-2.214414783568435,0.45974294604275495,-0.2276736150739984
5.632616046,2.6386057297460117,-1.290146369322784,3.330902843851143,-2.4470918934704446,0.4465928838009469,-0.19935888166104293
5.732566568,2.383567408869894,-1.4232920946082785,3.334413704135054,-2.6296412790073473,0.4364370037338365,-0.20391632028951864
5.832571902,2.065483500969569,-1.5848694487978507,3.3807723405446564,-2.834355959344062,0.45553827934243446,-0.20954392319197418
5.932576651,1.8342296279349222,-1.5625041481467823,3.4172933561555756,-3.0734091451167918,0.4150100736551629,-0.20552963475614666
6.032569536,1.4195695387391443,-1.685804214902301,3.3804672973934786,-3.3334215655503066,0.39455390602221646,-0.20429606269197506
6.132562801,1.0399193355037242,-1.6487427124833502,3.2338288199647582,-3.5766231159341,0.4096563793819732,-0.20663077884378941
6.232576018,0.7493970469758203,-1.4834959758351052,3.1938521658397363,-3.8074751338669084,0.3812111306389961,-0.20667205634893304
6.332563183,0.5324070979160715,-1.293124771099154,3.2155088762158055,-3.969697077882444,0.3963044794104301,-0.1953953371898485
6.4325706,0.3671365149493984,-0.8983128371292622,3.3404178994346436,-4.116368653789327,0.44794957730805174,-0.17727796864648002
6.532609661,0.2648041303742447,-0.6436402517364057,3.5265030898492626,-4.403349524906079,0.527688653711502,-0.05563664282137359
6.632562536,0.11618733044515264,-0.3704948864954621,3.59111832836825,-4.419254378202259,0.46644122213979594,0.03342280597358713
6.732566464,-0.05314788875558639,-0.07332227839386417,3.7609902218935893,-4.235534426710104,0.39575357310569415,0.08459766268691363
6.832570884,-0.3657088905674958,0.29064202733652394,3.8648033411058536,-4.119094240521465,0.3207174518915116,0.1216614019296087
6.932567627,-0.5454173331193545,0.6538886568102709,3.671835811749929,-3.941081564411081,0.24597141017295343,0.14157225931221462
7.032556286,-0.8091429978096315,0.8012918946088701,3.680031635736437,-3.7368778025267897,0.22358990183178243,0.1575948459933111
7.132619702,-1.0294472631832259,1.0105865203000346,3.377304099873189,-3.507070099374326,0.2276078174355004,0.15055991129381435
7.232643176,-1.5791674746960958,1.1707185086209515,3.334469655674025,-3.2168835123538155,0.24522791534755461,0.15632594544093584
7.332563725,-1.7800498673036564,1.1026287611342231,3.262105340074268,-3.062764171768164,0.2715916197979125,0.16110030122027322
7.432567105,-2.07178711842475,1.2071777111623754,3.025285799711254,-2.8529966591983063,0.17622190981135785,0.2024062896360327
7.532575165,-2.39956993104279,1.0854804738109407,2.8736845582554262,-2.5899178221471875,0.051447969649249,0.28414235123349924
7.632642415,-2.606615289731,0.8092901861051155,2.7531664551603425,-2.2850961635881295,0.32314818445632426,0.21089527709741926
7.732595505,-2.7277518823856917,0.5988766047367416,2.8953390398952066,-2.0813314812939043,0.48023119594184227,0.1603816403162453
7.832598426,-2.8855677063188407,0.3379212586937989,2.9765433879948278,-1.800637513077033,0.47092928433238024,0.16384322014830618
7.932599731,-2.8844035194781017,0.07454778272499692,3.2278800461282655,-1.7064333463259995,0.41744009429364104,0.18358687524548492
8.032649999,-2.931239375440729,-0.22947141702980706,3.1040847258867674,-1.6091289452056154,0.3863827681498962,0.19870012127706568
8.132570182,-2.978093517178366,-0.585818451120194,3.0307757563094673,-1.1612788100979812,0.3767636563632544,0.20265769805719752
8.232564889,-2.8160874464452847,-0.8964584471248316,3.1439382727452854,-0.9847143748915945,0.39695350049277983,0.1980547173502072
8.33257452,-2.5504729440718736,-1.0730476309410426,3.015255933573284,-0.6845104498760313,0.43721637064437485,0.1968717350633612
8.432560544,-2.3004676554271746,-1.2961921330693826,3.1166548357156443,-0.5303721499887126,0.47476852335308733,0.20295499846934983
8.532563778,-2.082965304354658,-1.4433268637532373,3.177342527738691,-0.30215052169391954,0.4720370895069041,0.20337289832959216
8.632561282,-1.6389561866337539,-1.4666930049755622,3.3301603607427177,-0.03950063989414457,0.4609326140841635,0.19457152409543654
8.73258364,-1.4407982835320183,-1.4649056567183394,3.291849337615746,0.13482384341186088,0.4637079439599148,0.19912673493586122
8.832596111,-1.0812845635946593,-1.4296486519411835,3.1875586186524503,0.36625302415313077,0.4360491839595609,0.19317027773520717
8.932567784,-0.800606437584149,-1.2215780651657033,3.311239504580956,0.6871390051267249,0.4190135788367669,0.18340071996301477
9.032589866,-0.5262556231097419,-1.0558197396920008,3.1457523635846525,0.912903900106158,0.42735269133389064,0.17895011297437152
9.132567087,-0.3847325422856184,-0.7622506702584362,3.2373436548642798,1.061467070342752,0.4447871338331438,0.14230579656544953
9.232563785,-0.1408832044037374,-0.4887608052337432,3.3147643980602455,1.227406445825171,0.45778376651466074,0.08403254871678806
9.332569945,0.003000795384758226,-0.14761931540046663,3.455393681019675,1.2552534832511595,0.5015402917078272,-0.03300674823408155
9.432565089,-0.035397880498300886,0.20847000029217524,3.5283406590158473,1.193225667546364,0.44522438966478256,-0.10270580064143287
9.532568059,0.2597847795484305,0.4744444467290547,3.6350420794131977,1.0737740003700855,0.39142344257831657,-0.14215800165927053
9.632573319,0.36632101966730046,0.8428754619505289,3.546391982946255,0.7579846004042322,0.3714431138921378,-0.17189221668018304
9.732579554,0.650908921078272,1.0928052060611417,3.5629858337139533,0.762570697430648,0.33452458766189935,-0.1751123275084114
9.8325643,0.9252244191835965,1.26534538311728,3.569752888816785,0.43030702947926697,0.3386643694153839,-0.17275696122185166
9.9325696,1.3075333950422825,1.3169241969480308,3.479762494508937,0.17844621321653073,0.370989292892717,-0.175534532437468
10.032623048,1.5932124125034628,1.4952219871067138,3.389954041173445,-0.06315955245186665,0.3666586421374936,-0.18190789953206227
10.132580459,1.9401837921863945,1.4825137196924316,3.379539234962716,-0.203535764682378,0.35530966322653,-0.18859178252450962
10.232566766,2.237515850763775,1.307600802057187,3.2707920391751073,-0.4301167258723476,0.38663632203057396,-0.17737047631574382
10.332564408,2.5306244554398583,1.1667965596161456,3.237039984753924,-0.6793799158386185,0.3927110242917146,-0.1953372134208704
10.432670645,2.7301065070890327,0.9171410493975272,3.3131844983181042,-0.927842472135075,0.3983358414468064,-0.20317011133652507
10.532610074,3.0006071741537927,0.550420655403339,3.2388324361891603,-1.1788101805462274,0.44194903209177416,-0.19922925847423803
10.632564445,2.98737861110751,0.3367521891965676,3.291848172968364,-1.4447201440837771,0.4454025167937626,-0.20483216089385245
10.732587941,3.2079976361159455,0.025154352163822856,3.366842826179444,-1.607670965125249,0.4272692325170349,-0.20259644531562895
10.832645552,3.0226086899324986,-0.26769879823304893,3.238088172312702,-1.7456004263485552,0.4310510760236918,-0.1980033250540445
10.932644792,2.9043880480763677,-0.6070625977101504,3.2864763441538174,-2.0697072374581666,0.4474494273324326,-0.2029135383477354
11.032569468,2.815416513922447,-0.9084434809181521,3.42553366777162,-2.210887028674015,0.4320265716323854,-0.20162766185861078
11.132620419,2.579269608859488,-1.1286860184939327,3.3098959302772415,-2.5574796266457405,0.4393951708625325,-0.19455323016350368
11.232579593,2.3115988313449796,-1.2388747977341883,3.40103025241372,-2.7618569390050576,0.44494785749783894,-0.1958189351440092
11.332565281,2.0634274571107487,-1.4878011097514068,3.4053924169311056,-2.9018826783828637,0.4166298820628713,-0.1896074206482897
11.432562666,1.6556491787505645,-1.4873128284281374,3.3151907707915504,-3.176962042346394,0.3922060568446828,-0.19505408877598748
11.532559795000001,1.4333221862596999,-1.4914619633119741,3.3459953778653366,-3.3214736445321535,0.396222948037794,-0.19400959300697562
11.632569958,0.9736483349220363,-1.4628145984591998,3.310675859260335,-3.505831369074036,0.4645978517330659,-0.1830160073021117
11.732563508,0.6583208828556837,-1.2870792110589298,3.304410157884971,-3.784644157334392,0.3623032155323136,-0.19704772260926512
11.832580765,0.4853720215340792,-1.0837033377972831,3.269250973559267,-3.92532592380969,0.3567935660199093,-0.20391221699075232
11.932583477,0.27730837332905023,-0.846531284489177,3.339412111823874,-4.229384750894322,0.4343522950236834,-0.1460362720086339
12.032560689,0.1451931144870644,-0.5060014145559464,3.392015065795027,-4.319782488103798,0.4807694349772911,-0.060770221639237065
12.1325646,0.030573978874225437,-0.235485662357934,3.6226154023555703,-4.279404239824481,0.5025781938964843,0.032285851133170854
12.232574749,-0.11508314844598122,0.15871158743456223,3.6707058593999458,-4.1577600973471425,0.3656010560564857,0.08600288113523169
12.33258077,-0.43467042197032685,0.4372522180761791,3.7975796576791914,-4.157193631197393,0.29783654570105095,0.12173648084825422
12.432564322,-0.5494418896895454,0.7246986861798149,3.7241589807759223,-3.8526893582364345,0.25618809233641726,0.15737508222225072
12.532557415,-0.8367526840596571,0.9856348229193812,3.7007731483709407,-3.7144604817593385,0.2015439745067665,0.16743032169622163
12.632570473,-1.1722748755936712,1.240233342790042,3.3416316031010727,-3.4899629316685528,0.2014784280840468,0.16942520964719146
12.732583422,-1.519474711223031,1.2155923276819958,3.2896599411547403,-3.276058208933629,0.2548601294575383,0.16719260344264222
12.832565916,-1.8555476140439846,1.3259810296135965,3.1502663182940625,-3.0565609514286396,0.2883554682207383,0.16377817717465049
12.932572124,-2.007793922858559,1.250566221986953,3.0111856130953543,-2.8453979175734525,0.1076703856135576,0.22335986128868818
13.03266612,-2.3225945043302527,1.1089957033737337,2.926101509896378,-2.624813436835794,0.09805325967496537,0.3125068495381782
13.132565477,-2.51002637290093,1.0713989008511586,2.700350431764481,-2.142107181847801,0.45036957315378545,0.17995410389851377
13.232584332,-2.7981538795791696,0.7147288200572961,2.9977215688612677,-2.141321544760448,0.516182324215735,0.15123160338625452
13.332565073,-2.846109571184299,0.4442113849645203,3.1044037539272447,-1.9131458076033092,0.48022034338269254,0.16726339898363088
13.432570825,-2.9605082791033452,0.12095811600921878,3.195621009365272,-1.6306895989055947,0.4097571296137484,0.18982283653109205
13.532563452,-2.9938236015410657,-0.23629118083885767,3.1095255213044086,-1.54148772303367,0.3629829356395703,0.19859000823680478
13.63267707,-2.872405066139513,-0.3825798987096527,3.111676189589151,-1.2039142347112288,0.35761617693047354,0.19424887352534886
13.732578062,-2.7869322857098338,-0.7985685637273768,3.0552395722334595,-0.9259662984563225,0.3944577097787828,0.20692731250120086
13.832578980000001,-2.539199250240168,-0.9512793667064292,3.1490924339661617,-0.7247360853755074,0.41565575681322553,0.19902446678538271
13.932568911,-2.189103347057648,-1.3008670838591834,3.1270596272623674,-0.5603063886357479,0.4521623044945617,0.20084959421910262
14.032571003,-2.049961732059257,-1.4058856105549842,3.18588723618662,-0.35918379165920167,0.4637716138091619,0.20987669781064897
14.132637067,-1.7869433328402524,-1.3888792412129465,3.1518140851703875,-0.02737001910507747,0.44605294097313364,0.20991361426137092
14.232602153,-1.3488105143155045,-1.3768210955691045,3.3064730019915736,0.06370105428191936,0.44762232324442663,0.21316176955021326
14.332679522,-1.1290068069902517,-1.3406789130135686,3.2121823873550803,0.37841638502762853,0.43458685642885364,0.20279092583431677
14.432582432,-0.7828808351928677,-1.1637768957122694,3.2756850836630305,0.5685967415447534,0.4063704518838419,0.19343885777860204
14.532571841,-0.4890532004670184,-1.0105060045937964,3.225856156079968,0.8127534094073845,0.39789121896787005,0.19313025797436054
14.632572717,-0.3425068167242464,-0.9128891110961007,3.3310817143496143,0.9728209304573491,0.40580817421473286,0.18674248738920096
14.73256227,-0.155689618709461,-0.471509734442928,3.340900068072331,1.2067249191172558,0.48261704013466245,0.07806680131863049
14.832568402,-0.04568821766376364,-0.05038021866084856,3.51182349104828,1.2717668276998688,0.4783629462498866,-0.028806790524080805
14.932566148,0.04762048264881695,0.28491132074595293,3.5903949832178386,1.268593714327163,0.4788067823955938,-0.10541471911636993
15.032591295,0.20394696592776632,0.45297768346704625,3.6122137647296633,1.2476588620604032,0.37542854304122647,-0.16283188160560946
15.132578874,0.27481383205638665,0.8810602188105598,3.608098008751931,0.9414483537848833,0.3208695208886994,-0.21736099882546503
15.232590004,0.5546613413275335,1.1301970604975535,3.5061960909450507,0.6414696914879782,0.3536704394592882,-0.21547732470311456
15.332583259,0.7250154161688771,1.2701711474130544,3.318854187424662,0.4141205138168169,0.37775088680597013,-0.1934357337974027
15.432580368,1.116808674181767,1.4485753896929745,3.2781343604787123,0.2914192553308335,0.40266376367930096,-0.18253136120367866
15.532671607,1.4482012137119358,1.5423466900029965,3.2816311001607805,-0.0410235459604657,0.4545764061151336,-0.18649098061182737
15.632566503,1.7402447756492971,1.5054393280330247,3.3678747766833586,-0.23795524977877094,0.42813196888614075,-0.19399181045347874
15.732565863,2.0896192247903818,1.4384876502266466,3.299974080821938,-0.3298412415820273,0.42221747057279907,-0.1998880777730023
15.832586087,2.2945438241242124,1.378264461272574,3.351441383835399,-0.6344784087519809,0.4228646671907081,-0.19523083464539528
15.932564853,2.605426478825559,1.0894070245011325,3.2918981355293777,-0.9311769925364968,0.4232118685772285,-0.19566426871246217
16.032568801,2.870397794109321,0.837188196938903,3.2321201545178253,-1.1361103995472621,0.4186807728647862,-0.19249822163864688
16.132564919,3.053028817862208,0.4101067096300338,3.3613106599279554,-1.3894671087993298,0.43901782628735,-0.2062971396125214
16.232596392,3.029982443363943,0.16448167152522133,3.2622550504638994,-1.4491986801612722,0.42600321096361676,-0.19926294015167065
