time (sec),x position (m),y position (m),forward velocity (m/s),"heading angle (rad), from x-axis, positive is CCW",throttle (unitless; -1 to 1),steering angle (unitless; -1 to 1)
1.026845213,-0.9387617753660391,0.3999105676702373,3.3714613951260635,2.5175668449188473,0.2810573536053755,0.16527149710888056
1.126742226,-1.3755057160876276,0.5762144915047349,3.3869466983068905,2.735591468618776,0.2551262912498999,0.17388150683377274
1.226744888,-1.5990130444077173,0.663823090552965,3.1541720343108364,2.9407202622169355,0.23411817964180606,0.17319082922281087
1.326754244,-1.8635718925445972,0.6274657718405012,3.081622934922455,3.242539386245602,0.2463479820297964,0.17036752507758765
1.4267430110000001,-2.2435272473197174,0.6406260269131013,3.0485613737782558,3.5219509786307017,0.2742173598624897,0.1809294466412913
1.5267454169999999,-2.439824436638434,0.5899018696738636,2.953526053066962,3.6770382790685705,0.05096918358097964,0.25384411237704974
1.626778237,-2.6719713502250033,0.4669267582020235,2.7648532490986137,4.000362926011563,0.20857756932722088,0.23248022485935366
1.72673781,-2.8340971359078435,0.12241706542618533,2.6718225679533267,4.17137305448094,0.4013262534090804,0.17618030057915712
1.826793827,-2.892384170700944,-0.00956656744379382,2.8028079164687383,4.467356642264318,0.3678832224179577,0.1865966248769646
1.926743347,-3.0739267639836023,-0.34230290025045157,2.7739739010449687,4.5626748807637885,0.34438849987872505,0.20985170013775736
2.026853892,-3.0213594828963077,-0.6291905772120334,2.8392581808392165,4.847351217552765,0.3595125776051493,0.22618828592956822
2.126755244,-2.9355992577283105,-0.9156138713369251,2.8456309643875635,5.020605368736171,0.35651579161664126,0.23625348999967424
2.226740396,-2.763344708583984,-1.1018448065555615,2.910784066298931,5.364253468956647,0.3730147744533797,0.24458889926081173
2.326746038,-2.643760609276549,-1.3066562723667352,3.0091685222371374,5.573224502052242,0.42133316307220176,0.2315591886348931
2.426746564,-2.413726122148517,-1.4820782493454683,3.001927276457906,5.850806799925302,0.45223735242301555,0.23163899857766074
2.526846665,-2.141450137861293,-1.608781686853756,3.0898636261121926,6.064699612790093,0.4692832629699893,0.22243178568628402
2.626820906,-1.8433475043036658,-1.6633316663156084,3.1121473286915786,6.370497646383027,0.48320709860843647,0.21355752731860414
2.72673896,-1.476409960841504,-1.6855788914377472,3.1166791650264773,6.5494193729171295,0.4802431013391407,0.205822141523072
2.82674089,-1.1506367530907378,-1.5079304730787415,3.1936002182446357,6.698951678335709,0.4394949085446113,0.1986724902852355
2.9268137970000003,-0.9369986361224459,-1.3880892152511752,3.251001104032749,6.799201314139784,0.40899904033368567,0.19461420074782754
3.026829799,-0.5612475740590291,-1.0847536840077923,3.2984403536681235,7.2024035319774224,0.4075358236766427,0.18964344254295404
3.126878705,-0.5390643741989893,-0.9265612926209825,3.2643543584420684,7.3826411816842334,0.38253128963088057,0.16734888986190766
3.226807396,-0.3202215691346084,-0.575305564578176,3.3488845677725894,7.591328579910546,0.4159602572098836,0.07849487280538649
3.3268230450000003,-0.140380434465861,-0.2972517014728691,3.332866940786883,7.539982478835674,0.4485425963824759,-0.04349181225465555
3.426836809,-0.06464319418284108,-0.05493106763488461,3.5289106415019593,7.445027888913627,0.43238154350061214,-0.12156360649287311
3.526826331,0.038604589334706695,0.341543701339856,3.5698790618963248,7.48703002445752,0.36128632300677,-0.1618060017523699
3.626842762,0.21402445659031893,0.626475527478622,3.5411749915315447,7.1035501136597174,0.3458392780915812,-0.17622216619710587
3.726739227,0.46438098599773747,0.9129067220076279,3.3234127796403308,6.890037140756903,0.35609350194193856,-0.18436973680136517
3.826751726,0.7441212580047591,1.0166884729491246,3.427877540949478,6.766286464179151,0.358235559090741,-0.1792236475471767
3.9267804120000003,1.0062621063920731,1.1026224304724224,3.3592972855440815,6.452175781264345,0.36975920655653033,-0.17539981146318273
4.026743611,1.300092099031691,1.3279625743851373,3.3842794376330523,6.298994972583348,0.36856246227037154,-0.18321852459134877
4.126751197,1.6487839804443916,1.2483972297248693,3.2447563797326997,6.079208252776816,0.34781058883880567,-0.18772178300402664
4.226816392,1.9881015284760541,1.1684947069197016,3.3292161631755914,5.876031042930423,0.35609052042135747,-0.17559800002197637
4.326755852,2.259298251958674,1.0555599298562517,3.182802162120999,5.621244857004429,0.34980582861389525,-0.18517497303807193
4.426745703,2.532358181008909,0.888217173837163,3.2175383266271083,5.442809882392179,0.33084403218837,-0.18840406749896518
4.526894928,2.7648581902326983,0.5509819483914382,3.2151105410291034,5.230352587324443,0.3283299360485904,-0.1849326316405874
4.62675535,2.815158055941514,0.19391531415454408,3.1183505314488382,5.0376930996026985,0.33573626909217114,-0.20579961896525978
4.726738587,2.9690961619703824,-0.12996312851767375,3.044448583167867,4.769850844686438,0.3381215341383467,-0.2105978216666028
4.826743341,2.968301243859466,-0.3523400999976509,3.1438493870316098,4.531963926888683,0.35114437671576826,-0.20581460138418334
4.9267450440000005,2.7528989864013567,-0.6821092979822778,3.139912277759965,4.288156562267883,0.37367721144005045,-0.20650127674585114
5.026738518,2.7103801532452367,-0.923133389547051,3.0491159197060114,4.0312768485123,0.37774812759942417,-0.2096801911852461
5.126752815,2.4180932942637927,-1.1503280432774072,3.0901189587361126,3.8129711403604762,0.3938146670225416,-0.20504044436436925
5.226761572,2.134831985998637,-1.2830574548272704,3.1241199195300546,3.656557230776184,0.4147289954927431,-0.21258074409153552
5.326853084,1.9347559151895921,-1.387574300700151,3.129426898852222,3.3421414904326294,0.40374118565650907,-0.20882132722997826
5.426764929,1.6025839547465586,-1.4854242222760712,3.0133250698543304,3.1170067043901852,0.400290269364468,-0.20107774162800282
5.526774022,1.3529741623432847,-1.4295141515524272,3.1293635394664387,2.996492678737616,0.40177659384876624,-0.20286900590731824
5.626753549,0.9850608224179249,-1.4538133675188156,3.112643638089977,2.67845461487851,0.3807755696376755,-0.1974229615269373
5.726737213,0.8506888039020334,-1.261409417726125,3.199345704882657,2.4300460435854276,0.35176451630319366,-0.19741311681682547
5.826757159,0.5460525905844011,-0.9928564457706963,3.1174397306212946,2.2956775937716376,0.36059586629548096,-0.2040344447027908
5.926806507,0.34949842986652724,-0.7311745713007215,3.212780591836487,2.114884710007472,0.4117845177828831,-0.14536660362523568
6.026757782,0.1615642767355869,-0.44935200200311604,3.3417072178146294,1.952887048525973,0.4277048440151847,-0.05575651136515521
6.126761996,0.06908560587254434,-0.08603395983556089,3.4684867146434555,1.9203325525755603,0.42545391952055484,0.043610171236098276
6.226739189,-0.16914605957128612,0.15868041091089785,3.5715353623000925,2.100173455865999,0.3526288041869859,0.10406303120347882
6.326750762,-0.303984593111433,0.5342594168401185,3.5850806130523347,2.068155953124725,0.28935092006192736,0.13786652820629822
6.426738222,-0.6001974278276548,0.712432241545571,3.5306578270445215,2.418952088930152,0.2648079724612532,0.15576209037685163
6.526820071,-0.7177867943154734,0.9874998281144849,3.498351257165817,2.6731401478873424,0.24371348002402315,0.1673698603765075
6.62675997,-1.112064775200235,1.109383107524517,3.3758383869812683,2.824833031071028,0.25151186648703433,0.16582901868122873
6.72674078,-1.357669586373029,1.160604488731843,3.265721630577488,3.13622920916238,0.28527869790049304,0.1616217414702149
6.826762305,-1.728942831022881,1.1724027395118086,3.208660945101667,3.2049752834599636,0.3243196554022234,0.1611051971210074
6.926785077,-2.065810051559764,1.128830217869971,3.0792416237989806,3.5049369513273967,0.3179014519399313,0.1610010533390745
7.02676288,-2.314248618724132,0.9721257825713878,3.1009944951180097,3.722964825299751,0.3279453700946851,0.15711146343410679
7.12675806,-2.5925793758855873,0.8568243537858897,2.987276809629635,3.9070892036460503,0.32098817988674166,0.1740801981394219
7.226741327,-2.7040903516226353,0.5752727164511964,2.93276942986693,4.15624781193446,0.29860468632837495,0.18501502783693327
7.326755043,-2.893260965324247,0.3142288278565792,3.1218492507485904,4.363234033032923,0.30274586320978153,0.1932589691114294
7.4267579,-2.909051733849087,0.016564584607894416,3.1409965761415704,4.597163910772416,0.3003091072386428,0.20458732976448823
7.526762834,-3.0358733376159917,-0.2853002799963917,3.0050189717460567,4.887450503484172,0.3145397860271093,0.2089314297118992
7.626802242,-2.8434039335031835,-0.5851284735265203,2.828192685873141,5.133781365994007,0.3579377270128969,0.20942753709010636
7.726734121,-2.8114445430085246,-0.7671614661285104,2.8774542793497657,5.314156207627621,0.38521196490006826,0.22232685712855096
7.826741699,-2.60872258738739,-0.9500465526556436,2.8264414584583237,5.614431859063544,0.41953715640498407,0.22257529859036673
7.926764785,-2.3548178212603394,-1.3134313588989432,3.105889541933311,5.785353543998041,0.44928263332792073,0.2178861877081366
8.026744448,-1.9900039792754742,-1.3377564088916445,3.1077745750155565,6.080899576392075,0.45680250689551466,0.22162522461256487
8.126755166,-1.7391734600741846,-1.469656042177231,3.181991177282981,6.25127632855391,0.4509375163884492,0.21338720805317526
8.226835561,-1.4717633833726762,-1.302350493125421,3.1414051983075812,6.411904957721873,0.4450952926652457,0.19321705754851967
8.326763235,-1.1625378171681064,-1.2148030970619021,3.1311526431123062,6.701184964341013,0.42997867939321566,0.19780648060488562
8.426749127,-0.9710936210086544,-1.1118929975822085,3.2147889131051173,6.966080164201973,0.40102035522773505,0.19323133380227894
8.526752765,-0.6217814845282593,-0.8633077316263401,3.2248756133529772,7.05683774549439,0.38770160884735066,0.17802594383878026
8.626746641,-0.4641695688308533,-0.6097378662519217,3.2743298528056735,7.355427942984634,0.3715233306035975,0.17464891026203053
8.726738693,-0.32488609809893154,-0.2890739411484816,3.191971929580414,7.501624327594529,0.4012428116072374,0.08738488340932354
8.826745772,-0.15686028810306402,-0.03755567585968428,3.3756564447451325,7.647174010878512,0.4764459431570679,-0.0465436540455053
8.926752734,-0.13416000973038197,0.22823672127765382,3.4023355903890304,7.525718647925344,0.4132397810907482,-0.1253086632638644
9.02675957,-0.0658019017102963,0.5989791050023993,3.4410880763671075,7.370081179937705,0.36425854148099257,-0.17290898343920175
9.126742676,0.13850517249466976,0.9534711874477402,3.327441573855314,7.181083698235861,0.3609099483637373,-0.1851810376514673
9.226775725,0.3063233761367188,1.2137404210173974,3.3758617978554972,7.011339157791033,0.3583453919051719,-0.19292295415061556
9.326763682,0.7422822723037853,1.3531008460918543,3.372526163739502,6.74680850590461,0.3685224625844373,-0.1896903247322079
9.426749955,1.0726957761344642,1.3855716185767555,3.3417257434771286,6.477107890292589,0.38628218555476723,-0.18769601361699817
9.526755213,1.3419079702139778,1.4586679735846977,3.32719723373333,6.353945358521281,0.38989926240932493,-0.19068104686918178
9.626753147,1.6604572421830894,1.5190332144877796,3.352094423838772,6.135053941437832,0.3837248614692185,-0.18607659081465633
9.726742928,2.0679043634921404,1.3423422198942556,3.346776673717905,5.853380643006852,0.381199545322909,-0.18387407465456823
9.82677739,2.2636620198099675,1.2492233134984356,3.2410821787191737,5.666661934430088,0.3642505103415184,-0.19073311454087125
9.926748083,2.4545835511451974,1.1083572024373995,3.185439421557537,5.431259592319512,0.3513158635011834,-0.19312367809593076
10.026746011,2.7317077298181975,0.7696155569646885,3.220756010753579,5.246184466549098,0.35324098544638965,-0.19402322417695886
10.126762081,2.870221728359296,0.48490221285902835,3.2292250188352285,4.998390318360986,0.3400272474104346,-0.2069373180070785
10.226778944,3.003020935863584,0.07348297898569042,3.1488817327112657,4.72831168981668,0.34279264848541696,-0.21000523830651452
10.326745272,2.9109758242531707,-0.17913897758638128,3.019493537538156,4.553466649492959,0.36680727616054465,-0.20384047360099336
10.426748379,2.7433180137330817,-0.4291086134834971,3.139935187986211,4.373555244549126,0.3780613938863969,-0.20939755032833315
10.52674733,2.6371630198577836,-0.7049300609825888,3.1698445153709076,4.076031349607298,0.37612741279803114,-0.21185653802166812
10.626754452,2.3966873604570447,-1.0352283231099073,3.142074800211015,3.816390631289954,0.3998026019983903,-0.2098335147466954
10.726748537,2.26318356774592,-1.2388755081273448,3.054298711293071,3.7216210555269402,0.402651895141836,-0.2103132842895871
10.82674997,1.9077244247603589,-1.3215065114298181,3.1715893816860916,3.4578932369879634,0.3956625967229139,-0.2104230784094637
10.926754834,1.5394651910074781,-1.2772544949707525,3.1359105685411643,3.2543499854368796,0.3958544701776091,-0.20621278250165861
11.02675386,1.3467804992741577,-1.4026507778551338,3.165544234379172,3.014177425208927,0.37838176037976096,-0.20841081225027566
11.126744763,0.9090160399296101,-1.2557576587023935,3.173299129930405,2.768114688449789,0.3432614229206574,-0.20733502231315373
11.226734298,0.7616435236994351,-1.0266871174716803,3.0711174821884897,2.482111158846284,0.338878138617991,-0.2118627492525689
11.326746271,0.4766739868647571,-0.9161091038014192,2.984437938528913,2.305752493098253,0.34925065950571843,-0.20700529890671138
11.426753629,0.3324708903957161,-0.7215163981525914,3.2104518867983898,2.0598088923439315,0.41140079302755006,-0.14876762358240903
11.526752629,0.12613162679018983,-0.4219952519855171,3.3303342006796295,1.9561624940474693,0.43808350752875086,-0.060467546263677
11.626790127,0.09529413513406608,-0.014060112125589719,3.458200670087877,1.940782687353397,0.43015695841286855,0.03756010216090604
11.72673992,-0.1983697806622683,0.2537211934273928,3.477027477198953,2.0522892786402416,0.35909825336419043,0.09863372333667834
11.826744593,-0.3416740374557132,0.5589349522631843,3.602212832996629,2.110759173560813,0.29837180576616096,0.13627302293069718
11.926750471,-0.534791307798065,0.8247492355685693,3.5770526220897088,2.4487641045138013,0.2622941493813387,0.16788369847457174
12.026750747,-0.8040317595913329,1.091259350553682,3.4052904189973865,2.5474176664511154,0.24046538874543844,0.17642902892178877
12.126744401,-1.0830174977610743,1.1848831751432594,3.2426973820537803,2.805508774378994,0.24881648399131778,0.17884068395030384
12.226799655,-1.4361480219333909,1.286346980487605,3.208686553626677,3.010370658097462,0.2947982618079005,0.15376664054763853
12.326758486,-1.8611388976991659,1.3821810980365496,3.1732130457092818,3.253503250352099,0.3320123238016097,0.16764822854568442
12.426759101,-1.9897350446869677,1.253789947130296,3.18298685128661,3.618126401131196,0.3250532247468925,0.17517697292360349
12.526763481,-2.351732195722699,1.0607152723001578,3.047710372145074,3.7488085531490603,0.32401786033316543,0.1834333018043506
12.626752729,-2.487044847162303,0.9579313442744395,3.0611602875753787,3.864367851782357,0.32672299852889225,0.18541407619524958
12.726805544,-2.7842921368579225,0.7111727088039371,2.9903924649948346,4.187552120464086,0.3153726064447337,0.18748962539396202
12.826772967,-2.942413747106389,0.347474583721183,3.101658678999782,4.347200237397099,0.3138876551965038,0.19459665060586873
12.926757897,-2.9414578805252862,0.13393930183165828,2.9891890770693292,4.610793282965904,0.3281165914608744,0.20348062810672027
13.026749119,-3.086362516344096,-0.19042341499473997,3.0675271562511237,4.850184443757932,0.31808040916443886,0.21287501515154328
13.126747541,-2.9344157582875225,-0.5336461360262701,2.9058029010347575,5.0411288886310315,0.3529901291163108,0.20423098848283885
13.226745089,-2.800212844373875,-0.6914540027553564,2.8791417083955846,5.298825267214803,0.3972931887187721,0.2212313937420796
13.326754956,-2.693792122759577,-0.991124706808066,2.971733765203334,5.585483215866803,0.4184457027277366,0.22404706945595884
13.426835134,-2.323671627974819,-1.1650552439419788,2.9539266559195934,5.739694727028428,0.4365302087769235,0.21920665738864678
13.526820078,-2.0864637054725295,-1.3250965220388764,3.0803624690719227,5.9034858890287945,0.4540122466972498,0.22038889346367743
13.626747462,-1.7350941294964297,-1.249164183842182,3.183478751296451,6.231626440624989,0.44779112114691433,0.2181094206207147
13.726739087,-1.50461258660986,-1.304456194908053,3.1124512987966093,6.482038756074422,0.4347085867682316,0.20449891655504926
13.8267524,-1.192083373896054,-1.225836438864625,3.2338157639357634,6.66584392879463,0.4281701107068854,0.19577277941786778
13.926758996,-0.8015804796663031,-1.0549101709915032,3.253648683452414,7.029085503899075,0.4136342352104419,0.18707769483772488
14.026754646,-0.6356823908139562,-0.8781753692038685,3.2014833697502634,7.118247682074837,0.37867107140671075,0.1794052786999177
14.126755516,-0.4773031676320837,-0.6520116965650079,3.1537680732998434,7.345236683709009,0.3877998998870066,0.16249621070092315
14.226748484,-0.3258391636135829,-0.23908550496698244,3.083302541113733,7.455870377447815,0.4250793890454419,0.07694477584783876
14.326756086,-0.23772804342372705,0.07459131022816552,3.3687498032466245,7.4920931869153975,0.42727324898248553,-0.03428080536802563
14.426747024,-0.06626813373443585,0.33019556136492423,3.4822829412810377,7.463959170572984,0.4003568768122719,-0.10926815972592564
14.52676043,0.033359784794286466,0.6210269911835365,3.514779817292744,7.4634193230141035,0.3734690307096969,-0.15741118214827296
14.62675536,0.2641944771575566,0.9332536477238917,3.3741618512345646,7.12286110070102,0.3396776804766251,-0.18023696510856715
14.726793105,0.506331197449744,1.123224961616162,3.396614463874613,6.9629331490547015,0.3455085910277057,-0.18499846846233298
14.826746599,0.7115387428186282,1.3383514646736454,3.4098187142141714,6.637610099560267,0.36788972188810376,-0.19222846622409065
14.92674386,1.0680780266321521,1.3759613385910558,3.3280944279953015,6.453546341668433,0.3780710343707037,-0.19466724969722213
15.02675577,1.4129081439236784,1.466487809350689,3.4070142629527114,6.298828211269872,0.3761549118033595,-0.18953028698116742
15.126759098,1.7855446981948302,1.5378514011238158,3.292796286240743,6.0754042197500615,0.3759904301424503,-0.1951702889794648
15.226763197,1.9889916237938685,1.3822715077314602,3.3671427717214972,5.811316510627659,0.37934638642929736,-0.1938036584697657
15.326760365,2.245722716089369,1.194993258906283,3.332783176740793,5.628796033310548,0.3587364554035066,-0.18653051431041892
15.426750591,2.5068264725124756,0.9990447601670337,3.1901922206785183,5.440769480096031,0.35341183581977287,-0.18648297755279433
15.526761609,2.7772847337950415,0.7826640720326191,3.228999977768386,5.1238850028680565,0.35076952437215214,-0.20369509763053714
15.626798333,2.852593753395949,0.5559161869735885,3.2093104998111,5.000310767110798,0.33592303724472916,-0.21128842758466077
15.726733804,2.9653012389159636,0.04537684521008703,3.1792164124920586,4.712782793149178,0.3484029808581123,-0.2119243125698773
15.826760082,2.9655494700092206,-0.12359954914865269,3.0660378490399007,4.638169994760442,0.37098630512061825,-0.2141720394145444
15.926755026,2.942665344069072,-0.4930332844630142,3.118699405022648,4.2300371916456125,0.3727286263909647,-0.21479094692433096
16.026747726,2.7783029854979975,-0.7499940396417053,3.1124072903713738,4.13347836972844,0.3841526558223126,-0.21185653624062006
16.126754819,2.557276629534492,-0.9955729905570376,3.065382911798017,3.8677173122170063,0.40408099398751535,-0.2161539973118897
16.226767913,2.2607263681938234,-1.121042751803746,3.1896814979650143,3.6725881294531373,0.40286510163255523,-0.21107488152042553
16.326748941,1.9608451425449527,-1.279846401869097,3.178643570455782,3.4110720274840745,0.40133773722500277,-0.21326319197242985
16.426755015,1.7327086652397843,-1.366856757633893,3.2300615751971375,3.2793652664533393,0.4039837162569462,-0.21367723393571136
