time (sec),x position (m),y position (m),forward velocity (m/s),"heading angle (rad), from x-axis, positive is CCW",throttle (unitless; -1 to 1),steering angle (unitless; -1 to 1)
1.022747874,1.9805910549377017,-1.059436351555243,3.1046192433801116,-2.9196217607871566,0.4674550333989574,-0.20468842012595653
1.122793033,1.645491033705789,-1.07769780792733,3.0635455047780358,-3.158053292729599,0.40240813970286354,-0.20619452714280478
1.222743381,1.3464435992107202,-1.001583607452451,3.055291972076787,-3.4579136195946805,0.36950555482443664,-0.20288609864647225
1.3227514390000001,1.0817118631159748,-0.9661187913923153,2.9860838666149463,-3.615996019224238,0.35604475798170443,-0.2010428768833822
1.422765134,0.7380657928027234,-0.7078431686176232,2.8734921341677175,-3.8837791583853853,0.35382929711561956,-0.20897166284854435
1.522753991,0.6338808373445503,-0.49067807948827613,2.9484359331629104,-4.211239513603506,0.46045927617993493,-0.1611354285448506
1.6227418720000002,0.49003861717761776,-0.2328375311920948,3.1133927995331705,-4.283486549223749,0.5254642257036416,-0.08045374802255902
1.722751266,0.25124853616934145,0.06891999504445473,3.3201512834622404,-4.342614006992355,0.5463139360763564,0.01962009536316057
1.822891064,0.12652314295064754,0.3522125847628282,3.532166889831072,-4.211330913850674,0.4559745860268676,0.08291068546916985
1.922740981,0.018291443950108024,0.6650713723791152,3.5944941348365895,-4.122678733375136,0.38030853357170114,0.12925037113395157
2.022751348,-0.20444005583130986,0.9392022364845404,3.559740278161803,-3.9884091462069198,0.34119586419050757,0.1648958308216471
2.122752986,-0.4233900226841893,1.1337917160819562,3.4840302694364316,-3.796866206598064,0.29747551598536354,0.18713470095060084
2.222750841,-0.6604056241504389,1.3551584192591617,3.3351900205910403,-3.6305402920094836,0.3078862654544811,0.19361598593026033
2.322753711,-1.0548455512835444,1.484049902512485,3.2844679911986048,-3.363148568332836,0.3677096109987004,0.19560824730182155
2.422754057,-1.4581165530134192,1.5288751349240874,3.3257050257856653,-3.1441466183860514,0.3983675220101951,0.19620997641413468
2.522748267,-1.7261110454942252,1.5785836685812884,3.293494742616264,-2.9312925924274724,0.41560227124107246,0.19834486212571661
2.622745809,-1.9410749892627368,1.3568238634180907,3.369999056123519,-2.6882739732442733,0.4530768702854878,0.2045086945494923
2.722751959,-2.3097062779751583,1.2186079310322608,3.3679937585401563,-2.4896778587797006,0.43890059008653215,0.20034437890219786
2.822747238,-2.4426669056156127,1.103564795713385,3.3201222871378855,-2.2976899484060658,0.43335939940329404,0.20389450437892537
2.9227456810000003,-2.7625761012134626,0.8697770469512647,3.3781436957473465,-2.2012079967089435,0.44731579679419575,0.2102071260894802
3.022747345,-2.8889810239883036,0.5617586014820861,3.3503400224949638,-1.8147587034841215,0.3859545677015872,0.20476255737397922
3.122745715,-2.9237890195223386,0.1705878349867742,3.299214497449117,-1.6746609351603587,0.3474363276541787,0.2047896474824699
3.222746789,-2.9664846378942435,-0.13623750718937438,3.1963927153533747,-1.4210783082768983,0.34213199788729526,0.20470019634251363
3.322762674,-2.8798527019802176,-0.46410479100594937,3.141824469286366,-1.2032186973135153,0.3125551250230177,0.20795008152874664
3.422745361,-2.7198507979293134,-0.6896944402228357,2.933638658274353,-0.8625544811955419,0.3087759698227743,0.21880053949486722
3.522744997,-2.4814012666322953,-0.9690665755050872,3.0135884537886786,-0.7265879961536497,0.3375617008998835,0.21611625242993648
3.622753844,-2.357449018588496,-1.1946520370774096,2.941507003739599,-0.49175005998163096,0.3634680155140539,0.23022050942365466
3.722784711,-2.0906939843808567,-1.2696604285776063,2.9645049663183114,-0.3416056288776176,0.405813504781011,0.2402526723965196
3.822752164,-1.8108802585538388,-1.2546937292236937,3.0908458038400304,-0.03407503869430037,0.4386910801388334,0.23685827414848704
3.922749528,-1.4660609557081015,-1.348297216392211,3.0794895325124627,0.2869568032886782,0.4656011288444462,0.2385898837762856
4.022748591,-1.1736504423616665,-1.2575662945466994,3.1390683448616263,0.4094841921382971,0.45906989049627167,0.23519319494650487
4.122749585,-0.8370211007970972,-1.140847067039889,3.148130888478758,0.7059631732783439,0.45753619959013786,0.22662727513952344
4.222743347,-0.572453030730379,-0.8435794606241581,3.2705308297856766,0.9293981832757674,0.4730852800702364,0.21999552370874667
4.322748074,-0.464670251165367,-0.4598967200379651,3.406133047513145,1.0443779927500394,0.5358987281266008,0.1279582183595085
4.422748107,-0.2093362855597818,-0.2573813932379919,3.539672189734596,1.0499435402377453,0.5482357426859024,0.02801927873358576
4.522749835,-0.08966988614629431,0.030797081703966958,3.6280790023500296,1.0369323117726579,0.5315290234574661,-0.04473289234355962
4.6227482470000005,0.044016207610515126,0.37623718506771303,3.7531749165443284,1.047410420309457,0.4542415887816264,-0.0954571912344797
4.722740312,0.2063322425232134,0.6563514084931152,3.6590548236766645,0.8093796565646549,0.3856763067332853,-0.11965934074157401
4.822791695,0.4997944986631322,0.8872943200208007,3.641850052784117,0.6846290534491304,0.3565835623310867,-0.12789219557737289
4.922745437,0.8159022832050232,1.1438957131539704,3.5201275692709793,0.47855593201458085,0.3506125705970202,-0.13263200478255543
5.022746334,1.2443050372750422,1.2669621661675539,3.4537146991364915,0.27477939018619973,0.3270497964257526,-0.13290959388544643
5.122741498,1.5367133954875292,1.273113398147933,3.408397378825949,0.04499436312850969,0.3057145031423094,-0.14383844684885747
5.2227479070000005,1.7819924496569968,1.3203784320052347,3.2021376336582272,-0.15579893944533274,0.29959473881677373,-0.15352391876989394
5.322769981,2.179834176294962,1.251097553854316,3.1601732061860357,-0.32108490876893275,0.29073453119702936,-0.16351439674981036
5.422744664,2.4381969544355604,1.108167517528402,3.083155039210492,-0.5679219095941584,0.31586563133391976,-0.17549390237408788
5.522742052,2.6133819845768542,0.9173968936987531,2.96988543765235,-0.7490330563159472,0.3417911723121416,-0.1958603106659612
5.622742344,2.856084053327334,0.7845373720147706,2.9518969566834263,-0.9504384603902166,0.38355227918368023,-0.20755698348123774
5.722742544,3.00760273967974,0.4555042416841488,2.8898255499158854,-1.221137627025901,0.44750160867702726,-0.21710167316039336
5.822751677,3.0352309408981517,0.1663409261903001,2.902387780073089,-1.4843613576169934,0.48525678645430925,-0.21578193533734522
5.922744364,2.9561542212099043,-0.0870608681869997,2.9738410603223318,-1.7439376298616178,0.5010287414213462,-0.20925013292857167
6.022743519,3.0116516055914584,-0.43590449437443546,3.047107852014734,-1.8973842785916706,0.5121137863020463,-0.2064525330504354
6.122745116,2.8231543135614516,-0.6269380732892939,3.152444130901295,-2.210961416490399,0.5260807400234203,-0.20443487228229634
6.222801812,2.586551664936268,-0.9542712130290758,3.0959083975121384,-2.3475993916460913,0.4983398137323313,-0.19467729929020403
6.322746164,2.3179406829635774,-1.1434399972952463,3.1625006372797424,-2.5942162461434743,0.5013012133581674,-0.18725622209899076
6.422750445,2.126856956514261,-1.181634477184005,3.1450266966348237,-2.8963402873315522,0.48064610814073383,-0.1853489323290606
6.522742326,1.7502097168054873,-1.3012086642129308,3.249456671044484,-3.0824443268070625,0.4178619893728316,-0.18398265830928345
6.622744009,1.5170333725036849,-1.3487522767731643,3.1052519436906407,-3.298359298036601,0.4026113163742598,-0.175243283138724
6.722751004,1.0514323526333402,-1.2691377089526017,3.044511432201783,-3.5011053343373164,0.36994402467945653,-0.1854506433611521
6.822748284,0.9236009624042125,-1.0431196113583978,3.0432554455755607,-3.713404370080791,0.3486981852783188,-0.19358531753688787
6.922742795,0.5820738160888003,-0.9100797231746973,2.9743104390451243,-4.023209909149013,0.3885569254353527,-0.18911017219324872
7.022744459,0.47361987599977345,-0.6902616267268856,3.114759633918778,-4.160354178629274,0.4602197954184173,-0.15723777650554097
7.122743281,0.2601159807011231,-0.39774022202617615,3.213911431992868,-4.3909828956700885,0.525896439183784,-0.06708575699725718
7.222747565,0.15296611401455626,-0.17542639269161847,3.2249159857586194,-4.319331389754154,0.5227516133079344,0.027103180719953966
7.322742334,0.029133779372251978,0.26345348960913145,3.4929745158270533,-4.399601309371564,0.4657845557205117,0.09571583550825846
7.422750038,-0.10826982726414282,0.5566329519571948,3.501720263518728,-4.211081419545405,0.36462543939018555,0.13559985982154596
7.52274576,-0.3050452569978361,0.8205108923062747,3.46901344584006,-4.152723835872587,0.3056401481890672,0.17524567824117152
7.62275131,-0.5159736145404165,1.0741781747070445,3.4915047819242133,-3.7613396601517275,0.2820043677004518,0.19757333897790744
7.72275189,-0.7336050012152127,1.3332017958190159,3.3881560599846647,-3.69070260943286,0.28555413646710265,0.20224793163080057
7.822746675,-1.0240124527577377,1.5219436223498157,3.2829846811527905,-3.344171198110271,0.3400013285979067,0.19989600622633377
7.922746852,-1.3831318121293716,1.5065208436382411,3.2309547930512523,-3.0977785536854636,0.4147673525764021,0.1960607593394646
8.022743724,-1.7494232252028938,1.4788673606833278,3.2460519104418606,-2.9785402480768135,0.43950485401223205,0.2030346790889231
8.122752081,-2.057358404399424,1.4413888909368746,3.2777630091053003,-2.6997135949948814,0.14302455140711498,0.22699453864645816
8.222750943,-2.287797903565437,1.281794905509837,2.845887340294978,-2.4064830949130394,0.20488605276515906,0.26517273813544867
8.322747555,-2.554139678038961,1.0520684396805515,3.0043569144765208,-2.1970924229695408,0.5229022682906463,0.20584667941677207
8.422748336,-2.6015854744170595,0.7178412503915121,3.094104240846541,-1.9780056860015591,0.5400890216549763,0.1805802953736928
8.522740202,-2.744856913524138,0.4921229092661037,3.335719395237741,-1.834639785206959,0.46621482430485167,0.18857932473218025
8.622742555,-2.769926570296355,0.22939835305984685,3.2746359868920356,-1.6269487077797222,0.38906000330940155,0.19811943816211236
8.722743663,-2.8167518348244873,-0.04028565948778934,3.1552874391055186,-1.4555253983398084,0.3199437691117665,0.20581469791354004
8.822747694,-2.8063605513041043,-0.3846063722305254,3.2176756600434318,-1.1982362378419786,0.2914990933481364,0.20528385397198617
8.922741021,-2.671752552201299,-0.7033805806764735,3.07453485251227,-0.9262802610156471,0.2922297837132196,0.20598051641093773
9.022757839,-2.498462283290059,-0.9959773634767842,2.9406862052702163,-0.7927742463031642,0.30812357520393246,0.21066880443745403
9.122746813,-2.1854622569968063,-1.1876054056442085,3.039039647115167,-0.5233212130314291,0.36200755852195227,0.22874053324568971
9.222793156,-1.9060082180427371,-1.3047662363994625,2.9220954526494585,-0.24065096927328342,0.4123573860831307,0.2371432669093661
9.322746663,-1.711000955968693,-1.20916066200867,2.9180773798047035,-0.08113657495581726,0.43678356552655423,0.22843486412889222
9.422745534,-1.2645849106710803,-1.2881047747290555,2.9778048857279216,0.1541282851439007,0.4541836198979699,0.23291468559851122
9.522745383,-1.053450633214202,-1.1688421540130498,3.0107009280161856,0.5419304030141986,0.4731066712190124,0.2275429180976111
9.622797899,-0.7978876434698632,-1.0710941386654917,3.139250197856899,0.6216399467529242,0.46139905670616377,0.2212419557919701
9.722747169,-0.4637159786047722,-0.7554817792687596,3.268550784561489,0.8621710096972347,0.49294107826731887,0.19531580983928148
9.822741557,-0.3093575796872004,-0.4789540743460011,3.336552941405746,1.1359941163128011,0.5369865876213188,0.13044943230001743
9.922752505,-0.12557800871373137,-0.14743684560109468,3.504935193855959,1.1827181878969004,0.541508856936422,0.026795197655644514
10.022751926,-0.07652569144668817,0.04998087710860531,3.6245606836197464,1.1567856783105772,0.5127002512452831,-0.0449188788878995
10.122749696,0.10907052656026095,0.3987180980026064,3.706843256568609,1.0671458556799898,0.46229274842695117,-0.10076073109136104
10.222751638,0.3584386265973001,0.6754390706131518,3.7065994153140265,0.8123955583719985,0.380032634102528,-0.1257234135841299
10.322792065,0.6420539361644889,1.0845599487407034,3.664915525823018,0.6751772368851134,0.3434667003544135,-0.13175703886649937
10.422786363,0.9123066627532974,1.240806685722397,3.5237548031239565,0.3910737697466691,0.344863658077855,-0.13732046869726813
10.522746128,1.2291709432484532,1.3458765071575867,3.425669416924424,0.2365150577813232,0.3151282038001627,-0.13678239719289811
10.622755142,1.5713043729548388,1.3473731818592276,3.2985314795738847,0.0924527446841962,0.3123305209987446,-0.14103322325483314
10.722752776,2.0090349869586497,1.3743416240161477,3.2027815948209355,-0.16904620559728656,0.3082054399612623,-0.15726621528203558
10.822767295,2.166938060336609,1.3611996625188179,3.1499921014702457,-0.3608143538003205,0.28601687933989894,-0.1725684122757299
10.92275248,2.535031578023634,1.2593377657187859,2.9096851623667015,-0.5299052979014421,0.3160460541809959,-0.18247137864226134
11.022822587,2.6773156566965155,1.027527484066902,2.818016027719019,-0.8242226819236166,0.35858707125773404,-0.1973482905582216
11.122817908,2.8781897661916482,0.7794505693838191,2.874793480461449,-0.9464795645734679,0.402243160231399,-0.2092739393699117
11.222746251,2.9718976061208933,0.49144775302611843,2.970044087991235,-1.3333197718285728,0.4512448685780001,-0.21303601774767575
11.322745485,3.0885210547374116,0.1656129456088214,3.0229431936319138,-1.4886861891396943,0.5085559039808651,-0.21806099019209424
11.422754009,2.9869434820031304,-0.08702808814685102,3.0253100344706305,-1.715160706785201,0.5096725981755973,-0.2133186164912059
11.522747269,2.97684514429121,-0.3133613710716133,3.0141795961298374,-1.9329673083794834,0.5143423626456292,-0.210499524288274
11.622753031,2.852373264262779,-0.5698105288341078,3.0966250125132713,-2.183292650297966,0.5278316043093049,-0.20604141613200247
11.72274929,2.670525903693406,-0.9377368491917621,3.065572266880371,-2.404187357372402,0.5055711829623546,-0.19980429671493397
11.822746205,2.4275311997604163,-1.026920945394576,3.078727576668632,-2.7194425472177195,0.49597316421419124,-0.1837816694183031
11.922754643,2.0480336474644143,-1.3159992173683581,3.1862624308127496,-2.862387694924838,0.49935645942028095,-0.18366233871294058
12.022812865,1.7600974225731962,-1.3220326199381784,3.188460044256993,-3.1121142822685544,0.43825485864021235,-0.18535073101341273
12.122749702,1.5166868809118808,-1.3689977073343178,3.203824145914182,-3.234642274757626,0.38016907562319135,-0.19050976981312287
12.222745843,1.3154045352579071,-1.229492331540641,3.0474357410571846,-3.5483235836976874,0.3645682987510974,-0.185528802658734
12.322752383,0.9218571303943381,-1.0810420879852105,3.032351026939317,-3.7409895638244297,0.35864799461157204,-0.1911371449667444
12.422792521,0.6407380515238844,-0.7805192950720583,2.9676026501974713,-3.929220116737608,0.35579267722075575,-0.19702317342802317
12.522746381,0.5055346509850224,-0.5857560384656925,3.009373809070927,-4.143955855717549,0.43343469319535166,-0.1798591173456761
12.622746905,0.3808245295896457,-0.3137520450475399,3.105172209305918,-4.360689628146059,0.558830170552766,-0.058380140882617226
12.72274442,0.32630651060813265,-0.025276851768198785,3.240595325016151,-4.33029220661649,0.5377259545134498,0.034458184916193825
12.822751863,0.17443826374264934,0.23129345277652444,3.5110327221158135,-4.348139026300666,0.45642162219857424,0.0903781003827293
12.922760563,-0.029460468063961756,0.5346533276166294,3.585647542956075,-4.208341715071886,0.3766110157651419,0.13721741833700957
13.022753945,-0.226522367154222,0.8910653614817415,3.6414537521576227,-4.146945909111442,0.3160811070780277,0.16992537418829964
13.12274876,-0.5501078588927344,1.1687895310444358,3.4936668110471563,-3.82327999370143,0.28590173101825456,0.2034685066171029
13.222748855,-0.7766658801985286,1.3002297976125918,3.4233629216854524,-3.5467599227434663,0.3001938337883298,0.21041958517094345
13.322744382,-0.9681427727010797,1.5233988142543813,3.293607134398076,-3.3743037306730788,0.3330565450424275,0.20349785163685175
13.422751323,-1.4011573834373316,1.485140899464025,3.2970591070143693,-3.161308799042766,0.3949136213727561,0.20064641069594422
13.522747577,-1.5302840665346449,1.5287651926944559,3.225670699091363,-2.9174438253094053,0.4568971396931817,0.19909909392202121
13.622751798,-2.004896544893491,1.3983755617591669,3.2626195838707925,-2.7080483790389773,0.45580586363616094,0.2020410951027346
13.72281058,-2.213940919194709,1.2491014438930879,3.2742328307798876,-2.492272288918418,0.44604892422879283,0.20305839553313915
13.822746588,-2.5141353015418955,1.0432670539598046,3.460332676907377,-2.380298969660165,0.44514950248786955,0.2112069901487004
13.922750979,-2.7731285550682125,0.8098064778533158,3.330019824172921,-2.023812862131521,0.4141336145596398,0.2056436211117197
14.022749667,-2.8076599531877413,0.5210162816953849,3.3463791437801578,-1.85306851179198,0.384329717663224,0.2095101688881836
14.122750263,-2.9646091895478985,0.1622266907452241,3.249879409061652,-1.5560581847199404,0.3677224076526359,0.2008426818316542
14.222748855,-2.8946956416650855,-0.22782217676222086,3.2953627038084288,-1.4394341903092283,0.3392072732697392,0.19832573489363284
14.322745107,-2.8743191593156894,-0.4841137148849626,3.183786075015659,-1.1800310167332657,0.32495231932753477,0.20378045489665536
14.422745506,-2.7337178316237747,-0.7891151127252154,3.1090977835532043,-1.0139495779630048,0.30663331035557645,0.21253893403630483
14.522752901,-2.4552773282908085,-0.9477355623594469,2.973467739003307,-0.7925218618253276,0.32532254627218593,0.22325276844126735
14.622750249,-2.304676568584357,-1.176703408573598,3.0310367086278305,-0.46614295573835124,0.36788855270927195,0.23120943802039512
14.722743628,-2.0343641449874963,-1.2274192600188603,3.1060384351668278,-0.271034423235204,0.4306867695015535,0.23473469228737914
14.822755847,-1.7744024184325244,-1.3307274629133015,3.089676431557699,0.031929408897641,0.4489095726589212,0.23823916546582324
14.922750464,-1.427688129202821,-1.2177329448741283,3.198627231194572,0.12653467780568026,0.46146068333038454,0.23677931758927312
15.022749146,-1.135088144890695,-1.2474773349264836,3.2526809411615165,0.3681535306392739,0.46719346850686105,0.22638654806566863
15.122744991,-0.8403071545013798,-0.9926040710168745,3.2025994594294205,0.6778053115070708,0.47469173757735705,0.21907792869684103
15.222744539,-0.519385434239078,-0.8303387952773991,3.2542908636959966,0.8581404846946002,0.4836128785325609,0.1937994712819577
15.322747308,-0.3943808550145388,-0.550754816243,3.342079852778041,1.1307943996864402,0.5008599900165928,0.15279474243299526
15.422751819,-0.31356943087248085,-0.26340392447922206,3.531852051331241,1.1657469667072817,0.5488006003057148,0.030656876096438253
15.522744722,-0.15116577264997505,0.09862196871107846,3.7019824897421914,1.0965641033366529,0.5083952831966796,-0.05322537569873577
15.622745943,0.032042001323654014,0.29630171509357106,3.7233751834103797,1.0297829851008706,0.4466721154050373,-0.09996266831740006
15.72275445,0.34181402556003493,0.7110944748050468,3.887980620685116,0.8146173714992352,0.40061868137621354,-0.12456398974713877
15.822756286,0.5255957042370905,0.933074602821079,3.6442332429129087,0.6515612255981245,0.3557858202625042,-0.13190249328239365
15.92275941,0.8624931609848269,1.1848702772755915,3.623856987883256,0.4601539751716184,0.34166390820003706,-0.134452519141753
16.022746464,1.2056977954316708,1.316252319106983,3.460584801850329,0.24704244579323548,0.3311111361814774,-0.1438695197350403
16.122752849,1.50379792228383,1.410978844171946,3.384202928936571,0.08642334442910232,0.2955069391539202,-0.14852802001577325
16.222745956,1.8292648377250904,1.3671144054299078,3.365125014587968,-0.0615350760015525,0.2923205510307053,-0.15976419149627388
