time (sec),x position (m),y position (m),forward velocity (m/s),"heading angle (rad), from x-axis, positive is CCW",throttle (unitless; -1 to 1),steering angle (unitless; -1 to 1)
1.0381724860000001,-1.513826921198611,-1.1350710731652245,2.9551953803335556,0.01969601881473229,0.4457232230386862,0.21473790244958665
1.138100522,-1.2260555057241942,-1.0895904360275583,3.136457439870843,0.3421006058229493,0.4708845273262964,0.21290750245521303
1.2381031120000001,-0.8266992059169503,-1.0997023999596265,3.1350669736654244,0.4717633044000609,0.45878540759178177,0.2102176200494974
1.338102213,-0.631900928926001,-0.8598416607144482,3.274643760291943,0.7948687823936212,0.45048731950787463,0.2067056946793942
1.43810044,-0.4924770987860986,-0.5225943808608592,3.1587552758636535,1.0234056209945168,0.4625843111765625,0.20021627978000497
1.5381074460000002,-0.23782981052960953,-0.2771303585964997,3.3038735053900883,1.1831221540637678,0.5388498836013905,0.09385233933468176
1.6381374750000002,-0.1264774970532105,-0.009175403964405436,3.503603740636824,1.2299164304187062,0.5426766126789582,-0.00412162732668947
1.73810228,0.014518255361588673,0.3042693130729029,3.590401068077803,1.126572827093639,0.4910523442376935,-0.07158762784846394
1.8381064720000002,0.16609240964885547,0.5923965146026602,3.65339020933985,1.2139682460772123,0.431235638091386,-0.11450070529527666
1.938094413,0.38775909607589637,1.0888676344140265,3.72247790565351,0.9518526784893802,0.35862811345185114,-0.13624385596354732
2.03809506,0.577230433562942,1.3372614999136585,3.7479395427047186,0.727401523530414,0.3089912072310178,-0.15641347357890562
2.138101656,0.92481351868732,1.410575620367498,3.4755517999031844,0.5164802720618579,0.3118363295898144,-0.16836897187773717
2.238099862,1.2074989196510848,1.7124056478878877,3.3637770623779764,0.2618561284386474,0.2897188200669323,-0.17094152986650213
2.338094486,1.5747873886808095,1.7244396408631688,3.3045634386500042,0.17522188620020068,0.2963884927227663,-0.17341552208685454
2.438095646,1.8965771657157984,1.7708151212995915,3.2244518428742914,-0.13498977717867006,0.3056222880376213,-0.1881575224849369
2.538104793,2.1737313002196768,1.6975505983362866,3.072020432065036,-0.22106520658035972,0.3051537895334094,-0.20375178482810785
2.6381045800000003,2.4149562157354723,1.5918558242135767,3.005968731286764,-0.46354938018496883,0.35192396643745466,-0.2211268835718828
2.738106415,2.6408597366658166,1.3772553579024305,2.9290716671482437,-0.7815863388489662,0.43478769459872074,-0.23274443705168849
2.83809838,2.887373476584054,1.2257762665558019,3.0626553497264104,-1.0392322095567506,0.4813049294795586,-0.23526295947126305
2.938125842,3.0406989497666914,0.8467032392662591,3.0090592457193965,-1.24294275313338,0.5304819716537156,-0.2330990437547685
3.038098058,3.1204251940459966,0.601954098987018,3.0623951442647606,-1.4948941549681587,0.5694044865579568,-0.23010807675645184
3.1381043220000002,3.0884463859679894,0.19969227922096425,3.200546514998308,-1.7316637480906238,0.5620356560300944,-0.2269449492433112
3.23812019,2.9590877289220905,-0.06242429041056103,3.3089198654398344,-1.9921702539393682,0.5363889755171494,-0.2208656520224691
3.338108839,2.86096522011892,-0.3272719036373583,3.3025516839730837,-2.144349537220546,0.5184888551908221,-0.22568710390529512
3.438150846,2.6313144986313732,-0.6568243512359979,3.382709401941776,-2.3014169053420095,0.49463540936289174,-0.21759518104247932
3.538110299,2.4726035398553488,-0.8607072308133421,3.316669239735333,-2.6165379773404367,0.4776827087384276,-0.21042887340003102
3.638101874,2.1606485903376935,-0.8855820438805444,3.3335938709081527,-2.8248567280514045,0.4455387840624342,-0.2000696250291304
3.738098269,1.8836178187261248,-1.20926501020637,3.3253930415128297,-3.02611242768587,0.41202780382492116,-0.20227174121033054
3.838104606,1.5244175526454196,-1.1879473706987456,3.228322552778437,-3.2390782182174034,0.36740343891995514,-0.2054607433368818
3.938122898,1.2786423675308836,-1.1465295672248286,3.1155847869229065,-3.4155610971665724,0.34871745305535196,-0.2037089583432576
4.038113113,0.9105536347630566,-1.0760665501978852,2.972217696241196,-3.668422837215118,0.34846735022118147,-0.21391772263336434
4.138104509,0.6819323265599598,-0.8576970411662084,2.921428836042172,-3.942437736198905,0.35266292370161395,-0.2213849012413863
4.238112032,0.4955698862792435,-0.6396801672279497,2.9660232630774566,-4.004751126286031,0.48454292958650974,-0.16513581985967113
4.338161563,0.4255786535144704,-0.2530703801454855,3.2725801073138494,-4.169323045961131,0.5623960107044622,-0.07997486508016254
4.4381031140000005,0.1686745296921426,-0.04619611244360433,3.3870548476319593,-4.182911923624672,0.5572161489202749,0.009343584529744207
4.538096593,0.024980549207067215,0.19433959489839864,3.403767409800362,-4.1693596050686015,0.4636275141340147,0.061175615436460676
4.638162754,-0.1936114434737493,0.49836006557121765,3.5903143296093782,-4.173050417132834,0.3778062672837983,0.10799818043662397
4.738157782,-0.36403937775135053,0.8419004343848666,3.677177569653671,-3.9105513887828938,0.33307961734063546,0.14439488517275537
4.838094313,-0.5842675220365263,1.1224561978932022,3.513411815055485,-3.755031057241124,0.28291532624095594,0.16574881105710226
4.938105367,-1.0260508347775712,1.268985111382713,3.4186268046059993,-3.528980775486194,0.2901246261655998,0.17372929421990754
5.038103759,-1.318632397064933,1.4115303437037934,3.311696708639006,-3.3240667985120798,0.3027022325071361,0.17823140414625183
5.1381000629999996,-1.671819159669415,1.436822726043235,3.245220798997624,-3.1302675033289176,0.33582553490669587,0.18151935489707577
5.238096568,-1.8528247268942566,1.3592246562472758,3.2267317493142462,-2.827320779018691,0.3885190655749052,0.18938912357353352
5.338103341,-2.21036144770717,1.257590890372708,3.2300987143976063,-2.657103928778556,0.4265576534066572,0.19105796325006447
5.438142207,-2.4336214693130587,1.0931368111385402,3.3104791117455097,-2.402664387696813,0.4271336154760954,0.19389795908988122
5.538104804,-2.7341913045174127,0.8393926618996561,3.3789490823314394,-2.1665589204269566,0.43163697504101767,0.20571675047616214
5.638101433,-2.9214466490327156,0.56861318420467,3.253002428362253,-1.9513153204060192,0.4304790573926149,0.19635952950037827
5.738095419,-2.9774926250276175,0.2718644991197493,3.2647592076410588,-1.5653992354503319,0.4231707557698143,0.18627233467856588
5.838102784,-2.9859951031490954,-0.010083922701223415,3.2531263057841424,-1.4029340784555275,0.40164205186553587,0.184029625077953
5.938100547,-2.988299923435923,-0.37408703092536044,3.2789933403911844,-1.250657312492938,0.398731943104265,0.1871676620507197
6.03812586,-2.857328732805414,-0.6042335085885788,3.202411029831612,-1.1053005568382603,0.3392264970937294,0.1859809944729137
6.138105093,-2.7777455029455584,-0.886776923346026,3.15810337040883,-0.9469968799273699,0.3468644156746744,0.19942336206917696
6.238100926,-2.395281247590787,-1.1028981102780862,3.107873601031541,-0.6080648009807377,0.3816291999607029,0.20388229709314573
6.338172397,-2.187824294704279,-1.1870555175317599,3.054266036440914,-0.23462155536794804,0.41507094340043016,0.2060798820172083
6.438100322,-1.9919130338703521,-1.3384313379694728,3.1198903544663708,-0.035470492916482035,0.43925430368650326,0.21022903102273072
6.538140159,-1.5881013191079314,-1.3966992181973996,3.10213740354155,0.027253823886815798,0.465705938938833,0.1994255517204068
6.638103375,-1.2452148582953813,-1.348417528361762,3.20293374253516,0.39790823417991156,0.4754999145283034,0.2068263016163544
6.738105334,-0.9781619452814764,-1.2205905583061418,3.230645695195292,0.5457161897292414,0.46068837479518854,0.2047953466789688
6.838096226,-0.7436292888665589,-1.0195385476681227,3.177720050878719,0.8707401099587678,0.46390614688564574,0.19340893399200812
6.938103315,-0.5874256392142265,-0.8155164197805711,3.3210506757960134,0.984503810289081,0.4712232647295137,0.177163499603132
7.038099285,-0.3914748372580091,-0.49421345171288755,3.3590939629136116,1.0725624725949379,0.5367628510450625,0.08917709848517848
7.138102985,-0.28563497914942637,-0.1799334738056092,3.585635986218031,1.2321029864053974,0.552169200524969,-0.014912377178509443
7.238096523,-0.1161601132175493,0.13751377841402046,3.6875194750568725,1.070054570901405,0.525826175771873,-0.08085001896425516
7.338146021,0.08483033213895434,0.44250163554468286,3.8286412846591107,1.0438617221340705,0.424127794149542,-0.12162202659096721
7.4380987560000005,0.25253111855657917,0.8401112801315997,3.738144712785637,1.0051236287338792,0.3614957876743261,-0.14370577632447973
7.538138554,0.5084381397086554,1.041614441202393,3.6416278388905705,0.7388201913475455,0.3371503612682278,-0.16008684889496777
7.638094734,0.6997583828542341,1.30458256003847,3.4542765277616687,0.48910002342224856,0.31356992760503694,-0.1631179442638359
7.738103279,1.1941931305982956,1.4104576746793736,3.440086324790024,0.3403787920810648,0.2980038550444685,-0.1730221284961992
7.838094946,1.424625083619121,1.5625927247405293,3.370405590155483,0.17272164488150393,0.30126627408137757,-0.17842858254609334
7.938114274,1.7445616811855595,1.6260990257259649,3.1830642640251936,-0.023823104389960305,0.29145773026125116,-0.1850821419549582
8.038097787,2.058585647100913,1.5972568210679052,2.9799630207667254,-0.29465416842659764,0.30718677331808275,-0.2077203238059858
8.138094478,2.369285584881977,1.4471484729847275,2.991195408448767,-0.5569664885475489,0.3373449063735614,-0.2166796110466027
8.238096738,2.620737099921884,1.2493650610601263,2.963166443164993,-0.7831969117726871,0.38649222318971693,-0.22449267052258012
8.338106241,2.7937388847422855,1.0502725578910925,3.0122354877850044,-1.0315235174904764,0.47732320488314195,-0.23281292358534011
8.438093041,2.9042525229336817,0.7945651990762882,2.9392200285475094,-1.205081623017947,0.5270939728166233,-0.24167591409342473
8.538093764,3.056933661769803,0.5076655731321221,3.056771612083848,-1.4283465713956889,0.5497581317170046,-0.24274869059937682
8.638098376,2.930094700701033,0.24791239587027444,3.0783382683515703,-1.6023701623977173,0.5480996086905137,-0.24176579844861049
8.738185306,3.0011739938854043,-0.11938005287354354,3.2207880064956975,-1.8709582991034135,0.5435630612376259,-0.23318145362166223
8.838101185,2.8855527752061145,-0.3130856101443967,3.323789390379207,-1.9705683011674933,0.522769696828981,-0.22307473205251274
8.938092261,2.6594443379309465,-0.6389944112969922,3.310385063970369,-2.2781483655538795,0.5013266952020491,-0.22565960987381967
9.038095631,2.440313462548172,-0.8611340024122517,3.3034448619005166,-2.647009782434825,0.4909292895965572,-0.22072098117177047
9.138100182,2.100367524279632,-1.0956814831740618,3.241042377146762,-2.718383892366143,0.44373775996808174,-0.21119280766856824
9.238091863,1.781209625470509,-1.1553621568066177,3.253755349272798,-2.972950673793629,0.4069364090818019,-0.21031352962091707
9.338094249,1.4760817479134136,-1.163355960884466,3.149808876588127,-3.1649682357121165,0.3846899612190875,-0.21554375023693392
9.43809941,1.2317038116083414,-1.1656554220888105,3.1485345221786036,-3.4295091566689244,0.33694063002495955,-0.21532248911553725
9.538095594,0.8482539191897311,-1.1469696588371652,2.997897555670732,-3.657605686444114,0.33639202373445753,-0.22097467509140667
9.638095797,0.6471709566347275,-0.9004197445459096,2.832080452774772,-3.8824656275626652,0.37314441109017843,-0.23261047737332863
9.738122454,0.4388333899729237,-0.6955479833104617,3.0093329477622603,-4.057285836642031,0.48889882275543356,-0.16890190914596775
9.838147305,0.3460633237341848,-0.48811613358488953,3.0749086281873033,-4.174808777636626,0.5665990736895441,-0.08444521837907605
9.938094068,0.04726601576266848,-0.0760908271559595,3.362630742048022,-4.289160439205631,0.5940037993950051,0.008311977332066567
10.038093016,-0.021397437807030677,0.10507433711781577,3.5528851574560676,-4.253706148056671,0.4811025551828683,0.06677789040681537
10.13809803,-0.1433555980558755,0.4978583873581254,3.592560946214527,-4.053559443275538,0.3867584879029567,0.10355285283731631
10.23809355,-0.47454526652038803,0.7709001769321608,3.6448934091041703,-3.943328906831055,0.3318681409823766,0.13851448671504113
10.338096478,-0.6922112177864777,0.9009845951858972,3.5976637909741878,-3.8178724783445475,0.27722788527464987,0.16410423277540817
10.438103139,-1.019937553958902,1.2063727244059936,3.495478423547654,-3.5730974288036133,0.265966893944266,0.1798805426189675
10.538092735,-1.2997543677579886,1.2633048895959968,3.29810650970804,-3.348514981539945,0.30066864113066083,0.18205103337473216
10.638098673,-1.605339960226858,1.425369232962035,3.2396908421039456,-3.044783014787315,0.32862116454895035,0.17551925371654672
10.738090177,-1.9645080155883208,1.229129803893973,3.165646386794445,-2.8648913898516977,0.39041986737081924,0.1798060238611384
10.838094099,-2.3583403666418685,1.1755422819646362,3.082233182340498,-2.555882888757539,0.437098097724528,0.18229222157201894
10.938133189,-2.571803803527449,0.947362901090717,3.2951319368645637,-2.347508872759945,0.4479992749544978,0.18640785092868953
11.038099698,-2.7874004432873156,0.7309116227563786,3.1724502655897986,-2.2076913477133315,0.45325028407213214,0.18623854491058645
11.13809208,-2.8766726406835943,0.4304093717945014,3.255866265631201,-1.9292879181242852,0.4556837345632764,0.18842264988051322
11.238098848,-3.0314878806261314,0.12380268030503544,3.293914308897905,-1.7626746330516625,0.4134515162921419,0.1840231064670331
11.338095555,-2.9490507049754506,-0.15538296947605942,3.319228189471278,-1.4714838387144473,0.38285550527781015,0.18240662968408533
11.438095199,-2.934876824502456,-0.39013836482229514,3.157977374440372,-1.152049083082211,0.3618117962779497,0.18226566974668054
11.538094256,-2.8338133462043085,-0.7816027589064299,3.126624189917013,-0.9687452154020355,0.3594476018985219,0.18347086860534983
11.638093162,-2.665910796798182,-1.0311590602605498,3.0424016664268887,-0.7563553527106769,0.3440210389105106,0.19334895691117443
11.738093067,-2.499877577669385,-1.3394597758046771,3.075614628524971,-0.45883417850248137,0.3744791591644578,0.1990560742355105
11.838093505,-2.206310542765199,-1.3329239429874828,3.0258810831868668,-0.264778259504173,0.42869622676879987,0.20302104759107426
11.938103838,-1.8445792227764726,-1.3999008425158879,3.054852244690973,-0.09922035662907572,0.44590296293106807,0.20506487585841865
12.038147852,-1.4947397155094788,-1.4482304204006717,3.1350623706668035,0.16243910318974653,0.46504695984562994,0.19980495236912424
12.138152684,-1.2115014465418965,-1.380849159605631,3.2470558488780115,0.3124003960892253,0.492197540631402,0.19958428497620212
12.238096344,-0.9022640668482469,-1.229553810705859,3.303955593093015,0.5743990468437614,0.4710028017412028,0.1910468129926171
12.33815859,-0.668564567438592,-1.090702583257926,3.344204983171597,0.6819474420142196,0.5242727701775414,0.1913664984252408
12.438100277,-0.45933101692505107,-0.8125967620211436,3.36004767256159,1.0429730077109844,0.48470443420305953,0.16661172414127598
12.538107575,-0.26436896769026225,-0.5404215603438722,3.402259583784912,1.247303277943649,0.5206896183518436,0.0892609223504781
12.638105928,-0.19337172428731572,-0.2245478272968685,3.623695899809436,1.2114668488004583,0.5343417648980625,-0.011599528596692334
12.738090964,0.004192594682364638,0.1304921226777045,3.7076795012568016,1.1506360669823068,0.5209094231541884,-0.0869611552415631
12.838104296000001,0.1448967447257259,0.482893736116431,3.7209611117259365,0.9711365820755505,0.4204946633371232,-0.12448382094905402
12.938112009,0.2760156956828177,0.9102863816463491,3.740016756917425,0.7894923121228561,0.357867887247461,-0.14153259689813413
13.038104269,0.5823525717990276,1.1157867821566354,3.7009070214966235,0.6925667403423936,0.340317039494458,-0.15582922289066184
13.138097488,0.7826709310775214,1.2699621365528675,3.517916994352081,0.5754790875191613,0.3102381421334413,-0.1578314344621802
13.23815899,1.079223133828115,1.5241975901063114,3.444513024570567,0.28182951500052467,0.3059903195441666,-0.16836589053428966
13.338094075,1.411482622972989,1.5971689687232957,3.319499439504317,0.12394383046230349,0.3016164480303724,-0.17812049007058695
13.438092753,1.7563534629378073,1.5432687855844698,3.237541657174337,-0.059788796348297396,0.28753919734224875,-0.18848384198882476
13.538095851,2.0473330072495814,1.5717195956796568,3.0482102643033158,-0.3393097516291073,0.33024182171936656,-0.2026106083017111
13.638091768,2.3700862014549515,1.4439131446292364,3.030545983497313,-0.48744953087625115,0.35200886154421085,-0.22410341878182882
13.738090654,2.604381455627924,1.230108757334892,2.9258461920317815,-0.6461346419588175,0.38983830842343825,-0.2365100994510366
13.838102726,2.7884835347204118,1.0011573591093264,3.011248353968153,-0.9296179371330822,0.47211582032073385,-0.22975897167058065
13.938096469,3.049546510019979,0.8165279898333818,3.018665405171488,-1.2323187109215004,0.529556845464465,-0.23933892483133745
14.038096119,2.9884938986047764,0.4232611628399032,3.148443956916865,-1.4974685577199507,0.5439480567902779,-0.24437171840995023
14.13810448,3.0392303370711495,0.20248820062848466,3.138830638486662,-1.652956977566335,0.5558790169632913,-0.22882356903486775
14.2381155,2.900174030681855,-0.18867334641959416,3.2920969370830706,-1.9003809720175189,0.5515588481015026,-0.22968794712634916
14.338107203,2.818237148733279,-0.45821394459663983,3.251902696163454,-2.1000241119587266,0.5259709997941581,-0.22615851081073526
14.438114945,2.6434364934965324,-0.8227972055838162,3.2557243590351366,-2.312539562366318,0.5044356188003308,-0.22356236294073312
14.538101896,2.5446083447920413,-0.9358208411380837,3.2581084728315735,-2.5390056146300863,0.4967068261710982,-0.21975888323189263
14.638118584,2.089212555034771,-1.0069383007966621,3.30627747467391,-2.744842198582976,0.44719776552959445,-0.2100034088934189
14.738111814,1.8387804375964631,-1.1836892450169274,3.2422255102810826,-3.020111450893416,0.4115540526474261,-0.2107128028625276
14.838108303,1.555939794055156,-1.2270229135298854,3.130778706942793,-3.121926233820033,0.40949440473649495,-0.21334200761695538
14.938101375,1.2308753419581613,-1.2264279893679686,2.9963626647578656,-3.452422970645825,0.3603578752009434,-0.21434666849117265
15.038109648,0.8431953283528586,-0.9952932172199735,3.007564332661757,-3.6793581618321944,0.33790986700937176,-0.22135934895519313
15.138152347,0.5372466707853178,-0.8107532073258801,2.9940139874104794,-3.861174185046552,0.3906276795632,-0.22101251972726765
15.238101785,0.45797631852703713,-0.6478997572984122,2.932399092932838,-4.0929626197297235,0.4803303417581842,-0.17748863554156188
15.338110301,0.3062334615541386,-0.4056341291351746,3.2052765719192005,-4.1718828406825175,0.5664324146189238,-0.08233560263241196
15.438102024,0.11350688981780815,-0.1056789039177057,3.4051618940474673,-4.214847333743544,0.5537286052872621,-0.0005852312573762126
15.538103866,-0.06614792282530256,0.24016431745401334,3.643540526153871,-4.15719314790655,0.4985543228172436,0.06435865473383913
15.638106816,-0.16773533596752604,0.4859031669563356,3.5939384290637593,-4.064603064098257,0.3867120748013765,0.1021797319890812
15.738102023,-0.515505446331133,0.7391620744767832,3.5329397494175545,-3.9672031307618436,0.31973306242720984,0.13724262415290922
15.838180016999999,-0.6566870068053395,0.9369806983297108,3.5154578726555297,-3.7519509752248297,0.28489223807105013,0.15986217660556962
15.938097094,-0.9399744028006074,1.1913304145233239,3.456600664944209,-3.4048502339790967,0.2847453291926752,0.16539484905127136
16.038094381,-1.263617651949828,1.2996563437646238,3.3240312587426346,-3.319815684350052,0.30476262582163777,0.17574981691265773
16.138106288,-1.6884041904774767,1.252350111881091,3.346626418053421,-3.100332318586122,0.3313304903675055,0.17731851349565478
16.23815791,-2.0799798101866114,1.2685651274044947,3.1948876280918976,-2.7386544138210707,0.37241609364109113,0.18193187470123542
