time (sec),x position (m),y position (m),forward velocity (m/s),"heading angle (rad), from x-axis, positive is CCW",throttle (unitless; -1 to 1),steering angle (unitless; -1 to 1)
1.031727124,-2.094751710651195,-1.1527974928543196,3.2414313627428997,-0.05021461857504807,0.5141733891213002,0.23682062399705023
1.131723923,-1.8596907616305094,-1.03794227751085,3.3733765761906453,0.17341639606254972,0.48910815030796406,0.2389796564774423
1.23172564,-1.4797068032670118,-1.1125681559354317,3.341183189727762,0.3207690837465129,0.4232282814132001,0.23151921504685555
1.331729786,-1.150048808865101,-0.9186768141156104,3.1472851836445574,0.5037238546962399,0.38474973775416027,0.21317847471370052
1.431870004,-0.9695312724507895,-0.6861226671914721,3.2773977438815174,0.8528947880712849,0.38608659044164884,0.20359449445286282
1.5318023649999999,-0.8474835676181183,-0.37358661502996465,3.208597423246506,1.0386539755034818,0.4257189466247922,0.12841348383606127
1.631716179,-0.6201319037398216,-0.1712129656868588,3.35222605554071,1.1277335254226921,0.4656983049743129,0.037011890627291176
1.7317145900000002,-0.5181423740912687,0.19002249288618028,3.4037257489325587,1.0029692214511037,0.47054572558486046,-0.05834173902473084
1.83174583,-0.35584594723936763,0.32836244388844354,3.525741210520529,1.0479580587123418,0.4299148484430656,-0.12130667869029331
1.9317412530000002,-0.17336517821092806,0.6972540172125796,3.507617314618554,0.8654256880247975,0.39625929560983886,-0.15642432230189382
2.031805771,0.0998658907308659,0.9695611324440214,3.523926100830117,0.6398473611108135,0.3852328209118763,-0.1678323981649292
2.131725968,0.3468245848921663,1.2512807193517743,3.553454747595764,0.5855269903385765,0.3847187755033689,-0.1770960656056541
2.231740901,0.6793749797367503,1.3782031474514296,3.4813182799597455,0.2754030650606676,0.3794370469110421,-0.17555018890651408
2.331750755,0.9567887618663102,1.460284800879783,3.443775721225224,0.10977929570993472,0.38745885107595973,-0.17402726304012817
2.431818684,1.309534455098633,1.4794602951741094,3.4260526695913405,-0.14202437347790275,0.38129685923893797,-0.176462076339692
2.531755346,1.7281603273433592,1.430042952220445,3.430408852383495,-0.3274467188876155,0.3663093785080968,-0.17007840030420918
2.631726817,2.031213109923236,1.275251626886983,3.415563926140709,-0.5407847317492589,0.35446495187849936,-0.17567947279070234
2.731730447,2.305435963554352,1.0906330750114686,3.3477141145168146,-0.678669125525106,0.3524209999107038,-0.18303209310194427
2.8317264040000003,2.49115494598971,0.8627601895256312,3.325158155765494,-0.9556943257787072,0.32811433105005927,-0.18833237752884371
2.931726395,2.732771413699776,0.4321583716240544,3.306202365067656,-1.2011838920607778,0.33897907813507255,-0.1861735593221366
3.031750954,2.8459847723189116,0.1775376827116617,3.163883880212013,-1.3653479162286477,0.3429318196578764,-0.2019323284309101
3.131743336,2.806842112745645,-0.07310932895696108,3.2091348181059414,-1.702470320686586,0.3394468788114864,-0.2027567355462518
3.23173454,2.6616915933425442,-0.4148596830018555,3.1679936343496093,-1.8645712386807405,0.3577230157112577,-0.20864838261885457
3.331739246,2.7272621947937594,-0.6693876466325989,3.114209651029581,-2.1024756352240477,0.3969403658554241,-0.21331268226350905
3.431731466,2.4214837712127255,-0.9913887826526654,3.097344421277025,-2.342728308638709,0.388419071999937,-0.21605164202733473
3.531733864,2.2960320329014,-1.159810897152935,3.1598433849664995,-2.5744340888934283,0.3894056177766717,-0.2104492357862695
3.631813777,1.9367138389869916,-1.2759798558678535,3.169399306845574,-2.7744808304988595,0.40217544730489807,-0.20335959972339218
3.73174373,1.5159330161970632,-1.3168934695606338,3.1916451747966987,-2.967379867129457,0.39150218685335914,-0.2140228569724768
3.831893847,1.2740914163606647,-1.4399212088806763,3.2506046712675083,-3.251917225001467,0.37415874845144176,-0.21611913051971862
3.931740745,1.0472658258267011,-1.3182928889820025,3.1727385377651616,-3.47472918882779,0.3670412208781133,-0.2013028789787073
4.031731236,0.8124661074905717,-1.2778689462598933,3.159346569011293,-3.687605664891274,0.3757339789368501,-0.20364177415707507
4.131730515,0.4126204343630144,-0.9940644896705056,3.1206903667561754,-3.9734749065642205,0.35349683415793703,-0.20363686800744632
4.231727107,0.21332303920870097,-0.7922559312367972,3.057096566713196,-4.166251109534786,0.3888994663596985,-0.1848772727691858
4.331728481,0.08416116759381116,-0.527936442792153,3.1599897610904906,-4.290281499186408,0.4486498793751622,-0.09507582375855372
4.431816199,-0.011887370808093326,-0.10849428952914293,3.505022768968363,-4.371563384194522,0.4284549629566413,0.005772892316820341
4.5317319860000005,-0.24312075308421877,0.03052461100913753,3.519747233820878,-4.287715720723641,0.38566853164756587,0.0739757109581563
4.631725724,-0.3113507400850405,0.5056877262045242,3.5691226996539016,-4.170341535962733,0.3378564704247677,0.12504347929627593
4.731812961,-0.5047102817581798,0.6775240295162831,3.5824801731592486,-4.084145177617143,0.2630663962070413,0.1539614620286008
4.831729409,-0.746011399642208,1.008907844060172,3.460245770529469,-3.8040071800516793,0.22699573898622913,0.17646239928608456
4.931762534,-0.9962164881779739,1.1911532537983465,3.338226701482833,-3.5215660840017007,0.24137420679886554,0.16836038752005247
5.03180423,-1.3127257893130435,1.2622635825444866,3.239902914959987,-3.2743843331361453,0.27225190320154347,0.16946539069873148
5.131817237,-1.7417629546519315,1.1999186922731235,3.116180976116599,-3.0176183479779524,0.29765112097788815,0.1726766339723029
5.231729616,-1.9079694005019254,1.331388488669479,3.057406609189556,-2.923634162914648,0.33186579293658386,0.17156252995775434
5.331737446,-2.24831270113586,1.2051013950502745,3.1288355497884472,-2.7443260843949306,0.3410974743867703,0.1768401546350792
5.431743071,-2.4972136524650397,1.0804967122899152,3.0705241846025038,-2.598895280061082,0.3305204512458786,0.18596884337813066
5.531812693,-2.7307961734046837,0.8439633322763882,3.0656129709657245,-2.277815196511413,0.3439986512801761,0.20036746002802772
5.631825253,-2.9342288606916136,0.6782511253508898,2.9226781739687797,-1.956186188133755,0.349787381620324,0.20079469971673589
5.7317691150000005,-2.983466075459427,0.34114707638929165,3.052335241269039,-1.9187404869181062,0.3468884894093327,0.1990322407631348
5.831755526,-3.0115327136935988,0.012908990501194761,3.0372490906890808,-1.5506831675442052,0.3586679777813908,0.19542820657290133
5.931732564,-2.952571872431449,-0.2742843689703789,2.95801480935773,-1.3337811571085174,0.37948496889438,0.21125680156765053
6.03174493,-2.8430444819500535,-0.41202757932970097,3.0474266510603853,-1.0677706590434175,0.39098259446605443,0.21594009437849937
6.131851139,-2.7289091924649256,-0.9239531202760758,3.0142143497709717,-0.8876685501291467,0.418277592312166,0.21700351104371016
6.231743549,-2.500418320523493,-0.9622876450137323,3.0367574721878587,-0.6118720948553478,0.4497771317605685,0.2161996385164468
6.331746112,-2.2671798631323536,-1.1717550942451238,3.131927098661304,-0.4376473035716253,0.4552839933843781,0.21065948976162527
6.431734861,-1.980197427438383,-1.2403467569999755,3.1785937573212513,-0.17427967505028918,0.46077510943871086,0.20497908414122737
6.531734692,-1.6087192577771077,-1.307524179071363,3.183901646436391,0.11891214085038496,0.4550963771080933,0.19922508176295287
6.631732632,-1.2946602267973726,-1.2372569440761034,3.2317565122626357,0.3803389550970327,0.41747305953319697,0.18674890247478765
6.731818148,-1.0050984500296447,-1.1463567839286393,3.291256799464927,0.48713102047115864,0.38866148084594165,0.1857940848266361
6.831810739,-0.7005940892128873,-1.004564269691492,3.2966768692974036,0.6585202250160234,0.38878099468374366,0.18832595332137264
6.93172666,-0.4385503943987571,-0.6812228838284173,3.2028754161433755,0.9552673651132493,0.35405875159718797,0.18434600178591953
7.031729224,-0.3132475035492868,-0.409909693570725,3.2290599277186542,1.1106270490224774,0.37015470855778804,0.1422456488462226
7.131762723,-0.2321129054491656,-0.13348642322811666,3.2482276447013594,1.2291008291360765,0.45763021886422073,0.01823228441340524
7.231739272,-0.18148079989449825,0.05793357531663881,3.439254183812952,1.1462137334426954,0.4478579042049142,-0.0774373560014531
7.331729632,-0.009813047323886066,0.4813908024818635,3.4770099734755,1.0660615319849902,0.3990668455473633,-0.13808160183589208
7.431753907,0.19633789177093036,0.8259363664278455,3.498715615499379,0.9398198297837942,0.36922092217570496,-0.16349968191642386
7.531798897,0.5134792021009607,1.049441531460913,3.4471642218681984,0.8495985880995461,0.3473227911186426,-0.17004027206318753
7.631725186,0.7039082383801234,1.259186621937429,3.4373356240619724,0.5048230529459299,0.3511121183936222,-0.17284573739121967
7.731742936,0.9338762573906072,1.4637090968903952,3.456990380581803,0.3151158238112231,0.3859705026538866,-0.18579595103265695
7.831744556,1.3417764097747407,1.4237665445393035,3.2377664764353176,0.11719193604474554,0.3753141645156079,-0.1819145167793138
7.93176247,1.6609293398712806,1.5814757944117235,3.365480854365436,-0.19091968874145632,0.38079930100826453,-0.18124775371019536
8.031812424,1.9419974093772494,1.426177033481574,3.242670356072762,-0.40827879283960217,0.3919783175709693,-0.17971780305346044
8.131741327,2.327159181569336,1.2912223887713379,3.2361819385192274,-0.5570367593165158,0.370604926858805,-0.18533669810165293
8.231742661,2.5420875950980317,1.0237158613876944,3.295509231755475,-0.7099978709397025,0.3632219606392163,-0.18823024381564524
8.331812505,2.6981360606222218,0.8441955239555831,3.263051730774885,-0.8955818803225871,0.3779814334495589,-0.19784338944710692
8.431729329,2.9365925780732227,0.5993750275077262,3.208628845069891,-1.17354677536294,0.35824205068651394,-0.20322452325768525
8.531800659,2.925696954435859,0.2142418515002134,3.1967921663699523,-1.4724082604534718,0.36201341081968985,-0.2083587967731365
8.631733357,2.9598450218592123,-0.0898885097559407,3.0158825241385663,-1.6797234800551832,0.3997950402504209,-0.2066078812041801
8.731743743,2.9795136675818803,-0.3985844920567583,3.158196600558935,-1.8523898541618966,0.38526666291308254,-0.2046937515977773
8.831745785,2.850630439590916,-0.7256871547223691,3.1532346289458735,-2.1594420265713845,0.3860496454820553,-0.20388886024471659
8.931732281,2.6053451096961773,-1.0104585341814916,3.1357332362005312,-2.329526417928383,0.4179466929301916,-0.20546015895169867
9.031726092,2.4623721472020303,-1.1144976045059878,3.225296517189442,-2.5801211291690596,0.4221301128597753,-0.19304903054358974
9.131812035,2.136670036954825,-1.3059628742614378,3.2415205396760776,-2.723043374581394,0.4119090462938337,-0.19715537533862149
9.231727052,1.7053222876806247,-1.2834774825594188,3.243711745187796,-2.955286224194386,0.43286793244860955,-0.20134768562673033
9.331725746,1.4897146422236736,-1.347176438723182,3.1422103633104173,-3.2493754335401124,0.38550437029009577,-0.20026828927143572
9.431742865,1.202052937454191,-1.3229834229609403,3.1988034340554585,-3.361020737619206,0.36487465377233397,-0.2027669967345189
9.531725017,0.8393362576380652,-1.204982263393649,3.197948371556059,-3.696730062409466,0.35972652482630996,-0.19741880399673792
9.631735037,0.49161202437528023,-0.9807773487386591,3.1761024939173765,-3.9835937485417565,0.3500555557546515,-0.1913579920946873
9.731744338,0.395568554892972,-0.7559011644190043,3.0324197905233756,-4.137974811760173,0.3877093418491697,-0.1707465848442618
9.831739073,0.22148144411247547,-0.42943078609443247,3.2588618533267524,-4.2783901916973095,0.4250696770483455,-0.1014983727466404
9.931729467,0.14184513474036994,-0.15155263333535463,3.36853058792176,-4.387607933684162,0.4694668226564685,0.007672433546746925
10.0317252,-0.004564409750509161,0.15749012157671838,3.5016261687060304,-4.330079040402414,0.3901446729597245,0.08419135677225047
10.13172796,-0.18384018137672964,0.4446969134330002,3.604705664812447,-4.195150229116749,0.32837975853302453,0.12172613084630375
10.231861782,-0.395803389283343,0.809609604635964,3.6012160341414856,-4.038939432905678,0.2767096387726675,0.15772058311446463
10.331714917,-0.657632002263494,1.0150567940302773,3.51680783779593,-3.815701687351946,0.24526044782921097,0.18108128362245596
10.431778682000001,-0.8212804993224677,1.2673976260129065,3.3686949153988976,-3.6249378180603977,0.25570867701091093,0.17513759899751524
10.531726926,-1.172179645442919,1.297375150884738,3.1914932869181754,-3.2976672864652605,0.29228675057908554,0.1829449535399672
10.631828524,-1.496562395515003,1.4314320918523324,3.1573496317258614,-3.1366252077773407,0.30532365257107486,0.1778631420660226
10.731723148,-1.762199701324995,1.411988723495708,3.0496455523234767,-2.946903694294165,0.3341452898913142,0.1688245875497965
10.831739795,-2.141864474667451,1.240172295346356,3.139296209312098,-2.6890390000262663,0.3522505157586396,0.17772700335470715
10.931803602,-2.401954471122436,1.1163317591207413,3.078143014276149,-2.3966077823655256,0.33580127370831236,0.19141303557960374
11.031714572,-2.666908931722159,0.9118991651590046,3.1651836954832504,-2.3098139275764207,0.32944060340743014,0.19248695573685606
11.131738481,-2.7668965422683995,0.6622764790062259,3.1325381286742986,-2.1298773580388737,0.33795171278395625,0.19767693264055727
11.231705079,-2.8779145821422594,0.4285700643336148,3.0513524040708133,-1.879397547193388,0.32835519361083704,0.20960886954158842
11.331730654,-2.9517155402241504,0.10695453250299058,2.95563594012866,-1.5808416612576333,0.35138023699680665,0.20469837876875854
11.431744146,-2.985860529766244,-0.18591801589719512,3.084893661537332,-1.3723823974553189,0.34834577554040774,0.2179509674704848
11.531742742,-2.9163915647131384,-0.38793911777513745,2.9783074502717963,-1.081963430513927,0.378082760744647,0.2195781264465568
11.63172754,-2.759656028980647,-0.6838136914785884,3.0054271912134785,-0.8315174978884706,0.41955799904948315,0.22386830776199831
11.731729861,-2.4636095935651334,-0.9851940429092492,3.1003563438355632,-0.6230657691347428,0.46124218605948314,0.22769136074669855
11.831842356,-2.133445503607973,-1.0328692313734062,3.0938229091041833,-0.4881777493415687,0.45014799440340586,0.23012199709004316
11.931771745,-1.9982595257229752,-1.3695959461450073,3.1380981751593064,-0.24531503400312882,0.4413548603695316,0.22746839193304685
12.031732973,-1.5737720757054505,-1.2900577109837443,3.2299248855074527,0.045679209574941974,0.4658337713711161,0.22209625280849357
12.131724402,-1.3966413327920697,-1.2130112310532877,3.1381513364613762,0.3309047764591061,0.425655426015845,0.21059054834065494
12.231725334,-1.0807741703549145,-1.094506918087422,3.2797890133383953,0.4684921566020298,0.39658754439146326,0.19291868042721033
12.331746448,-0.6430996206702119,-0.967960592652615,3.271279468947152,0.6936904626967326,0.38687975257868007,0.18593142814476407
12.431742535,-0.4878167095867179,-0.850442259299729,3.178014624945582,1.006352543479233,0.36157333195599234,0.1888765869109652
12.531734519,-0.2777482898981283,-0.4144133228849071,3.2467784140233893,1.146469254227849,0.39824784779638395,0.1277062543252558
12.631731452,-0.18437481788763646,-0.25147466369972715,3.302984302206794,1.1689636158785774,0.43572515838662623,0.034176685734318125
12.731804322,-0.03234648962857585,0.1812051213921874,3.4269499475678833,1.261993690240875,0.4530510181825665,-0.06524831650073908
12.831725225,0.1083962388813231,0.45858792464773285,3.4310970913642183,1.1160517257632765,0.38630203256429735,-0.11909600843485707
12.931727675,0.30254156268253335,0.8946373872595688,3.560426518270769,0.9056144718245343,0.3454916348786809,-0.1595355938249117
13.031731813,0.45886299004737835,1.0511872974421939,3.462903933519839,0.7571651958842291,0.34551669680897173,-0.18055324214563595
13.13173104,0.7572169394524046,1.3219126743636627,3.390060873210286,0.5079415648204584,0.3380578226419509,-0.18307854672749063
13.231741842,1.0529214114777738,1.3750416734197914,3.408277237732151,0.29448827637029196,0.3544728099495707,-0.18380742467423175
13.331733598,1.3057021294646236,1.380515326399587,3.2468867283089793,0.07378890411805526,0.39224052054342495,-0.17896685129425632
13.431751235,1.6901100789259806,1.379488373737597,3.207933551091506,-0.18277435049064997,0.37861850025773075,-0.18007938234699147
13.531740565,2.1045263993379173,1.3831484953783113,3.206824542541239,-0.32708286249019036,0.37767597603250347,-0.1809590042023821
13.631812465,2.2697653194610785,1.2669896358948995,3.358106249423792,-0.5478847956214943,0.39586086312876106,-0.18855396803800617
13.731817068,2.606358408511346,1.0601229551837066,3.318353367160386,-0.8007068233459305,0.3644351299649732,-0.1903545729655664
13.831738155,2.6966092259127032,0.7744076627429037,3.3349408007094206,-0.9336874202791936,0.3548244169537553,-0.19153009430890003
13.931819463,3.0087623855792045,0.5369908693059366,3.211787884120154,-1.2392825642907666,0.38564339836408557,-0.20209941478819138
14.031743267,3.0033800127929027,0.28264737232323717,3.1459207852036233,-1.4685107086145774,0.36389225083968463,-0.19607331988254914
14.131726718,2.9965921155074375,-0.0823461931603749,3.189333541886762,-1.7938113961718993,0.3784966729602856,-0.19553848545975425
14.231817790000001,2.8915964659843594,-0.3459691673021149,3.1286510224629756,-1.8496386734460097,0.39607259929658034,-0.19079486864312162
14.331737448,2.8831086320538226,-0.6632648389217716,3.1147292231987698,-2.1315611405364687,0.4037404287922257,-0.20339924292123066
14.431734018,2.685258522619759,-0.9120724540497693,3.1916634535516306,-2.4216058504855953,0.40492202965175006,-0.20743149014207377
14.531807442,2.4062890756139765,-1.1752421538405147,3.210442761538878,-2.6237660739241115,0.42425294559316196,-0.20321720993045056
14.631727808,2.1007453298974474,-1.2328990566443998,3.1337017928839814,-2.8678791186390096,0.4254186230142526,-0.19958507700608552
14.731739468,1.801231093385231,-1.5228462598706922,3.1807342737341147,-3.1235281586335972,0.4047628668021736,-0.19186178922423655
14.831726129,1.5280497362925967,-1.4073522680908783,3.1496189806552906,-3.271598331349446,0.38998699953287125,-0.19270163909021243
14.931728815,1.1855944684107769,-1.3202306128678727,3.1440306219769343,-3.548385533063185,0.3771373353662512,-0.19443301095649693
15.03173832,0.8985544155088095,-1.1643466193393133,3.280378960733777,-3.657420601509828,0.35313849442651646,-0.19617667841353661
15.131726549,0.6314977631174294,-1.0674179031428601,3.2272798430114995,-3.985195532993039,0.3374538870768287,-0.18965710559958796
15.231731508,0.4029128494646376,-0.7391529923935014,3.086538814993172,-4.083842002484492,0.3513411802835814,-0.19741101107998754
15.33174524,0.23302349496253238,-0.44965548412238737,3.1460964186856093,-4.299531175927955,0.43153422734662705,-0.09835298520327262
15.431729351,0.22308245694778583,-0.11011836181395575,3.40873243989503,-4.317197198436082,0.46042423298194884,0.013625350712785967
15.53173211,-0.036839078189137314,0.17116667905361682,3.58173667455803,-4.275110597198763,0.42242920068250617,0.08948514134552149
15.63174816,-0.20466243723225241,0.40457285365661133,3.641350109268135,-4.191733463672016,0.3357079393633828,0.12869690642331513
15.731728565000001,-0.306880747348306,0.7621935456916236,3.6804457232438126,-4.024539898605404,0.2735533416269237,0.15995681839345793
15.831738349,-0.5617063506512341,1.008365734679395,3.506189285647814,-3.7289420571572114,0.26437549217538214,0.17735666247483542
15.931729323,-0.8783741482087739,1.085648472727911,3.36071544930361,-3.611428137051638,0.25539112558966753,0.17847587444601626
16.031720711,-1.2184217107405622,1.2847624953480055,3.268437091390738,-3.359092073628152,0.2834701983348243,0.1675927177328125
16.131742321,-1.508259574355309,1.2883892575018112,3.19912707763091,-3.187441139071449,0.3395733749545357,0.1685844821830264
16.231754832,-1.7973445175271388,1.2767962854603854,3.206379327227665,-2.8462001500785847,0.3327094817410862,0.17132005640753914
