time (sec),x position (m),y position (m),forward velocity (m/s),"heading angle (rad), from x-axis, positive is CCW",throttle (unitless; -1 to 1),steering angle (unitless; -1 to 1)
1.039691528,1.5711845317737434,-1.217849659865429,3.1676244122139567,-2.983050898665307,0.34423095744778825,-0.24712566407386405
1.139668729,1.2451377916681277,-1.2245842116597196,3.0178129626572314,-3.2768227145644055,0.37142153013470386,-0.2541891613214943
1.239667793,0.841137812442733,-1.2519611482568507,3.0106673536692563,-3.46429361710741,0.41527070095312235,-0.25727507653926196
1.339671127,0.6800893052951472,-1.0906078620951747,3.1091275419050786,-3.6623495651211853,0.48099210547379095,-0.252640262664561
1.439666571,0.5106138370146237,-0.9571948836031217,3.066692665029439,-3.986768763344411,0.5210869542755182,-0.24711574098321454
1.5396680520000001,0.2991560655145179,-0.716800494750349,3.1806691582595206,-4.1806139893466785,0.5644255665023837,-0.1799563457724693
1.639672761,0.04026405055168957,-0.35163540497989354,3.395359857287482,-4.361875460895186,0.5681938222901423,-0.08523968426558712
1.7396713890000002,-0.07263148233999335,-0.049910476239363726,3.7114768222969077,-4.31738315092183,0.537622229614917,0.011783509016917866
1.839669237,-0.27768347190599835,0.24609342537843926,3.770408927787957,-4.2327938758156884,0.4071601875443278,0.06182175816910899
1.939664038,-0.4080407931125416,0.6163611200066706,3.769202640835068,-4.124084290089136,0.32440106568111826,0.10263251276615865
2.039659491,-0.5953580536641805,0.9177972362469978,3.7725020993273763,-3.9708924762640048,0.2588091106844358,0.1377916694096593
2.13971614,-0.8702045672691202,1.0705602997622061,3.626179967366741,-3.8069867489887117,0.21196487696098051,0.1601438741269284
2.23967099,-1.1951855815073087,1.427031258860072,3.4735442323896737,-3.5378150081820796,0.20256004352114315,0.17613232173255502
2.339664079,-1.5089942396898919,1.4993502390227036,3.273616186465704,-3.199332377537031,0.211754118511777,0.178613996551062
2.439665913,-1.8055531368594633,1.5559780456478662,3.1108825495199808,-3.1077425603307933,0.24853970848551396,0.18378140202808702
2.539668333,-2.085720528605512,1.456298602435868,3.080511455070974,-2.8682409760459473,0.31026449718704374,0.18808530596455886
2.639692805,-2.3911015231214963,1.5220097273285034,3.071889507745077,-2.666672103312952,0.3585776083531826,0.19994807711438853
2.7396669080000002,-2.7174705025451034,1.2042708634438808,3.048364441897676,-2.527092177337775,0.4049428923396262,0.21468752961868487
2.8396682980000003,-2.819414831963153,1.085486504070938,3.0877672369886464,-2.174897135009424,0.4474014391451868,0.220787786559782
2.939671719,-3.0706549013850153,0.7557357532117355,3.0945589367251776,-2.0352167687501472,0.46687039832305116,0.22331138291618197
3.039667651,-3.1312004725676066,0.5588742842703467,3.131334652007473,-1.7041395519651374,0.48427974096216747,0.21658498306868376
3.139683589,-3.177056281137125,0.11351518457209533,3.135522013960851,-1.464368667308383,0.5246834812646805,0.20288294409521965
3.239672068,-3.194903732652437,-0.2082002364252982,3.2235312509280334,-1.305238171962426,0.5373574075013527,0.20297492342014634
3.339664484,-3.024628021427426,-0.4415978212658172,3.321199451398008,-1.053627580451478,0.5140080517909988,0.19744042663567288
3.439666051,-2.9011562754269145,-0.7465101656693329,3.2611608268745687,-0.9627244786464161,0.47878847385835266,0.19191511632252428
3.53966898,-2.6644225697290165,-0.9408351072932044,3.347091610889818,-0.6408230586166828,0.4755184754400273,0.18901329042192228
3.639668486,-2.3238781332675993,-1.0979308763292122,3.368338843209751,-0.3814775373488321,0.42649368457020675,0.18407777502745296
3.739665541,-2.0786034466834455,-1.1930907160943873,3.2168573050646736,-0.2975936627146083,0.38676846126541703,0.19017779769997198
3.839758218,-1.8235206591173032,-1.253102276041061,3.1964316649528355,8.681036716921657e-5,0.36348297890302694,0.1966390911318068
3.939667288,-1.374248273737906,-1.2969238246156967,3.067029243535936,0.24491207452017663,0.34061341163834397,0.20001910740801776
4.039670424,-1.1086692828327005,-1.2339348975210698,3.0385926978564552,0.5416968139055262,0.3244055130797846,0.19939408313368134
4.13967163,-0.9033021383728373,-1.1055069550723933,3.0876206586560535,0.6563941835873881,0.3693342558149262,0.20716833679142907
4.239666,-0.5601007582602477,-0.897144084328526,3.1066239806954132,0.8908816881009229,0.40750369656837526,0.21017542889008123
4.339668816,-0.500683232982511,-0.5586931434832716,3.0405459136991926,1.1372364162554949,0.5184706020715817,0.13008147637192707
4.43966994,-0.3429162417841541,-0.3573026743968107,3.3762853348128665,1.17629659564219,0.58607570661016,0.019690001571703888
4.539669713,-0.1420396600749442,-0.06913006284997143,3.5440711827930986,1.1187514031976662,0.5681709054542639,-0.062036814316047025
4.639666118,0.02970823052708554,0.3127458487918983,3.767872431216734,1.0644199544353325,0.4469849065873627,-0.10680002207264717
4.739671793,0.17576670121728674,0.7090966897116078,3.790900619708479,1.0923824404670688,0.3575905291128991,-0.14441782744719123
4.839671584,0.3088798040140946,0.9319384204883533,3.6838829570669227,0.9421224026497861,0.2900617965048829,-0.1855923626797968
4.939714761,0.6914188489724203,1.2154021338493668,3.579125991575637,0.6933309805320486,0.23179370523952586,-0.20578744381488595
5.039669799,0.9475937747284106,1.4084492553992423,3.4030301405555092,0.37992308537569236,0.24797580753422324,-0.21446909610759726
5.139673252,1.281256745517328,1.459765176011199,3.2680289177729382,0.20470393260768682,0.270574118247544,-0.22564266057717297
5.239665939,1.4952165005776625,1.52347085155454,3.179455624721787,-0.020850962084123997,0.3365964162385923,-0.24479482707905756
5.33969209,1.9047887320650476,1.3748920345283833,3.104207872161252,-0.26616340427393,0.4119667462880587,-0.2552739253923537
5.439668332,2.0747948455652008,1.4209706548764907,3.0855260233827244,-0.4467042937051646,0.4789892530633019,-0.2560555437459775
5.539670742,2.311025971250574,1.178448604365769,3.1037330959616183,-0.6638543736418834,0.49704194847054656,-0.2522152771706469
5.639813758,2.7017751004857007,0.9816033225957543,3.150343896491466,-0.9325956551078813,0.5255320401623828,-0.24893409883895354
5.739765019,2.845167469259003,0.7263640598105114,3.191865080658631,-1.2343800542120693,0.5241421659579377,-0.24216785350048003
5.839690494,2.7575488511432993,0.4031132929531298,3.3065294844933555,-1.359602906614417,0.4820949230607124,-0.2368782835990606
5.939666475,2.878167556616875,0.047584539900541886,3.233083215959293,-1.6696305890941636,0.46408081100640186,-0.22341633864113394
6.039672529,2.9093634599500433,-0.2763635915741801,3.198032907979289,-1.8805544105642822,0.4724670980359214,-0.220061193993959
6.139664662,2.6717967111344882,-0.5860523010882912,3.352179556969255,-2.1232731252043897,0.42127536325321774,-0.22290118157381475
6.23969055,2.692868097408229,-0.7580594022681416,3.26851107263719,-2.2989538566133865,0.37945955672029313,-0.22566766189209522
6.339665481,2.255969368484504,-1.0601729689696735,3.2205026890774504,-2.5301680488595824,0.36721890363637066,-0.23231404561721847
6.439686502,1.980199561996035,-1.2703196085404682,3.145492621734977,-2.7012288191335694,0.3240752686340834,-0.2275622824995428
6.539666935,1.738581734302781,-1.3132587353312617,3.139541768092168,-3.0396416462923677,0.33327047356535466,-0.2597434766916401
6.639681496,1.3576355232896946,-1.235815654081027,3.1349028953554385,-3.1800465830957174,0.3924527661147654,-0.2559171520555265
6.739663319,1.111850880970579,-1.23052048406791,3.101744872070837,-3.4823502187010673,0.433060043503486,-0.2565216989316906
6.839673658,0.7801336692937908,-1.1492876132552512,3.0375710169017847,-3.7222531975669053,0.4843113414288681,-0.24971879848288572
6.939667963,0.5890449540415924,-0.9317736648505962,2.984111225482988,-3.975642185277453,0.5579717714865615,-0.24487649630877317
7.039667791,0.35272605886718456,-0.6337539808296612,3.1227042448888507,-4.196795346615509,0.5922105745573484,-0.17149680439062398
7.139673504,0.27482625622264156,-0.396388322877243,3.453100559608527,-4.3054624958280145,0.5762204337921636,-0.08304914715743308
7.239669861,0.043421926868460484,-0.02867983912481531,3.6708650559027416,-4.16954959548242,0.557346259623204,0.02092382558369517
7.339666651,-0.11125800892477333,0.2715094923396692,3.769836102478304,-4.229085247101546,0.41854688728938233,0.06253962301581914
7.439670124,-0.26930936731637717,0.4922217994432694,3.8125190370247237,-4.0760539255590515,0.32871338778272585,0.10369778028011482
7.539668187,-0.5140770650473483,0.9539346415729015,3.776242717713237,-3.914752688961911,0.29979111894671534,0.1357244476826609
7.6396684740000005,-0.7461079832418288,1.1112666459208138,3.7076756645176796,-3.7624575737922688,0.2312298923707549,0.15608460361684556
7.739670953,-0.9898906887632402,1.413050748018366,3.6233797886087498,-3.5404074917415747,0.21096317740682083,0.17334357329280842
7.83967323,-1.3372057710010505,1.5727676463349272,3.4223131729740888,-3.284057657794598,0.2331205395821143,0.17797084092188165
7.939668038,-1.7109617849623164,1.646013351345475,3.3014576365715573,-3.10281033751459,0.2521398458103071,0.18447948772193629
8.039667106,-2.0655387865322115,1.49922327762958,3.097213193982937,-2.840955918386867,0.2994607354325691,0.1889908598324447
8.139767548,-2.2204035326177816,1.4536048861643505,3.0613889192415784,-2.70878801771781,0.3572932326740989,0.19859895399703958
8.239683828,-2.561843342143323,1.275972501294751,3.019508914196273,-2.4263049185606125,0.394822756081327,0.21452083298485086
8.33966739,-2.809289698465131,1.0737718197345743,2.9618174123337226,-2.2546112295581526,0.41916621049077435,0.22285612755610207
8.439667035,-2.951693208133976,0.8277550606483727,3.094379680410918,-2.09204254623376,0.47621683448526736,0.21696675176261973
8.539666904,-3.079505032200581,0.4391458931707481,3.118772692824741,-1.8206765589002267,0.4900226164904721,0.2195873505808884
8.639663034,-3.1192950405209823,0.21974309624956515,3.0682596762054115,-1.5056384772220233,0.5007498053401701,0.21680736698583017
8.73966683,-3.117321157564823,-0.052869721707854755,3.2175248034843538,-1.3464114063830313,0.5112117701693526,0.20692621274733652
8.839677868,-3.0985950209995705,-0.39575295005112193,3.175272135314008,-1.099326614915864,0.5084971861573987,0.20285884464266815
8.939663719,-2.8984030880147564,-0.7320818456564978,3.2132454114496305,-0.8739727287701323,0.48274057286401273,0.19245215039604846
9.039674875,-2.6382259361497673,-0.9700253104714911,3.340333906385443,-0.5395643583778055,0.5106750482938601,0.19393196508626065
9.139727027,-2.322174591528356,-1.2391688060992159,3.2805039697424014,-0.4854717904637273,0.4422365934804315,0.19031887694198538
9.2397303,-2.0758851598979167,-1.323459959589454,3.2393563832076966,-0.2883301750393421,0.3797757122678573,0.1955094927675593
9.339692425,-1.7475230445060637,-1.338325714892987,3.258333677628428,0.033733055412713736,0.3960715154195576,0.20067913831625603
9.43967817,-1.4936358771792564,-1.2552191988219903,3.2394683359803653,0.19541593348946057,0.3609376198766399,0.20395883405908904
9.539673597,-1.0503620757379517,-1.1973455466456882,3.1469035710896844,0.5494036880706153,0.33994643029261845,0.20456354117617742
9.639682068,-0.8534803263673667,-1.0957512381919006,3.1556839169742066,0.707852153518525,0.36840381065193223,0.21125055636902526
9.739667711,-0.61504480518135,-0.880756107777011,3.134722318318343,0.93033152424029,0.41900951665294806,0.21292861473625616
9.839667615,-0.4004565646346195,-0.7631190322542267,3.1034234263722213,1.096958439678798,0.550955709999362,0.11567454999238504
9.939668216,-0.2254509166019931,-0.3552302198697876,3.3928096837728807,1.1264906168115967,0.58999752219342,0.02198339302779721
10.039683601,-0.11563120399373414,-0.07676856772201072,3.6183636846900353,1.1037203552543267,0.5768120125353543,-0.05631506426437735
10.139677181,-0.028834698012190775,0.32930143044783666,3.7675705499058063,1.0424483540378733,0.44154981512363856,-0.1007498306492866
10.239667276,0.23628383728837812,0.5902350400208869,3.6666090472221367,0.9672713988736888,0.34126594184619374,-0.14598292812556848
10.339668065,0.44795685728325263,0.9399055717769719,3.645727067357406,0.7662449790097634,0.29670571626709313,-0.1830573262338812
10.439688832,0.6689085008148599,1.2104826178082317,3.6791534907453807,0.6586448442289415,0.24242015543523057,-0.2007254532671762
10.539711617,1.0216314003394216,1.2593843896771262,3.308989355320021,0.35977411665911535,0.22961575443415522,-0.21600112921058184
10.639684773,1.232822435543401,1.5910143482588222,3.1961778876262943,0.10760428417759034,0.28191513089554243,-0.21092959496513228
10.739682457,1.5440342676624634,1.4056877180945362,3.1572311495851912,-0.08857985448595036,0.34761936349110206,-0.22245189945331414
10.839668163,1.9036231511371422,1.3985393916649418,3.1178585613879375,-0.3062400978904862,0.41586495693583875,-0.2335586264730557
10.939738336,2.1694165048932255,1.3170093158619212,3.1778570799386823,-0.5264372038180746,0.5063583980685634,-0.24240954349901125
11.03966878,2.399346161182946,1.0791757620900957,3.2507995871103814,-0.8194082072577337,0.4967118262786757,-0.2421960976860331
11.139691694,2.570367570282018,0.9480546656924111,3.2543308078970576,-0.9762689102713463,0.5057380669237945,-0.2352508198040805
11.239694834,2.815365508120355,0.6403712062801474,3.177948426130265,-1.1951946309010406,0.5035852888321957,-0.2336752887623808
11.339672461,2.9263275761383074,0.3376590824065067,3.256970803820523,-1.501612518702147,0.48005205290553615,-0.22619909635536792
11.439665873,2.794349768336641,-0.06762741724834467,3.2152613503233285,-1.6327459865808387,0.45604321902927697,-0.21523101748013318
11.539718252,2.8903409158043623,-0.3549785052584401,3.330374004126468,-1.8726155786602934,0.4505527130471027,-0.20497599448969922
11.63968736,2.7100271169890093,-0.6059991191847787,3.2190439998707343,-1.991775256813954,0.41039939827962296,-0.21644820947696009
11.739667094,2.5358068287649775,-0.9053406400644997,3.2467202595336624,-2.2984822363289235,0.36233335417064316,-0.22310547136054926
11.839670163000001,2.1991909104424656,-1.095692145136939,3.1524684822261286,-2.5096210554380165,0.3634760801142149,-0.2235170204618857
11.939671213,1.987412838380926,-1.2923365741965613,3.179649536141519,-2.76301265160339,0.3372426960841084,-0.23282107458881557
12.039667543,1.7015072887936964,-1.4130354056103163,3.073619424608522,-3.036809201845657,0.35184563333258767,-0.25034533127953146
12.139745443,1.3983036271730167,-1.4138972033443011,3.0853698705364625,-3.3231972814331363,0.3907012010777093,-0.25063653576351114
12.239675363,1.029360057784877,-1.3799354064919838,3.0276827546027913,-3.5248042397793133,0.45282934624795246,-0.2545617062595237
12.339674074,0.8459776158670852,-1.0767124513770574,3.0782143766769696,-3.7978381683313303,0.48963958401787055,-0.2427059651658345
12.439766369,0.631711356771961,-1.08495511842314,3.1492825241029836,-3.9383963465455087,0.5425365126126056,-0.2243222002492269
12.539676539,0.43011229993969435,-0.7630169121950836,3.1642198569251776,-4.210213467800711,0.6024439213044378,-0.1774232655907278
12.639668417,0.258826141014367,-0.3510619798804525,3.4072116546761233,-4.394953560373131,0.5887891055062882,-0.06398663648370273
12.739795167,0.09956545876352882,-0.16133921814214636,3.575031518275634,-4.326081425386391,0.5357877306461725,0.02850174842293262
12.839665478,-0.017113125455469284,0.20632656656625584,3.7363464127329906,-4.24962650627639,0.4310694439975354,0.08137409859600438
12.939666806,-0.09801541421964119,0.49936535804303067,3.788288299569691,-4.218642475370216,0.33677864282764597,0.11954579955799155
13.039666914,-0.37288815304957595,0.9047297836211573,3.6728113321629547,-3.9751117819246047,0.2822495639412418,0.148226599028964
13.139706658,-0.5950211356893835,1.089057309442897,3.6586388163052344,-3.8032016723412077,0.24645833075003948,0.17116311439821497
13.239743577,-0.9560190968054574,1.3011939395906311,3.332159304270802,-3.5468781960951463,0.2174821122892383,0.18207215966212226
13.339670206,-1.2696077452238292,1.3722897967813954,3.354244965228199,-3.3336913325907664,0.24509745574315908,0.18095338161717556
13.439671313,-1.6422004123542406,1.539861112513584,3.1789858048528554,-3.179263439601554,0.2751811413885545,0.18970646074892347
13.53966674,-1.8384946236893194,1.5949209331080174,3.144905020866107,-2.8469049806108027,0.30816931027597005,0.2003827679010146
13.639664018,-2.231008292816102,1.4634984428929079,2.974012139969893,-2.7164314583400135,0.35267588245335973,0.21418490416359404
13.739792281,-2.404598670388317,1.315586532415458,3.0701306454844888,-2.4500287680872526,0.3823799165427126,0.22426897354809888
13.839666861,-2.69085364797255,1.0666449862374305,3.0657522257078726,-2.262872818571379,0.4019934176136347,0.23329198949484026
13.93966711,-2.8606527409395954,0.8539978861060802,3.0884841418266555,-2.099658649183036,0.44543058756451526,0.23568472780177036
14.039670477,-3.099005785580368,0.510154351321468,3.02893558786754,-1.734984130537004,0.4829272567525962,0.23691474044742647
14.139666784,-3.011983963691751,0.3338059686915743,3.1061890226159687,-1.6556523820472349,0.49665647935591695,0.23261004000482824
14.239669223,-3.0518544769943547,0.029805673169679477,3.192418267613424,-1.3412575324908513,0.5182455245012517,0.2202209430551942
14.339669347,-2.956121446256379,-0.2840540037826129,3.196530207883992,-1.240196598810954,0.5178249780918434,0.2168549007806545
14.439669488,-2.8165038366582005,-0.6501446965313469,3.3088828194690425,-1.0331815507172473,0.49586968210937454,0.21015003549116454
14.539674192,-2.5691311740582727,-0.8561267098536536,3.298051276455273,-0.6860062261824225,0.46968484034669145,0.21771468855781867
14.639669526,-2.284340419525417,-1.117106054972072,3.272640194205498,-0.4774973762064709,0.45219253816803967,0.204424613631609
14.739668328,-2.0473914995594913,-1.1695474461018458,3.2525828375146033,-0.29358960391791816,0.3993240120127718,0.21391599062237293
14.839666922,-1.7696180298261295,-1.4251206959214275,3.2178424680136213,-0.029155265263245203,0.3632998980292356,0.2161040406800191
14.939669351,-1.3748265581094599,-1.312136005475342,3.071651278410795,0.22519286427820565,0.3425914247305094,0.22150598360874377
15.039749367,-1.1700485955134006,-1.2048293677927648,3.0692720784103535,0.4363957233300683,0.3416493212540834,0.22527215155545566
15.13970008,-0.8941215486929995,-1.0728259765352202,2.946347069188558,0.5363678184683639,0.35774884303395205,0.22438673514289542
15.23977708,-0.6070199781555331,-0.9874185819245846,2.993281791541621,0.8764190131013054,0.4293419065546337,0.22142983653478202
15.339793294,-0.37592259471419176,-0.6587170862905615,3.108393640930269,0.9982311309656077,0.5524262561589982,0.13455166270809218
15.439709834,-0.3086572197356181,-0.45011223220645885,3.3891192256060405,1.0472010571472692,0.5900687980969124,0.044782396301906946
15.539734287,-0.15292727990543437,-0.11266281306112363,3.523621321166854,1.044852192600431,0.5467552470837853,-0.03251702855168325
15.639771901,0.03743829871426349,0.23552252800863743,3.6753130846421174,1.0455797108526237,0.4663878552700094,-0.0913348765792876
15.739669142,0.26319712117174443,0.5693607993427791,3.7172995781520153,1.0523946069681644,0.3584810468513409,-0.13407536902665432
15.83966786,0.4245361148713872,0.7978783286242171,3.662298499180364,0.8754477198371022,0.27210065189357857,-0.18616963621779511
15.939678089000001,0.7740789844697931,1.1076940687603094,3.501771193284583,0.6838537580895457,0.2301024519418489,-0.20977524819643342
16.039687992,1.062098000129025,1.199209326894687,3.4040866014783777,0.4322682185169838,0.22133118601191487,-0.20933381606006501
16.139687874,1.236303045308974,1.3471952248463428,3.2957477295195137,0.19250291427908328,0.2705602878070791,-0.21760704199986491
16.239669262,1.6455971335915336,1.4677356462611866,3.1707079541667036,-0.06159592665880914,0.3318778438115778,-0.2339700722348636
