time (sec),x position (m),y position (m),forward velocity (m/s),"heading angle (rad), from x-axis, positive is CCW",throttle (unitless; -1 to 1),steering angle (unitless; -1 to 1)
1.035319117,0.8468371730815775,1.125794953967611,2.944078802251931,0.3803475941349354,0.3571293493768283,-0.24159882479898895
1.135299298,1.2424446638739537,1.116071896207548,2.9718776263791002,0.06088795406264198,0.34512113915958886,-0.2511379010759108
1.235320764,1.5161856173352952,1.179564127469985,2.9555560593739423,-0.09553515461274772,0.3457132338261226,-0.2490114792909961
1.33529865,1.7169968119242753,1.2482733170313884,2.9749349526688005,-0.2389038760523064,0.3780318866977476,-0.24652316549445952
1.435297878,2.0353984530534333,0.9649669372819357,3.0008189572746273,-0.5481445021694222,0.37140604888838985,-0.25068292445206963
1.5352958970000001,2.233145864197658,0.8470877036884702,2.896950284313555,-0.7618498490602154,0.3633049267106672,-0.24370548819189103
1.63530387,2.5265912616345796,0.51401119964419,2.9331038937078002,-1.2265050504267927,0.3664081147480649,-0.248830533783581
1.7352960290000001,2.662555835461069,0.36044260683379786,2.918113472483633,-1.2401206760778654,0.3583775406221674,-0.2533216297224284
1.8352962879999999,2.5349621525789052,0.07175186233863444,2.8416506484620783,-1.4959467039815162,0.3530189750212033,-0.2490269337299979
1.935312046,2.584560898376645,-0.19741571571617017,2.905160415535766,-1.7328291510684373,0.3603878672388878,-0.2503612297642636
2.035404672,2.5886020750348187,-0.6210065752669012,2.734321415066925,-1.9130687628206031,0.34762531638444805,-0.255437870269584
2.135299056,2.4534210919605846,-0.78262286027565,2.853708481689605,-2.198705156786494,0.3379072003095585,-0.2536912068118315
2.235303542,2.2484839747761756,-0.99890072842834,2.7691614954526567,-2.407603130865394,0.35970921714027193,-0.25192603142149245
2.3353225760000003,2.000079059620508,-1.1784341001430907,2.848734322706264,-2.7083950809499027,0.34800060175797987,-0.25367161359335844
2.435311808,1.736920678320164,-1.259748778608511,2.811556903235141,-2.937931213416251,0.3532428796949554,-0.2674666071531959
2.53529438,1.4661523325854584,-1.3483348297075364,2.9115639185422104,-3.153196620449381,0.3769580237712011,-0.2690242963601679
2.635299434,1.1666330402947354,-1.370583394845519,2.8807639727843295,-3.3196127648251004,0.40845927607079324,-0.2675232287373094
2.735298465,0.8361052055911805,-1.2174343232592633,2.8008271887138463,-3.651923439626378,0.3129126499635611,-0.26217210894788834
2.835302434,0.6397914546179291,-1.0940265470856738,2.723140132739831,-3.8313006201377298,0.367855955242122,-0.27313963210654907
2.93538787,0.49312737383407595,-0.9530829554355252,2.8944117972401404,-4.119380685917009,0.47977905338128907,-0.24332332904696602
3.035295572,0.2512954737443715,-0.6512852915265239,2.941853753599888,-4.32940580038408,0.5187399624994724,-0.1471042759573381
3.135298475,0.19288078073427462,-0.3274844745970123,3.2329986156895485,-4.173383825929304,0.49092237453367854,-0.04016208402292331
3.235312228,0.15143832330946658,-0.07885703985084112,3.3803184114025857,-4.254719543662349,0.43881046948843533,0.04348714588712768
3.335296945,-0.11553868527652437,0.27135623873113623,3.4259996296432447,-4.153158294139167,0.3491403524503881,0.10068144457830565
3.435295857,-0.20165973760061384,0.5804989201731251,3.4690452829138225,-4.080900038405169,0.29311381947509496,0.13964014119997228
3.5352988080000003,-0.4699768576315422,0.803476269879378,3.3808159751584874,-3.9514180098700233,0.28630686078179324,0.16571741320858974
3.63529635,-0.7211538463119529,0.969483073302121,3.2821009512052552,-3.6485183772967114,0.25896275275012953,0.18314920580970093
3.735294177,-0.9494939325095897,1.220044194271035,3.2194269444601535,-3.4206385033036444,0.2623281820542757,0.18857079161857576
3.835299192,-1.3247718241777546,1.2690658186615917,3.012776619094642,-3.290217819281208,0.29850528122067344,0.18585347856004436
3.9353165050000003,-1.697960155397397,1.3301270586278777,3.049491906667515,-3.043587450348279,0.3187916341255658,0.18442377127341
4.035301896,-1.8860202294554056,1.1760863856895332,2.919851980169075,-2.656336837392645,0.3237392273595402,0.19913555647021516
4.1352993829999996,-2.1663709246169223,1.0868218121950184,2.937872713909793,-2.4998772917510665,0.3386015596650279,0.1963819360982307
4.235300768,-2.4374035839305224,0.916343546193455,2.948453336748662,-2.3124188766736657,0.3502029697214913,0.20627694057332063
4.335295026,-2.7321299500882725,0.7003836698559669,2.875610722704874,-2.0865660813732436,0.34250298939800455,0.20917184266222277
4.43529728,-2.716543839100838,0.354807713193295,3.01496076619182,-1.9327537283569087,0.3543048259476634,0.22557023553816394
4.535362264,-2.9240128210037444,0.13419938624441918,2.8741298296634343,-1.6123314498831205,0.3644220813695527,0.22989155824673743
4.635300865,-2.8126160598290686,-0.30620151496995573,2.941349143066935,-1.464750399346966,0.36619157240208944,0.2183573676585693
4.735394699,-2.7475630480563633,-0.4971301310970807,2.9105028244998703,-1.1912888876204362,0.3921232162954069,0.22074777159049594
4.835298953,-2.5605664302773525,-0.7047089235661704,2.946988221743774,-0.9540680558172047,0.38662311339864924,0.22585371945677965
4.935297144,-2.3962019396983596,-0.9691052191451096,2.90509735036082,-0.7323302091189742,0.382556881583129,0.22341002201682714
5.035393742,-2.194835902413498,-1.1437403670753157,2.972082010591129,-0.44361141748028976,0.38524122018726437,0.22147624480242584
5.135411258,-1.9609187563005226,-1.3159893065672028,2.874906610359611,-0.3297162089613641,0.3861447466446314,0.22132248439452598
5.235385813,-1.631683693921577,-1.366682469624062,2.8934538074648417,-0.0928625414238144,0.3674499463449361,0.21066834992881686
5.335300645,-1.3947622798127028,-1.3302171672533105,2.9396891720528173,0.08672691540774081,0.3724634320221211,0.21963793029192322
5.435297594,-1.120763709756303,-1.2700767859348823,2.974138387412581,0.39271729206774914,0.3833725755831338,0.22242260705314454
5.535438258,-0.8931301823519208,-1.1456778429667862,2.9411790972707714,0.7372888906178603,0.3706653527698769,0.2097038927309787
5.635311344,-0.6109500351506335,-0.9589363096329433,2.8374294226408914,0.8731429803161227,0.3776745462916814,0.21981116952921165
5.735407316,-0.48576696364216376,-0.6947792821565848,2.952334880536377,0.9680924884276959,0.3962254800980972,0.21942031396082268
5.835295627,-0.30052225604257143,-0.5534018821680875,3.008938267308693,1.2255593556073667,0.4453373888995279,0.09501714002195193
5.93531084,-0.19801931688256635,-0.1532064684863283,3.1677646321176525,1.3228748193955777,0.44851793944140916,-0.0319821168072309
6.035421174,-0.021232867622722605,0.17270181500954607,3.223170945077003,1.2504371563807009,0.419380471428306,-0.10151131294027813
6.135430663,0.10572428268058756,0.4675868277189814,3.397799994568432,1.0545878219691966,0.3579267868488284,-0.1598110250496209
6.235300297,0.21049694239517058,0.6458577152390024,3.375518541695083,0.9653352409751305,0.3046334860022979,-0.19172507719423382
6.335402727,0.4022882667488587,1.0509904422292675,3.228892480065392,0.7675810015917592,0.303447683935316,-0.2053278858909716
6.4352979470000005,0.7345278510798058,1.096467152813774,3.1667261354920786,0.4544577385015817,0.2978504657128135,-0.22275416788170363
6.535295991,1.0141545387734296,1.284045833770818,3.1280528801002907,0.27213831347605544,0.31353205197468664,-0.22342738210430527
6.635348174,1.277926475785583,1.3094680018832772,3.0198555303400374,-0.04472495038419057,0.37156354736220343,-0.22875693037383102
6.7353992510000005,1.6042127093350704,1.3733509321784092,2.998509873345802,-0.10590192836306697,0.3579902827051742,-0.216364468075179
6.835301074,1.9193673292903097,1.1926627994081709,3.0112371964294216,-0.3637185284513463,0.36862347808105655,-0.2354259675325361
6.9353029930000005,2.175037844751478,1.0939670857717023,3.0528038268604742,-0.6382609727798726,0.39804454547938245,-0.23875280230799503
7.035322226,2.369654662257465,0.976021638045197,3.0886805389630716,-0.8929093784822721,0.3737161666314216,-0.22852454374621725
7.135325592,2.5919126113467206,0.7330804705735152,2.9090242255072214,-1.179414454460417,0.36950748616898876,-0.2348886137022192
7.235296076,2.6830068563271423,0.43961851162521937,2.9499701305188077,-1.188765396853394,0.3856803793673514,-0.24017557977275786
7.335307244,2.8106463828950456,0.0813690037000768,2.968818178630458,-1.5620563955896234,0.3663301716214378,-0.24533187162393094
7.435299617,2.693175496556833,-0.174617177562423,2.9704614760740826,-1.715300154734643,0.3516714775306782,-0.23237624195078252
7.535300343,2.554875891948747,-0.40611542342490103,2.9251014393014816,-1.8830996428499063,0.3776667800401847,-0.23885333949358584
7.6353542690000005,2.512796763255018,-0.7426672474498677,2.8348309846522293,-2.2591836613879748,0.3388637288475444,-0.24211414911627427
7.735310968,2.198149978649989,-0.921687285130427,3.010372208687337,-2.4710470079979974,0.34039118934501555,-0.2406804660470144
7.83530966,2.018925794059981,-1.139069867347049,2.9417707987115564,-2.650228395893836,0.3487497618890796,-0.24247698518324104
7.935394121,1.7602401230876334,-1.094801388618214,2.8305563196515275,-2.742654250662441,0.3542417166562292,-0.2530679236956535
8.035376039,1.4898403004284368,-1.3265689450311253,2.9224833956662835,-3.0942836285499093,0.37315616368102755,-0.267842248369215
8.135419169,1.144312543847038,-1.1577208883121237,2.778686719903888,-3.420899288928366,0.39398695427259045,-0.25523096325642386
8.235358072,0.9263746404215746,-1.08041305834409,2.8123903927834277,-3.5634525185805956,0.41328118642587847,-0.25745017969692024
8.335307688,0.7594108443598164,-0.927602236906373,2.8921113372874423,-3.8406104428270225,0.41880679567222434,-0.24733764014376788
8.435308779,0.40458868163305306,-0.6853077292082943,2.971589148091952,-4.077318655966587,0.44579036008080136,-0.2266635276805519
8.535313998,0.2510325900017516,-0.46833147379168794,2.97279732447645,-4.329384963628163,0.46941816357518584,-0.15591031540130545
8.635298451,0.1491746346853072,-0.2266924669826112,3.222489555415111,-4.274908082354378,0.44189066165868485,-0.05242377501156706
8.735299651,0.059300928741205086,0.009445121872728349,3.280724055526551,-4.277147345749393,0.39006204109970166,0.04374189672312443
8.835304741,-0.01710644370480588,0.3822262903879557,3.4564568587351827,-4.1023486254431,0.3406449427065957,0.10364158009752267
8.935297035,-0.29707935312857364,0.6806092277427336,3.337459331778445,-4.072938856430402,0.29734502499585735,0.14987661896379684
9.035307131,-0.46951999314759035,0.9046870229649696,3.336687997940609,-3.853338662728929,0.2722379959593083,0.16418772058107486
9.135369356,-0.7719697880795031,1.2338112164951918,3.361670565428167,-3.6453495927982686,0.262206495274427,0.19605556129395182
9.235324804,-1.0592502809021083,1.320154193704618,3.1464869797906516,-3.4269498787730366,0.25734607175619534,0.1916054835705075
9.335312819,-1.375914017953031,1.3618703660728972,3.196864055887527,-3.291918947365521,0.29207222240216874,0.2005244361756003
9.43529904,-1.6666540261383194,1.402525614134552,2.9715250350584346,-3.005503347731161,0.31178824781777525,0.2054548180699058
9.535396649,-2.002946207380295,1.4078620863120606,3.048631263013714,-2.8636822137012667,0.32327298481537164,0.20125871124796446
9.635298393,-2.2960052363552146,1.1760069808656362,3.0359953593430125,-2.5840167280791206,0.349729982033502,0.2162633233526241
9.735301196,-2.505282282012584,1.0986679992528603,2.9078854277951893,-2.3111623163660244,0.3487595440234356,0.22782008071076199
9.835298376,-2.7412224021985,0.8262228594471079,2.916391484357434,-2.072185293084873,0.3454734996564514,0.22592473197001317
9.935331416,-2.7924449879282482,0.4519283056185429,2.969798648980875,-1.876275096485323,0.394569477880935,0.22740969905382855
10.03529855,-2.9718669228999572,0.26165892242471767,2.91519942597932,-1.6918924948921392,0.38491397534739635,0.21863996181534587
10.13530049,-2.8574334024593377,-0.07309234584881849,2.955014710586005,-1.4106081973243554,0.39565460749880904,0.22114287620476672
10.23530144,-2.90034768523645,-0.32569837996806306,2.912407926226945,-1.170544179270552,0.40888145889613964,0.2170608071906755
10.335409673000001,-2.6949673085433616,-0.5674620932218386,2.982789014192336,-1.0426560153652156,0.40154263764644904,0.2270638692270235
10.43529874,-2.4623121636371943,-0.7946616157998007,2.968410190300756,-0.6639425129315044,0.3859647686030121,0.2216849980594512
10.535404871,-2.2307176563120383,-0.9719223478272044,3.0731072875186385,-0.5748381380086803,0.38743948583842847,0.21419411774856623
10.635351793,-2.0417513639746603,-1.1364322183776174,2.959629551228533,-0.34306515775789626,0.3764817500686099,0.21980421181695517
10.735303372,-1.650020093236102,-1.2417469132252348,2.928921006659547,-0.10659086967669083,0.36272540962099775,0.21679495647583547
10.835343281,-1.3950888375364237,-1.2673523394523145,2.946211823349548,0.1139382572808765,0.36071448003655543,0.21347373497826275
10.935313374,-1.1802710188183168,-1.1555242345518772,2.9850126390136804,0.3882735433312487,0.3489242993656043,0.2169372691237264
11.035295665,-0.8644092844649843,-1.0075325710590604,2.9209216122276573,0.5603117695864078,0.3568752717547255,0.2246885935945039
11.135296562,-0.6381039571840659,-0.8573049669038879,2.8795239901855796,0.778868370067612,0.3813984646376825,0.20873167963379263
11.235348905,-0.48849075351717985,-0.6657221917012772,2.9124451750901366,0.9389927293720508,0.39968547871454424,0.21312470101721703
11.335297107,-0.24954522404542473,-0.38848252508472864,2.934441713210592,1.297180012533579,0.43666069958380377,0.09925753584011061
11.435307945,-0.27693627652710184,-0.0702669953432955,3.035085787113839,1.2456669428045015,0.4564337919060723,-0.01824247817481811
11.535298533,-0.041515964195862586,0.20774016301177117,3.3018940999479844,1.2454858732225411,0.43910887742312543,-0.10046369930650073
11.635296174,-0.00528071456146547,0.4378715195306069,3.333144649934727,1.0162053799698898,0.3513934059721249,-0.15832620713361895
11.7353027,0.13539292017910276,0.7749594546510922,3.286523851948919,0.9278545509718543,0.31201390810354496,-0.19370209996761448
11.835315238,0.38398102484043617,1.0700082385973575,3.2482748210745833,0.7587160890855054,0.31450505352452635,-0.2109048795031737
11.935299001,0.6627537365660034,1.2348419747475954,3.110247448380139,0.4832874863061466,0.2973927551992871,-0.20761880928697338
12.035317646,0.9809348375162924,1.2651376335665867,3.1395609018908406,0.24346721889510883,0.3170257515116059,-0.22080158330861696
12.135422081,1.1999691922234093,1.3836053474013315,3.104681304186826,0.04261458406764319,0.3555096134944185,-0.23425742945609218
12.235297511,1.6368950159648195,1.3437304594923518,3.051792779527543,-0.12876867857477253,0.35522611160818207,-0.2307861845866855
12.335294953,1.871120377809576,1.282831948846088,3.004073578572032,-0.30676935707504643,0.3653082497306787,-0.23280664617749822
12.435299174,2.070693238358958,1.194795296120192,2.990278244613121,-0.5451418877188844,0.386281584130914,-0.24181805425825736
12.53532975,2.359369692120669,0.92981479410213,3.0509972447720695,-0.7670427475444125,0.36467412360470713,-0.24366451271740255
12.635298027,2.58619947934647,0.7812717957607085,3.076591527200388,-0.8950111100627773,0.3598817869923966,-0.2368842166995857
12.735396638,2.721971486996583,0.48183118805539166,2.9841166522568527,-1.2436801115462117,0.3733189103801758,-0.2473108526743352
12.835298011,2.736475083697309,0.10423218696485917,3.035532635572451,-1.4263254270665404,0.34497146167239195,-0.24788863359313928
12.93529697,2.76356011630064,-0.20310597147690515,3.008515155199312,-1.7810621413462602,0.34298067836359986,-0.2498252653855063
13.035299604,2.6427180849734913,-0.45241639282278184,2.9816019771599227,-1.987489297198843,0.3499356976638182,-0.24380799542979611
13.135401818,2.535525893015971,-0.6943747493554201,3.0054726545362804,-2.114072512750017,0.34096941241916745,-0.25196990276891224
13.235362082,2.308856341615575,-0.9395680899378068,3.009416287829523,-2.457814173448408,0.3417519278246934,-0.24631341006315535
13.335372285,2.056035272315902,-1.029044826820235,2.8630533741788393,-2.683696403588345,0.35563770308286063,-0.24597954005405198
13.435320264,1.7873443642316698,-1.1487466625443856,2.937303629774551,-2.921565352748888,0.352021582201054,-0.25514944690625946
13.535300609,1.5272809059947898,-1.163889361318821,2.8516657305985382,-3.134467394649856,0.3621181315993714,-0.2570959650829942
13.635295487,1.1944337232043574,-1.174372933435849,2.960371338480143,-3.3947120860660225,0.3973373678889028,-0.25712907713235084
13.735295409,0.9138622328421127,-1.1531369284986994,2.9797949105469637,-3.73729174378478,0.4046566917507082,-0.2557496516865264
13.835295423,0.6771080633861487,-1.0075461112382202,2.8813107543783323,-3.8602782637868627,0.40338303880589826,-0.2377342033403317
13.935300608,0.5646075400667226,-0.643399892350392,2.8927015213999567,-3.9994179788753708,0.43398788454655746,-0.21369542313948198
14.035305417,0.2726214584807991,-0.5316258357680937,3.1115114167661004,-4.22541711917503,0.46021021002316126,-0.15139067873803325
14.135297339,0.22829068133768932,-0.17387327268515454,3.2239512479146977,-4.213100221360465,0.4461852079972957,-0.05000479761089713
14.235300118,0.07961271061573208,0.11888311574745483,3.396894604370038,-4.33902831877283,0.39473548955244875,0.03775073713976117
14.33544046,-0.08922647680178716,0.38576048360145815,3.4635783489381113,-4.1975148901545944,0.352146288663052,0.10210332526982956
14.435315952,-0.1296265306780119,0.6757286300749085,3.4542599445674007,-3.9574003690912547,0.28753701116943436,0.1470946823700521
14.535389733,-0.4667894740535982,0.8760398894576004,3.3211940580265065,-3.8409964430586685,0.2694543132751481,0.1735539380455964
14.635310193,-0.6396080396388957,1.179456624109934,3.277719630916745,-3.768484743498796,0.2642843305315726,0.19520040182867174
14.735298319,-0.9818216299549201,1.325693682907759,3.1583952979544656,-3.470677497304231,0.2667912409523388,0.20558234648563442
14.835306934,-1.221725467769164,1.38340444239025,3.082780808959765,-3.2347476240040955,0.30426657433778426,0.18738896157486182
14.935301304,-1.6543588317371656,1.411427388375778,2.9882530754789167,-2.9348932584677203,0.32346659252885607,0.1982879256826404
15.035298186,-1.947255885202877,1.3256344552748978,3.090676407866934,-2.722998379099247,0.3274869382286968,0.20378267018091786
15.135298472,-2.097762548149626,1.1991487165792019,2.885441479238218,-2.6399753857548713,0.34717238112391113,0.19737534076239344
15.235311238,-2.436797439060082,0.9919816389740521,2.9269124512415803,-2.351166799727554,0.3523723517185859,0.22248451025233976
15.335299296,-2.607456277231464,0.7709115311079012,2.934546491579845,-2.118489552580704,0.33589634690624626,0.22774589057346495
15.435301424,-2.7396809583450192,0.5854930288635652,2.9285727282508947,-1.913482669941923,0.36426456097194754,0.22813286444903788
15.53531182,-2.8939085461953282,0.18642390103252277,2.8977081151481596,-1.6260717064999057,0.38345146686198744,0.22843060931555126
15.63531042,-2.8491595714842552,0.05657927256134912,2.937599858699987,-1.3774078258668432,0.3837734986722803,0.22093914977500553
15.735303477,-2.6758925578964314,-0.3275466182183812,2.9064978036912232,-1.1376362142734933,0.39196347167848733,0.22624586660063833
15.835301951,-2.6006075874573717,-0.540506971988628,3.0071880203252492,-0.9276662417058019,0.3868767080983935,0.22854717790642623
15.935296483,-2.436516868924828,-0.8993936635376747,2.967073801994904,-0.7163096471906739,0.3764341149566071,0.2279958473104854
16.035387323,-2.315255577288884,-1.0161577703425353,3.019161886579956,-0.6766264022123514,0.37579115446587175,0.22388712429249036
16.13531222,-1.953500410540135,-1.1689930867460168,2.997776290511954,-0.3838797528036462,0.3887327910788194,0.2271510281437972
16.235300875,-1.6048449173079944,-1.3000397948054825,2.9541191716573882,-0.16228427706115628,0.36129840614463016,0.2220764407836689
