time (sec),x position (m),y position (m),forward velocity (m/s),"heading angle (rad), from x-axis, positive is CCW",throttle (unitless; -1 to 1),steering angle (unitless; -1 to 1)
1.123891418,1.5221968176242975,-1.284579680174394,3.249178823431597,-3.086532833218371,0.36183682689724567,-0.19546414021359176
1.323900127,0.8760866023424795,-1.1706250018190372,3.069295420518482,-3.678857793294388,0.34562751058453783,-0.20131987138537916
1.523835315,0.39645426485342616,-0.7058437943420124,3.029994067543967,-4.100048526331268,0.5012809059243929,-0.1776347802709986
1.723899434,0.028167432425658043,-0.1423578791999831,3.4603102953491085,-4.234735406252811,0.5899507533721106,-0.006806352589734996
1.9238877030000001,-0.1656066176748972,0.4800166198347678,3.6640992056158925,-4.154160315057928,0.389694073438604,0.095616870583415
2.12392277,-0.6988559397922661,1.066122167287361,3.5371251630613814,-3.839977613996841,0.2469111014901089,0.17179021518222318
2.323897402,-1.3432091581739247,1.3560177715652375,3.3437961493279893,-3.3799765490926106,0.27419935784739297,0.1911175556863233
2.523904057,-1.9112392581740523,1.5244346287016073,3.1928723500263234,-2.9694164835665844,0.35226702512084956,0.19319283846262575
2.723914732,-2.5272910090729135,1.2828816473323341,3.1579654908707275,-2.5039920439197147,0.4440699987339525,0.21135076688606774
2.9238251330000002,-2.9863135063838038,0.8671528322396144,3.195063668758305,-1.987306467893922,0.48570498608759316,0.20511166536467632
3.123831189,-3.060033119316118,0.128774546764909,3.2698197515310437,-1.5940727758680706,0.44349782103526675,0.20923955189993376
3.323913421,-3.016954749677047,-0.4147017965378013,3.3037151734902652,-1.1021121295367184,0.41255322098274466,0.20705622444385965
3.523825034,-2.6919253475512908,-1.005447790194727,3.174503772456278,-0.6864670208956638,0.3934291612372856,0.20935089816066121
3.72383299,-2.090680669552769,-1.312555191856715,3.1227780078452536,-0.2507048462703685,0.4399001551416105,0.21345226719796231
3.923831736,-1.4018522721304911,-1.3103409022048929,3.1964219423109186,0.22806676103272494,0.46056832161746464,0.21020151075463436
4.123888654,-0.8948335649168683,-1.0582603293242046,3.2917877310187524,0.6201459232052393,0.4425149394312269,0.20058155985781487
4.323889752,-0.5290003706046377,-0.6094632860671029,3.4135822892474637,1.116022495190383,0.5399668454669778,0.11682518861085464
4.523829362,-0.13986627996943327,0.04885186322073,3.70850083040807,1.0868704329109584,0.5294603748615953,-0.04765365164739304
4.723853195,0.23631000746525838,0.6755996280256211,3.815510119898199,0.8890314864686689,0.37462466207528705,-0.12203656904740848
4.923901681,0.7524967150418611,1.2435396999513963,3.7314633286263437,0.5703428228941955,0.3032077624566941,-0.16075925371062033
5.123830979,1.3411228714702879,1.6146924360868211,3.359896409240883,0.1874914661173144,0.2662257025884697,-0.17600324873587356
5.323870027,1.9768843887564616,1.5463463568143592,3.0286302823293605,-0.24605926715345955,0.29579083705381876,-0.20104160742861263
5.523846637,2.5163701264299183,1.3327161305165716,3.0499440224560237,-0.6970098830752831,0.42488817843738985,-0.22659578313545692
5.723830989,2.930003243223798,0.7962349547692072,3.053843015028111,-1.2232218732180793,0.5612678496694548,-0.23865299809164212
5.923881412,3.029067902175773,0.23879670738582248,3.2411151438217947,-1.6262226221648306,0.5820628597557965,-0.22920255542225043
6.123919588,2.877635855545023,-0.44954952528766023,3.3008863465292237,-2.050532404305967,0.5392632570170872,-0.22071403343474638
6.323884852,2.5069926326379917,-0.9597558347010672,3.3130767011655484,-2.4821782473639304,0.4782953258778259,-0.21269570808091634
6.523837545,1.8544821342464366,-1.1844507741987442,3.236260338643003,-2.920544243417916,0.43165437014556446,-0.20627111381215735
6.723834777,1.2948297117851728,-1.2700669079428502,3.130394883091802,-3.3531040082246526,0.3532594823742309,-0.21334414528075396
6.923837078,0.6899700369981429,-1.0086871185275328,2.9778894841583012,-3.7607460579773484,0.36441269723950936,-0.22621329316457103
7.123876418,0.30856846599454313,-0.6128788189431041,3.2202314933311116,-4.142028354604349,0.6201618599483822,-0.10707717206269234
7.323865305,-0.05617226100848424,0.037384270761027155,3.6011811024270104,-4.24243407750334,0.5029060792520981,0.03911548239112988
7.523868443,-0.3617531730846713,0.620667831006711,3.7158174657702068,-4.052659916625721,0.32830665112247326,0.12564022920644663
7.72385912,-0.9540024113261094,1.1176621645246985,3.5395066598506357,-3.6491655175348257,0.25716170853668946,0.16539780041036123
7.923846141,-1.5930408462036756,1.3959748224269801,3.293674844342895,-3.1606510032254054,0.2856214033799147,0.18555572334378448
8.123871127,-2.2518698676640523,1.2516150448045684,3.1434771331530857,-2.6769726888279672,0.39172902400241855,0.18877150804370452
8.323830296,-2.677460279862991,0.9165796977174768,3.218176731610959,-2.272475108762553,0.4587674469825166,0.20415931383576988
8.523875513,-3.0183314549450966,0.3123564773577981,3.177442512373603,-1.7968001957562332,0.441776389450672,0.20101647303433592
8.72384124,-2.9971795244211377,-0.2771672812902575,3.202761709255166,-1.29327722334565,0.4128455280893044,0.19430858636514678
8.923835778,-2.7876098002364422,-0.9303731827740878,3.22724582453199,-0.8181959871570784,0.37114710816922747,0.19391067112166208
9.123836794,-2.273303031937425,-1.3363379910898534,3.134455702410555,-0.40295240578027264,0.41947077299209673,0.20645255873292914
9.323825616,-1.629519504082831,-1.4397783366141659,3.2310004532504757,-0.004274420760785866,0.4671078961469232,0.20667426988801835
9.523830068,-1.0832845764658638,-1.3321877074298156,3.2721610570397592,0.4658014727632182,0.4533014052547622,0.21568684126625798
9.72392246,-0.5030156415668675,-0.8877026850171618,3.3779756539953376,0.931646613529987,0.45418439077448886,0.1903504832687893
9.923834117,-0.16836625334814925,-0.36771541292707655,3.5511826935844857,1.1389345851116939,0.5592908616648254,0.02186974665813923
10.123826697,0.13506148836217294,0.3114654039622795,3.6921681369381525,1.128826345223839,0.4469754870414658,-0.10132202764907697
10.323888901,0.5800518215855555,0.9332610183129384,3.75050738732558,0.8436683156968892,0.33784835866683033,-0.14900747686040144
10.523830674,1.1125561770571442,1.3894441955196792,3.4122265152810805,0.34989881627042996,0.27835873592505844,-0.15743814174154175
10.723832634,1.7808447480670477,1.5283578301297622,3.2716602220438986,-0.06890961810847476,0.2821977012563256,-0.17573377751117786
10.923880082,2.354980224546214,1.359611397273462,2.9909909665998913,-0.3997112273278519,0.34275876031359753,-0.21477864277957892
11.123853304,2.87172011075718,0.9837668884686807,2.9276135555985303,-1.0041247587218634,0.49087440955022804,-0.2420168732172032
11.32383392,3.0180888900120566,0.48204393533665607,3.0777920697438264,-1.4090703271409277,0.5921394658259872,-0.23571836617580566
11.523899368,3.0828675470831164,-0.14844304228037808,3.323431629186599,-1.8274866855652883,0.5895415035324898,-0.21650777553375194
11.72383635,2.741687125357057,-0.8411298720051219,3.395171383236086,-2.2847431699956684,0.5123761567712609,-0.21567593218523348
11.923878517,2.1910823129655546,-1.1974633139128048,3.2930914504365556,-2.720203714322856,0.4631577617001858,-0.20187056026831893
12.123835715,1.585303339276002,-1.343880238499136,3.1771693916786523,-3.1477756142494258,0.42821018956797047,-0.20908306501574916
12.323836065,0.9453762272594464,-1.2597243114323848,2.9742295842059767,-3.565875951935003,0.21117175417597384,-0.28474389159714925
12.523834303,0.5814562196751633,-0.9101403321695786,2.8721919283977337,-4.127825429191036,0.5471019577471002,-0.18047141647721268
12.723834026,0.3435611802072871,-0.29429904703022963,3.4535645753245228,-4.287561585318415,0.6068811006908864,-0.006546699876203606
12.923891449,-0.08191719331895411,0.2819576594058525,3.6984962146504787,-4.121303749920029,0.4056403827209645,0.08875300195264245
13.123836998,-0.5209114450695773,0.8536131214200549,3.6501759706344603,-3.858852479205273,0.29440655461904497,0.15235792450614977
13.323829486,-1.1210687002712185,1.1778011070851329,3.4702277235322083,-3.4146817030006518,0.26812998988264725,0.17031653207248185
13.523866038,-1.7822582166850542,1.3244573547894507,3.1834939539015306,-2.8540906603328415,0.3422917080298629,0.18864952954687844
13.723837235,-2.462130570236609,1.0819548246919715,2.7726936543662024,-2.39821384259623,0.17361604387186502,0.26775696281022693
13.92383276,-2.716989980332992,0.6161999050722361,3.211918421406911,-2.0460836223414267,0.6011038127004529,0.17390118818269565
14.123933947,-2.8194389308146706,-0.02074562832084878,3.282338264072234,-1.5712825296625996,0.4292854458714388,0.19657920720274918
14.323891538,-2.716565110278824,-0.6960790973741275,3.311273741003217,-1.1437110654310336,0.3516047200244136,0.1936985895291957
14.523903662,-2.4367260575389977,-1.1886881958043594,3.055665670830923,-0.6674991298282141,0.36736524745096616,0.20058643733545886
14.723867149,-1.7930460775775152,-1.430315067222193,3.1338295087387396,-0.20177892804213446,0.43178607323585383,0.21788297874329485
14.923829311,-1.099936042749402,-1.4470807408264872,3.232616000461024,0.22760585825856755,0.44308397700098695,0.20655619326897096
15.123887662,-0.6268119281386179,-1.2235959549986473,3.2103235107667136,0.7154109639660293,0.46327217908869067,0.19776494198035885
15.323840424,-0.25653781067766346,-0.6621232241987637,3.382808168454246,1.0964637953578495,0.5389642615288521,0.12857036958373616
15.523904419,0.10418259196824257,0.0027775814036678573,3.7015997151955466,1.2206072870607783,0.5104457370044764,-0.062369628219708276
15.723885912,0.26849768361621607,0.7032044342151113,3.821646294358851,0.9464195018032764,0.37170786072126105,-0.14049147562029868
15.923892388,0.8491390621171473,1.2446864967913631,3.5410015888625264,0.6516859520796672,0.3262880682091406,-0.16171885930952612
16.123833849,1.5103973716848982,1.5357405439289125,3.3391279600770187,0.21357406516700614,0.2782321467905438,-0.17559521759932364
16.323846903,2.0618623390620225,1.596818903265871,3.0154852825982643,-0.24567468258143949,0.29858851406024844,-0.20048722091495702
16.523901774,2.680661683603553,1.3671865045091602,2.9317881706926685,-0.7213594913405805,0.44096000613868835,-0.23564506443446184
16.723831235,3.0762858208656385,0.8044010793320864,3.0178522569799626,-1.2294120883542705,0.6102906974004313,-0.2347182192920177
16.923835076,3.093712005415721,0.18239748221167312,3.2299466684009728,-1.6401315000612198,0.5792801577554985,-0.22941909418210077
17.123830563,2.9999825752775284,-0.4335875320305485,3.325169984254694,-2.0314921286485945,0.5450523867770191,-0.2198010580110819
17.323833353,2.5155130584039247,-1.0527418833467062,3.3542420934495696,-2.5207944970666314,0.4872504259810576,-0.2123156482162707
17.523890427,1.9617265538398914,-1.2591569763777493,3.29619026477246,-2.9812815932713375,0.43261165660580614,-0.20205853329080975
17.723825846,1.3742332164681519,-1.2941485841261673,3.1503137362615843,-3.375257074485357,0.3472212257934103,-0.20939463170981618
17.923878359,0.8322226330430949,-1.0546326258972076,2.987074437459499,-3.8389949885359447,0.3878393719594518,-0.22110774003106246
18.12388096,0.3469443976601125,-0.6031660881393495,3.275980302111617,-4.183399142779486,0.5664388483713867,-0.11306574347968998
18.323886157,0.10368227377992437,-0.030152052176633,3.6226684322416602,-4.283964559065133,0.49272457717204693,0.03788054636946467
18.523832988,-0.28336664232201125,0.6587619361932546,3.7097305270894725,-3.997761796684101,0.3225269672548027,0.12788489919894783
18.723826262,-0.8578132656228205,1.0783556309993731,3.5254772948011,-3.706282927618648,0.2565562699754393,0.16717875741608593
18.923829897,-1.5952213695681488,1.238432565233085,3.2037957899164806,-3.200351405714693,0.2962589815452014,0.1742658820926578
19.123883031,-2.2336685207579383,1.2170643414184859,3.227122431479613,-2.649444745620347,0.38792900200675456,0.19081156602444796
19.323895219,-2.684153892633898,0.8723625321815718,3.2631340631756194,-2.2596211759363585,0.4429494645856824,0.20417904537882428
19.523831362,-3.011893218672477,0.17278694941374018,3.2675909978523268,-1.8831780178757698,0.4345044225401886,0.20095197257776254
19.723879975,-3.042790477231334,-0.4805638498541459,3.235385832414804,-1.2876705738417633,0.3794314780520649,0.2040315375400591
19.923897708,-2.846578927619532,-0.9073087004345236,3.140455846760137,-0.9287580674022095,0.3909376006290754,0.19718205119423468
20.123848111,-2.268488302198762,-1.3377392880419197,3.164341796529056,-0.44003485021214156,0.4210870037399351,0.20641450833917666
20.323839903,-1.7280045736843006,-1.468384753356245,3.1758663377297265,0.008357233733522318,0.475548397461952,0.20875490359019908
20.523833528,-1.0240253613270454,-1.3103975860045147,3.2610796297126416,0.43387185574260706,0.4653327580414008,0.18642319858669285
20.723834411,-0.570271038780522,-0.920457061273508,3.3078188126371213,0.912007378273501,0.49052072870515456,0.17106767849008944
20.923887803,-0.26510154641993355,-0.3496035428437979,3.625324137277744,1.261107839257845,0.5699705537700435,0.014305544396825269
21.123904458,0.07641632497584819,0.38277756817571973,3.763982883253154,1.116845121208568,0.4389058734964356,-0.10568998539369054
21.323878222,0.3999008475055481,1.0340827473967724,3.7437858050325588,0.8097095908937572,0.31281974880621355,-0.14693968135953023
21.52391914,1.0479098547006447,1.4531185684757624,3.4347308590777192,0.40813528954330647,0.2884648865412758,-0.16364310426039202
21.723853803,1.7168281731393769,1.5816689060843268,3.13923917864192,0.008853427379150583,0.290514431429847,-0.18606829505989386
21.923827805,2.279590834496648,1.4516605226110955,3.0322751470973532,-0.45488036323792064,0.3411804224239466,-0.22051222930627906
22.12382603,2.8139935592623257,1.0807099788848498,2.9658111234115068,-0.9591460147713149,0.4877512031294545,-0.23702064524083982
22.323890974,2.975563305438107,0.475714481682693,3.2144200932297244,-1.396452454324645,0.5825149393195198,-0.23670474804468236
22.523826621,2.978825354014915,-0.1151122050174587,3.314140733100671,-1.8111619588064234,0.5566400238789923,-0.22604243038396146
22.723827198,2.752839947478837,-0.7511845604539269,3.379037758091265,-2.267684866832989,0.511797766033819,-0.2200248222854364
