time (sec),x position (m),y position (m),forward velocity (m/s),"heading angle (rad), from x-axis, positive is CCW",throttle (unitless; -1 to 1),steering angle (unitless; -1 to 1)
1.122793033,1.5843610517336761,-1.133404290731219,3.1838609247331084,-3.2114564228984035,0.40240813970286354,-0.20619452714280478
1.3227514390000001,1.0255216872660884,-0.8779508900199109,2.9662374214891187,-3.6712010588480513,0.35604475798170443,-0.2010428768833822
1.522753991,0.5996629626683174,-0.4111503958928133,2.9599291490531416,-4.1009276625581235,0.46045927617993493,-0.1611354285448506
1.722751266,0.39397082604127437,0.03363523268177408,3.3527679991396786,-4.349638104164736,0.5463139360763564,0.01962009536316057
1.922740981,0.011728441794986976,0.6343939636463073,3.5957961126157,-4.208348944385137,0.38030853357170114,0.12925037113395157
2.122752986,-0.5401631005383184,1.1941811620691936,3.50081052892828,-3.79553295684605,0.29747551598536354,0.18713470095060084
2.322753711,-1.076264858528144,1.615517995780239,3.3568359521200515,-3.343691728519141,0.3677096109987004,0.19560824730182155
2.522748267,-1.6498770296332133,1.5762344024138464,3.285358300650046,-2.9094975596533743,0.41560227124107246,0.19834486212571661
2.722751959,-2.2961511959330045,1.322387197585864,3.3277588428992027,-2.530727900352541,0.43890059008653215,0.20034437890219786
2.9227456810000003,-2.733391429911837,0.8166478678307688,3.37694406691382,-2.076803372383967,0.44731579679419575,0.2102071260894802
3.122745715,-2.9679069957203743,0.1728003122694563,3.2504431366571707,-1.636737667739888,0.3474363276541787,0.2047896474824699
3.322762674,-2.825976802542767,-0.3417663472997318,3.130127139052292,-1.187746963189629,0.3125551250230177,0.20795008152874664
3.522744997,-2.5640407786935757,-0.8979355689336429,3.00341976905816,-0.7871920911717363,0.3375617008998835,0.21611625242993648
3.722784711,-2.0876128638803966,-1.213465711789951,3.0657682385478466,-0.3043976605687426,0.405813504781011,0.2402526723965196
3.922749528,-1.4693362369057632,-1.303398321970554,3.1598452879306493,0.12203215339719894,0.4656011288444462,0.2385898837762856
4.122749585,-0.822903340077251,-1.047384668145118,3.1863569445462754,0.6569082580613036,0.45753619959013786,0.22662727513952344
4.322748074,-0.34360705802456637,-0.6444779635856253,3.2802276912063837,1.0944521568842387,0.5358987281266008,0.1279582183595085
4.522749835,-0.14665330247517794,0.07744035207892255,3.6497279224797348,1.1298214409216136,0.5315290234574661,-0.04473289234355962
4.722740312,0.36812379283923313,0.6680062740844875,3.771061520516076,0.8237773579028103,0.3856763067332853,-0.11965934074157401
4.922745437,0.8060539089453799,1.1378600893304949,3.6138352877471362,0.38594338836613856,0.3506125705970202,-0.13263200478255543
5.122741498,1.5103216000195256,1.3116370807439397,3.3640920974112323,0.031769551476151965,0.3057145031423094,-0.14383844684885747
5.322769981,2.15229412039355,1.3191494343879013,3.0801832768626523,-0.357764992159839,0.29073453119702936,-0.16351439674981036
5.522742052,2.6707107592335517,0.9749615131196645,2.8757896259424967,-0.8305857858626552,0.3417911723121416,-0.1958603106659612
5.722742544,3.030329402173835,0.5136976907998984,2.9263645751981064,-1.244885028009788,0.44750160867702726,-0.21710167316039336
5.922744364,2.9402361126011343,-0.12941048692878224,3.0122065688879065,-1.7096302354832522,0.5010287414213462,-0.20925013292857167
6.122745116,2.8282821249376835,-0.6821075380839139,3.051349432912063,-2.2307859892252346,0.5260807400234203,-0.20443487228229634
6.322746164,2.372174225470068,-1.1655224189558564,3.164696607721881,-2.634366159613649,0.5013012133581674,-0.18725622209899076
6.522742326,1.6920008378811702,-1.2845076918426899,3.2646268536684366,-2.9978186724489353,0.4178619893728316,-0.18398265830928345
6.722751004,1.1473504859532258,-1.2253282905129503,3.103913301026301,-3.5604456887340126,0.36994402467945653,-0.1854506433611521
6.922742795,0.6958738943237825,-0.8997089313178543,2.992021717316524,-4.020553746988975,0.3885569254353527,-0.18911017219324872
7.122743281,0.2287879380942714,-0.3945707508620184,3.168415028003725,-4.277657787640601,0.525896439183784,-0.06708575699725718
7.322742334,0.056124332317114646,0.2898286242250643,3.446420292785462,-4.341086961881134,0.4657845557205117,0.09571583550825846
7.52274576,-0.2403187962280215,0.8835590239066762,3.5030761885955695,-4.033060952061719,0.3056401481890672,0.17524567824117152
7.72275189,-0.7528759466905107,1.3362882446847997,3.3594759051606715,-3.635086974220699,0.28555413646710265,0.20224793163080057
7.922746852,-1.4207196925756242,1.5263445633780355,3.2667866368525407,-3.1909313087492444,0.4147673525764021,0.1960607593394646
8.122752081,-2.0135474882988924,1.4259009944728573,3.1256216536363857,-2.7052718656888333,0.14302455140711498,0.22699453864645816
8.322747555,-2.4845963731862204,1.0292675143036814,2.965757593442473,-2.204401784618619,0.5229022682906463,0.20584667941677207
8.522740202,-2.7887609701985645,0.47873654996175025,3.2777502110628474,-1.8739975462681115,0.46621482430485167,0.18857932473218025
8.722743663,-2.811953397740708,-0.21001872855888448,3.1278713072684092,-1.4048653170415424,0.3199437691117665,0.20581469791354004
8.922741021,-2.5433622052282003,-0.6498639256654715,3.0717946200098245,-0.9149369575119898,0.2922297837132196,0.20598051641093773
9.122746813,-2.142242372063215,-1.1410472462918266,3.0354710996491456,-0.5033683998707636,0.36200755852195227,0.22874053324568971
9.322746663,-1.6501903677535352,-1.2563439754561112,2.9467290696444284,0.019212512448956727,0.43678356552655423,0.22843486412889222
9.522745383,-1.0207135374371996,-1.2073295197350695,3.1155259063672442,0.4384514179092921,0.4731066712190124,0.2275429180976111
9.722747169,-0.5354947741766538,-0.8196498391674786,3.2207697087332745,0.8969376943920554,0.49294107826731887,0.19531580983928148
9.922752505,-0.1740199338510966,-0.27499067872650207,3.4781512462178745,1.163778190815515,0.541508856936422,0.026795197655644514
10.122749696,0.11276248343952637,0.4090376310019534,3.7567851203391465,1.0115846146802412,0.46229274842695117,-0.10076073109136104
10.322792065,0.6401749167770838,1.0075299201720653,3.5607843875813603,0.677751369071125,0.3434667003544135,-0.13175703886649937
10.522746128,1.2225166854587104,1.3469648654606046,3.4737504452242627,0.22776447434190467,0.3151282038001627,-0.13678239719289811
10.722752776,1.9361974762960954,1.3454877002761065,3.2125502191431,-0.17720483758627098,0.3082054399612623,-0.15726621528203558
10.92275248,2.463910246306396,1.1599199085966976,3.0093650541279624,-0.6222100455839844,0.3160460541809959,-0.18247137864226134
11.122817908,2.876507572456633,0.751376232262125,2.9166491867345443,-0.9653829616266436,0.402243160231399,-0.2092739393699117
11.322745485,3.049090572998305,0.27179095420689703,3.0332363004110507,-1.509563158816304,0.5085559039808651,-0.21806099019209424
11.522747269,3.034862448521487,-0.33773909262788443,3.0806352196457314,-1.8733804095439637,0.5143423626456292,-0.210499524288274
11.72274929,2.6881343191278058,-0.8863448234209332,3.1140034872599553,-2.408717349190856,0.5055711829623546,-0.19980429671493397
11.922754643,2.0837736380323606,-1.1756743932907698,3.224090909506681,-2.8395295837338916,0.49935645942028095,-0.18366233871294058
12.122749702,1.500611734637472,-1.2311023343022383,3.07336163147886,-3.273049156620945,0.38016907562319135,-0.19050976981312287
12.322752383,0.8637756431941674,-1.0596920842294855,2.970080609718061,-3.776255419023304,0.35864799461157204,-0.1911371449667444
12.522746381,0.4526794568607887,-0.669961540430824,2.9119345795319296,-4.195270496924271,0.43343469319535166,-0.1798591173456761
12.72274442,0.17550983219583188,-0.19356105835709575,3.385094192959047,-4.34238739883833,0.5377259545134498,0.034458184916193825
12.922760563,-0.0556850482743622,0.6539674489361024,3.478840412970314,-4.170992215916779,0.3766110157651419,0.13721741833700957
13.12274876,-0.4800600246401732,1.1153979506647285,3.443422028968563,-3.8017385485771524,0.28590173101825456,0.2034685066171029
13.322744382,-1.0681078692215318,1.5378457584854026,3.3018310050154027,-3.389645618269668,0.3330565450424275,0.20349785163685175
13.522747577,-1.730117621244127,1.4985052057842054,3.247415007789087,-2.8999870508557075,0.4568971396931817,0.19909909392202121
13.72281058,-2.29721787592372,1.3226644165054084,3.254223442072126,-2.4808719970878426,0.44604892422879283,0.20305839553313915
13.922750979,-2.7376119450802796,0.7617674983924738,3.4192661179743915,-2.0562131303584326,0.4141336145596398,0.2056436211117197
14.122750263,-2.972648578832963,0.18267299258674644,3.2636197801175886,-1.610914818200222,0.3677224076526359,0.2008426818316542
14.322745107,-2.8788510833297534,-0.420202644790274,3.0722248371176493,-1.1514925238395433,0.32495231932753477,0.20378045489665536
14.522752901,-2.574439797671199,-0.9468816677170233,3.053523635861635,-0.7923023088002881,0.32532254627218593,0.22325276844126735
14.722743628,-2.04033578771034,-1.2067566275865385,2.963469794745769,-0.2747621415048527,0.4306867695015535,0.23473469228737914
14.922750464,-1.4124747816347771,-1.2311648032374658,3.174392837897802,0.17705867387279683,0.46146068333038454,0.23677931758927312
15.122744991,-0.8754508210619946,-1.087459880347137,3.2132209270345395,0.6258173969540887,0.47469173757735705,0.21907792869684103
15.322747308,-0.46665957851578777,-0.5500375312261477,3.383709813027841,1.0334085736859258,0.5008599900165928,0.15279474243299526
15.522744722,-0.10403946046499901,0.11891998360199849,3.6832608757806686,1.0573708096188366,0.5083952831966796,-0.05322537569873577
15.72275445,0.2595013325738015,0.6391742481323768,3.6201212643013303,0.8010547750459559,0.40061868137621354,-0.12456398974713877
15.92275941,0.8865989006598555,1.1765277704552681,3.537218152096564,0.5279830704482572,0.34166390820003706,-0.134452519141753
16.122752849,1.490511418198539,1.346126013416829,3.4177899205669355,0.11938237533886857,0.2955069391539202,-0.14852802001577325
16.322751818,2.161890110880139,1.3601527234237376,3.1337727532561916,-0.23927594918518735,0.2849329933394504,-0.17656787419765768
16.522751151,2.6444713598965985,1.0372233111590496,2.9148648001061086,-0.7276712544755788,0.3472028524558681,-0.21246696432650794
16.722744372,3.040908579624159,0.6320786414420856,2.945826863505703,-1.2551157853800092,0.45308231050803155,-0.22312233129240006
16.922744715,3.0783245265380015,-0.004513412477271245,3.02944058360899,-1.799635085143037,0.5290379102815429,-0.22062701395144235
17.12276325,2.8633939152086163,-0.6060167987044186,3.125817251301851,-2.1567345554111843,0.5123846212735117,-0.20714671081144492
17.322746345,2.443493448624534,-1.0202668105116222,3.1468402334697454,-2.6064686883630372,0.48818874393188794,-0.1998792564894371
17.522752834,1.8067369801410589,-1.206757395957236,3.1919734252455902,-3.0212721941361624,0.4493583973260223,-0.1930179850163327
17.722743661,1.17018463591248,-1.1531677973369776,3.087785303333706,-3.513785840155621,0.3610711183282172,-0.19419113646006897
17.922745614,0.7169707152641501,-0.914416710418635,2.9503087805985944,-3.9311477406835156,0.3678596750272226,-0.20207859681537232
18.122754241,0.41287049986905494,-0.37797578884822874,3.1668731807013386,-4.28563961348923,0.5488847509285241,-0.07419254924851112
18.322761071,0.08563404380509056,0.2710131083955602,3.476963441144349,-4.263956362128846,0.44957317652811585,0.07767332445040163
18.522760094,-0.2778781221758292,0.8240383137888064,3.4783187461407463,-4.044532412465872,0.3279884166044501,0.16319796024137861
18.722749377,-0.8108585264554256,1.279594659702141,3.393705094541117,-3.5832395761034626,0.3052757224308654,0.19159049598251893
18.922746371,-1.4107166603158998,1.426105413959366,3.2643820212917216,-3.1572103991304417,0.38274230209311016,0.19416653802828981
19.122754395,-2.0818740956815653,1.3725974791784223,3.276907223656245,-2.745591732506055,0.41946385159617616,0.2090987008749314
19.322817151,-2.6357888289940936,1.041618494933993,3.30680879254651,-2.3243805889253806,0.4107776383406076,0.21729765634083037
19.522750495,-2.9111431580968348,0.43524737839982774,3.2960752424433863,-1.8955629853132696,0.3979561792354286,0.2004724113999872
19.722745912,-3.014105862333414,-0.13824849963002372,3.2242341061082396,-1.4617761976789354,0.376889191364876,0.2083981763108158
19.922752218,-2.7674606709521807,-0.8108545635963801,3.1632899823075102,-0.8852738371612512,0.3101565326821097,0.21879429756930882
20.122750368,-2.365362542103597,-1.2288891728010147,3.024006126511397,-0.5048362054042089,0.36737162168232507,0.2340141848701555
20.322753585,-1.8026487979063042,-1.3767447977758918,3.094771693828778,-0.04052122414803684,0.4654148128519474,0.24040079183807955
20.522753403,-1.1946705350366318,-1.3152350703953466,3.1119373833584545,0.39221502648462564,0.46847961535016097,0.22609510399171323
20.722743123,-0.6309888038006524,-0.8845169836367418,3.3029407092405174,0.8101514777497177,0.469457075640821,0.20392765494976411
20.922786074,-0.3029956184080556,-0.31476987536248413,3.516548192912036,1.0799911198791396,0.5605631570595792,0.028445336468482407
21.122755034,0.016349334007739913,0.2669940320509968,3.809224729775647,0.9876431562576907,0.4531427838242124,-0.09138459994825443
21.322786134,0.46875929118891546,0.9008275632094627,3.6736683741219207,0.6037693892544824,0.36608294415669745,-0.1304921612413685
21.522743321,1.1685714794730455,1.2699434862956147,3.489719245889042,0.30075490550450334,0.3014369723208855,-0.1416074832081064
21.722735715,1.8532565123696538,1.333983142704644,3.207285396434101,-0.10128655250001156,0.27057980474159105,-0.16517252411784752
21.922784044,2.39896942107637,1.1625652281584078,2.9660767565017006,-0.45221214803267307,0.3031023511107605,-0.19803967721991023
22.122739437,2.86503787459471,0.7769360706254794,2.882525428443403,-0.9625287933414174,0.3873298095719142,-0.21577471265202675
22.322803151,3.0395736583832047,0.27321597121346053,2.9807303252710406,-1.5282468003259666,0.48361585705591903,-0.22515553275324543
22.522740464,2.9925822491435303,-0.3113151303885835,3.0807945105899317,-1.9684391774943195,0.5136967295359453,-0.20666645376148604
22.722757705,2.65427247662799,-0.8387329871947236,3.1427251027971033,-2.401003996377626,0.49924477340452056,-0.2080748461197377
