time (sec),x position (m),y position (m),forward velocity (m/s),"heading angle (rad), from x-axis, positive is CCW",throttle (unitless; -1 to 1),steering angle (unitless; -1 to 1)
1.138380093,-1.1508158505803663,1.3164838210531717,3.2716794569200247,2.917023760906026,0.29170129316321214,0.21574442661057797
1.3383085160000001,-1.801610898219961,1.343410832561966,3.084212402906511,3.368492306551921,0.313167155025856,0.2068783635104837
1.538326507,-2.3116394606632418,1.1598434609836945,3.0808936490941163,3.7756302566778728,0.3367178840935759,0.23263869830285466
1.738309643,-2.7769705299679646,0.6686713338740063,2.9690974592130015,4.262559952846477,0.40906582074815684,0.24007998315201043
1.938307473,-2.9110307236250175,0.17947501571939772,3.11551611644033,4.722676616118328,0.47301721318367956,0.2275206879259704
2.138310911,-2.838020978259847,-0.5276988837444696,3.161313892102708,5.210199016285993,0.4685779251776634,0.2281469457909637
2.338404491,-2.392469785559394,-0.9902991631051397,3.183634251091288,5.66288388892039,0.46025937275310896,0.21762271727758178
2.538371499,-1.9101957855983565,-1.304141241333461,3.2340529685182804,6.04406447622367,0.38654838445475265,0.21028922923750565
2.7382996410000002,-1.3712172236983944,-1.3178477802762443,3.106297696061306,6.4809722947451105,0.3520272280846334,0.21809709364631447
2.938310078,-0.7754722024862581,-1.016479585707757,2.976075192657481,6.953953298035446,0.38498054192419523,0.22045836991037893
3.138395182,-0.3891351128268217,-0.6467758525004992,3.1420881742906017,7.394595898605014,0.5145142009190087,0.12458891773594453
3.338416229,-0.05611358701934307,0.031170808372865327,3.528246681949895,7.4803102335262786,0.5188389999178225,-0.05689001519392434
3.538308229,0.281083785214656,0.5633611258087436,3.6221305944313014,7.32629709284766,0.36098193878896007,-0.1565624597743709
3.738365771,0.7564239184480621,1.139546502559072,3.5458660207219657,6.917808142441229,0.23234871257961257,-0.20430828125964606
3.938319281,1.353338822760218,1.3610568691131444,3.24986334232968,6.369570415704179,0.28556277789863077,-0.2252292409946025
4.13830973,2.0150158883056632,1.3879441355820772,3.253879476435478,5.957864997276843,0.3961424008025535,-0.24077835316949708
4.338308267,2.5178237269990817,1.13302103456483,3.2070506148893694,5.54045893819625,0.4436193907685947,-0.24901576491172292
4.538320294,2.8609642009268432,0.5428756494012269,3.1780430791817484,5.07478622295252,0.46797506733433464,-0.2457061747238617
4.738308227,2.993730405213692,-0.0594408495166538,3.292781665811425,4.648220387703396,0.448209647151901,-0.2375361999566509
4.938330671,2.7886769029940464,-0.6978521559440296,3.133478839366227,4.182766294519548,0.382365213028018,-0.239763422272928
5.138309427,2.2581139660489256,-1.084422350733617,3.1027439229670155,3.729898457659504,0.3813900847657488,-0.23182065800945043
5.338310848,1.8620350331900277,-1.3186340023544603,3.149165892247585,3.2584585231226737,0.3970945988190317,-0.23993724017107393
5.538308402,1.1756910092074013,-1.2781837869466033,3.1240350190769175,2.7302710543008044,0.4389888116528909,-0.25700657020665857
5.738313069,0.6692569009585737,-0.9272352051840694,3.0651097502191176,2.311948339551804,0.5111584518981844,-0.23751088807769055
5.938327125,0.28258159591233456,-0.409601079808398,3.374876363101671,1.8711786298625843,0.575779017809839,-0.03870504223696286
6.138308385,0.1183648008232304,0.3060857362263263,3.7362248148935504,2.055694511673197,0.4135934587473389,0.09087364394975622
6.338310589,-0.3602847598062987,0.927032713559333,3.706683156773423,2.3471650155427652,0.3129021759994229,0.15885868837484327
6.538308709,-0.846340685738426,1.352034848363005,3.451739588608707,2.7793070967772766,0.24618659313339156,0.179433777062206
6.738355674,-1.6015488518511636,1.488241159495151,3.1562539969521572,3.22956374182307,0.3030639524279368,0.18013870079580077
6.938310401,-2.1321461755661906,1.3186846170898494,3.0645361102815194,3.604620906203442,0.3668424195327672,0.2033696633206926
7.138326743,-2.6610522922445594,0.9509737372226946,3.097705484456381,4.07018006710277,0.3812307498847728,0.22814463777521699
7.338311834,-2.887268531851915,0.5049621099517854,3.1328912461304794,4.52114223567726,0.44341496708994577,0.22665576298417664
7.538321606,-2.9315000431721163,-0.1405603619324282,3.1088494569535703,4.929712934717929,0.47189614385106693,0.21975409331591508
7.73832726,-2.593198002046093,-0.7294064315616365,3.2106915027606275,5.41453803256121,0.44435897733412266,0.20314870862433881
7.938308976,-2.1345230721499004,-1.1088602699350978,3.1311308533386844,5.768185185915159,0.41162036864490126,0.20858046542792172
8.138311647,-1.503875730930645,-1.3389955145163002,3.068255668282801,6.236351860237505,0.35467618451975086,0.2134199057435697
8.338312309,-0.9740583899883075,-1.1449927220933638,3.0163842840722275,6.768667922141545,0.34493799771877537,0.21933987864271426
8.538312126,-0.4887677817810224,-0.8169655714658312,3.0503745620536566,7.221988962349738,0.4204062487117033,0.22730943480678073
8.738317146,-0.20679339190012289,-0.2675085166852597,3.3593106721356047,7.502810278818796,0.5634086285231216,0.01275342428153815
8.938306077,0.08172922998367337,0.3239586036762278,3.6269437966229003,7.4612473969593305,0.42548845887909886,-0.11671382793505444
9.138308539,0.42371055649621137,0.9030637868706636,3.5798232517378783,7.1131905453261615,0.28841557380837024,-0.1969746072821273
9.338307964,1.0681803510364016,1.3115203756778353,3.3460841958535643,6.6541968608402415,0.25861003011775574,-0.2175562011041999
9.538309347,1.7197098966560598,1.384610774554518,3.063489434172274,6.189039248901164,0.3475291665457433,-0.2348565362500236
9.738331545,2.320774642572186,1.256530989042656,3.1675955759771433,5.798904841373787,0.46502581367073353,-0.2552021845965501
9.938307634000001,2.663495696810779,0.8560854650979693,3.182622258566842,5.278660992186869,0.463997459505522,-0.24631387230938243
10.138423866,2.8622934037089993,0.2992382764864528,3.2121181682925273,4.896648079941899,0.44248647299159427,-0.2426056103968035
10.338309721,2.8354046112191473,-0.4095918779957588,3.2641121996709868,4.402319331296165,0.4329945481836121,-0.23695011957673995
10.538309146,2.6054566582911893,-0.8803564798198733,3.1502966307386946,3.95362018862754,0.3612694338858324,-0.24727591510596467
10.738416191,2.1176110976999305,-1.3532015190603826,3.1006345093898227,3.516419742107775,0.35727930640697214,-0.24129113576047315
10.938314229,1.410184145563942,-1.3948113993368703,3.1414799283737804,2.9705516373107845,0.4313106353951474,-0.25585635900275205
11.138309097,0.9527239681458031,-1.1867311971505112,3.1509287805276065,2.5041417969563953,0.47653533592627445,-0.25063388598026504
11.33831631,0.5646930184365463,-0.7494628034754622,3.1802992075530825,2.0090501841580632,0.578612270699438,-0.15244224859590877
11.538310789,0.11180896501980811,-0.014548338590707872,3.638754781791227,2.00568887636543,0.5037584570336624,0.046081449479946926
11.738311325,-0.1638419457666465,0.6750133777497834,3.726267151039263,2.1490533122417306,0.32928181041656784,0.12099700753200862
11.938316753,-0.6099674324429152,1.0887799480843046,3.6090753775913655,2.5646089067924867,0.26894155005923065,0.1680863294146031
12.138309336,-1.2998104316071906,1.395291520923779,3.3631272656689406,2.9798346421596955,0.26769064008246085,0.1752832575719296
12.338371412,-1.8905452969424825,1.4790418632104376,3.1166546616044752,3.440545032031233,0.31072979771749554,0.1990182339571849
12.538316751,-2.473016675164777,1.186899353004163,3.0906635334704218,3.918339617747805,0.3586823235777221,0.2191803077361956
12.738309717,-2.8200224070129685,0.7459594520331331,3.12192952475455,4.31665442325833,0.4105820261231916,0.22877502505858832
12.938309213,-3.017560718994088,0.1538208034882812,3.1222019846754097,4.8080595166012605,0.45944267361490176,0.22770754931764742
13.138313708,-2.8278634898570787,-0.5181406213953166,3.1767536978601587,5.234916556485008,0.4680235792774828,0.2244828539885
13.33831197,-2.487754305379424,-1.0567043751069456,3.2459558247611286,5.593298542002937,0.4272348589976743,0.21354923051836008
13.53831131,-1.929936417192562,-1.19970522658216,3.1449129065210184,6.148075865476054,0.38484211668658025,0.21783279300772304
13.738311118,-1.274794511275783,-1.32002315869858,3.1356301325947853,6.441676941860107,0.3551280201675154,0.21969554509991301
13.938322305,-0.8351388672341064,-1.1279487561424129,3.009527274114436,6.958284187278782,0.36821889517682793,0.2250119896220654
14.138310186,-0.3265999028554526,-0.6276137652611008,3.076025550701787,7.336732353621196,0.549039857052072,0.11238170477013405
14.338316964,-0.07415204062937596,0.009914893842638488,3.5299291986978814,7.401498047403731,0.5185144921477542,-0.05667239302266307
14.538306553,0.24800587247335526,0.6470252886100065,3.6811839339089474,7.288204762373885,0.3340394634595893,-0.15875470885536808
14.738327269,0.7648427123838867,1.0600606757619937,3.5266685727761238,6.864963500795753,0.2510876459721479,-0.19661978689850942
14.938308834,1.4404170247845756,1.385110220651458,3.3404428480227595,6.4507328312059276,0.28925666159413355,-0.2184767612844688
15.138306897,2.0068978852220045,1.3805293884053431,3.161124579402658,5.9408127218925895,0.3752034792830142,-0.24843931586758644
15.338306556,2.502216975759512,1.059125180085502,3.122882356331102,5.496155063416087,0.4525567333130963,-0.2544289989917157
15.538325865000001,2.887402781564346,0.47939501656145767,3.1824551915360817,5.019245803747366,0.4583224675860201,-0.2487103874080443
15.738309019,2.9696738072068367,-0.11605109557295354,3.20710334042309,4.652833994218903,0.4234726506638452,-0.24463185015106645
15.938311479,2.8450266275232448,-0.6236579135717968,3.2194372386216585,4.153315345507727,0.40071925291113775,-0.24842314694683817
16.138307762,2.360729878445685,-1.0984798854339257,3.2182908722027332,3.726137598971511,0.3764849895900925,-0.24547210262036823
16.3383071,1.8056831548769605,-1.3597241271249483,3.00254554732168,3.1989468184331256,0.3896537438111257,-0.2546554131289734
16.538384446,1.2951491722212902,-1.2788623308791436,3.081619500806748,2.8572047316818474,0.45705511714930064,-0.26196787937029753
16.738306348000002,0.7182548025538203,-0.9463650293536908,3.125279015943393,2.277112709320198,0.5217984499112329,-0.24488185670713716
16.93832374,0.3772011091616456,-0.4738360129636467,3.421883389430903,1.9615013356841824,0.5961026701929241,-0.050997203105633965
17.138318489,0.07687706512314949,0.19528815843712735,3.722947508401077,2.1098596186132847,0.4145928272412018,0.0794143746246247
17.338310471,-0.3056285148137695,0.8144454949380232,3.7476842585419687,2.4002426501058793,0.2851125663137283,0.14491029634246014
17.538310972,-0.8939649092540447,1.369873276347686,3.5641638967536324,2.665940036287587,0.24842324875485616,0.17328983064583578
17.738334997,-1.5769803740845107,1.3986832761029884,3.271011997152906,3.1309159593052995,0.27327190509430943,0.18148555101357425
17.938323678,-2.1887653424013607,1.2503174860033857,3.015404010568345,3.682902672575194,0.27241248784663313,0.27553871368294014
18.138308867,-2.6598979023671,0.9718838574827421,2.9240151015163756,4.211593027062863,0.43968046409615136,0.20633511710575556
18.338307322,-2.8186776556677686,0.3576935957532569,3.097848114108244,4.607552648590593,0.48168207375655075,0.19999983074328664
18.538314387,-2.816620888133162,-0.2559317450915923,3.159529443918742,5.0897720839005185,0.4613311466824943,0.20327377773763033
18.738313271,-2.5116907630893213,-0.8949856774134246,3.2511371406447225,5.470507938411006,0.4284793011584002,0.19681059265246303
18.938308,-1.9800825142012104,-1.2092450810781716,3.2170054204936567,5.832960774308825,0.3795224019605688,0.1990573682812343
19.138310743,-1.4859470630546343,-1.36639152315832,3.0752451644531607,6.292660366805098,0.34309387970179633,0.2126313117527813
19.338424412,-0.8413113706779027,-1.2569472956401782,3.0526193401609842,6.803700986244633,0.3647558847987206,0.2099329389487156
19.538315143,-0.34272743187740645,-0.8339839576574276,3.060761821283204,7.253992848702089,0.4605834317141684,0.19000806091655353
19.738308745,-0.13718628702846092,-0.36414592665319306,3.344440751902005,7.380487053828507,0.5535846773820302,0.0192158953332145
19.93830908,0.2937099194467406,0.27882515211251685,3.65693290693168,7.342874132956239,0.4113676908916391,-0.10472871319718545
20.138321408,0.6026727729720008,0.8671431645075426,3.5068194518235534,7.1768822904144765,0.25527127516267234,-0.19293592986307054
20.338330023,1.2292226006608515,1.2365376596747428,3.2410348024874747,6.65052851841629,0.24323098000003385,-0.2101865126644813
20.538306757,1.8133283451661444,1.4006633859893136,3.1366259095616624,6.228294538812863,0.34859911090426077,-0.23974184594433984
20.738311921,2.3654956381394743,1.2467715580859688,3.1080518720700243,5.67946766449975,0.42015215752132745,-0.24744553726311666
20.938315311,2.7690304888009547,0.7703244006685339,3.183689199474795,5.2781899256248375,0.4784901294533822,-0.24266140604075273
21.138334512,3.0767131952474585,0.19266460705953842,3.229609739479595,4.759185947890566,0.4475001202890844,-0.23666062925058096
21.338314777,2.9661441799905113,-0.39348469561554533,3.284588100717391,4.355217907005399,0.41180601061404626,-0.23152682199525745
21.538340481,2.633544481255259,-0.9490050803785061,3.146105900595951,3.8987972506964086,0.39790434047175477,-0.22803016454859426
21.738311932,2.14566196575702,-1.306404678831545,3.1537922913323166,3.434134367703068,0.3659024657588446,-0.23337829329074491
21.938310589,1.4417251167060385,-1.411699344909355,3.1220676650806127,2.9864177944351478,0.40727054364624715,-0.2518532605333964
22.138375153,0.9469084494042523,-1.180853171356148,3.0926671078221712,2.4852430614681533,0.4943843846932977,-0.25083960811122336
22.3383089,0.46350195751960543,-0.6459104442268936,3.1413395255033656,1.9530943807201882,0.5686510256481175,-0.14402697592681063
22.53830923,0.25567779340970037,-0.0017074901594502853,3.658838136150848,1.9799186405239793,0.5270617585818275,0.054776086154572814
22.738367491,-0.15453660743091008,0.6515584626899906,3.6927758721155874,2.0743437431914153,0.34738403696300973,0.12275483314435057
