time (sec),x position (m),y position (m),forward velocity (m/s),"heading angle (rad), from x-axis, positive is CCW",throttle (unitless; -1 to 1),steering angle (unitless; -1 to 1)
1.126742226,-1.2396355276945767,0.5843663213583895,3.302577292751161,2.7511628232065792,0.2551262912498999,0.17388150683377274
1.326754244,-1.920638310539664,0.641383384729978,3.0988429666556727,3.1459946211635206,0.2463479820297964,0.17036752507758765
1.5267454169999999,-2.458152952511915,0.5447123249735659,2.84577336000266,3.7169166330990815,0.05096918358097964,0.25384411237704974
1.72673781,-2.8443593220399763,0.22699997072470796,2.626704325384397,4.248323069856957,0.4013262534090804,0.17618030057915712
1.926743347,-3.0402298240156713,-0.39655595379049213,2.823856391944452,4.6695109500994,0.34438849987872505,0.20985170013775736
2.126755244,-3.013535103366462,-0.8383802250282795,2.7994938678467247,4.9501987578731175,0.35651579161664126,0.23625348999967424
2.326746038,-2.6311725850403325,-1.331769385874404,2.900049675920755,5.6073056105068755,0.42133316307220176,0.2315591886348931
2.526846665,-2.067507169602884,-1.6493188953986984,3.041941597954599,5.990345487335929,0.4692832629699893,0.22243178568628402
2.72673896,-1.5022871857719746,-1.5330180935798736,3.1843033444705786,6.4868085232138,0.4802431013391407,0.205822141523072
2.9268137970000003,-0.9445330995880715,-1.3903149686215186,3.3087973526192727,6.96918876351548,0.40899904033368567,0.19461420074782754
3.126878705,-0.4779779897958862,-0.8709299334770393,3.24442262899832,7.358472766621063,0.38253128963088057,0.16734888986190766
3.3268230450000003,-0.2649850443916636,-0.2529268153212431,3.4048746862993418,7.595245028176443,0.4485425963824759,-0.04349181225465555
3.526826331,0.029807124295090887,0.2965936354160591,3.5176041338646225,7.355009442099658,0.36128632300677,-0.1618060017523699
3.726739227,0.5353721118932331,0.935780569643157,3.4566739600047427,6.879187615872819,0.35609350194193856,-0.18436973680136517
3.9267804120000003,1.0018101458389421,1.285184549434618,3.3507552439470265,6.5027480098837165,0.36975920655653033,-0.17539981146318273
4.126751197,1.6650559659201236,1.2033283761179308,3.273734341363065,6.0945733600236425,0.34781058883880567,-0.18772178300402664
4.326755852,2.2629776739597616,1.0178274907290683,3.2380580151469203,5.7611578960484815,0.34980582861389525,-0.18517497303807193
4.526894928,2.6636139571655666,0.6277004261909934,3.2676232155612968,5.219906103865516,0.3283299360485904,-0.1849326316405874
4.726738587,2.838913490102676,-0.08606710881813377,3.195906677286036,4.741471166135597,0.3381215341383467,-0.2105978216666028
4.9267450440000005,2.7873309950262026,-0.6577959853664156,3.1328023754726844,4.30989257527665,0.37367721144005045,-0.20650127674585114
5.126752815,2.4972100568731714,-1.1928959841807498,3.0894350168919744,3.8228186051298163,0.3938146670225416,-0.20504044436436925
5.326853084,1.871105373731529,-1.3984649864663055,3.1450830295248227,3.379180929731793,0.40374118565650907,-0.20882132722997826
5.526774022,1.2830953490200223,-1.449967131206711,3.1122812174295924,2.8741698919379903,0.40177659384876624,-0.20286900590731824
5.726737213,0.6905729794651956,-1.1788677182434057,3.107952791285233,2.5046826612652633,0.35176451630319366,-0.19741311681682547
5.926806507,0.29664838188039294,-0.7486266387809808,3.232585792010575,2.0532689274248592,0.4117845177828831,-0.14536660362523568
6.126761996,0.013801008154791987,-0.1512077194024298,3.5358546937016575,1.9838210481025056,0.42545391952055484,0.043610171236098276
6.326750762,-0.2222295811256555,0.490784940176076,3.632851855614675,2.1491809464860983,0.28935092006192736,0.13786652820629822
6.526820071,-0.8194524242549592,0.97871618715687,3.5020951087580805,2.5698463814861654,0.24371348002402315,0.1673698603765075
6.72674078,-1.433837925864651,1.1943763191178465,3.2231270918894106,3.124152698668893,0.28527869790049304,0.1616217414702149
6.926785077,-2.153367366803421,1.180147515706674,3.1051703503248977,3.57301307050685,0.3179014519399313,0.1610010533390745
7.12675806,-2.5369627166514377,0.79377319842625,3.02278570149493,3.923028693800008,0.32098817988674166,0.1740801981394219
7.326755043,-2.871076479950951,0.3055738851862391,2.997851282900746,4.3743008408402435,0.30274586320978153,0.1932589691114294
7.526762834,-2.965226442777586,-0.23536310228004909,2.9121972482766174,4.864286702668441,0.3145397860271093,0.2089314297118992
7.726734121,-2.8186112018561644,-0.835885306840158,2.831132491086912,5.29217144071503,0.38521196490006826,0.22232685712855096
7.926764785,-2.410050713789409,-1.2193808268829274,3.0251724144200165,5.827234252835858,0.44928263332792073,0.2178861877081366
8.126755166,-1.8035419778436317,-1.413607131124864,3.10217892388763,6.210448038311412,0.4509375163884492,0.21338720805317526
8.326763235,-1.109047105171357,-1.3782499571821463,3.173351705374308,6.714335255885895,0.42997867939321566,0.19780648060488562
8.526752765,-0.6680060300953391,-0.8936908968761647,3.146075662941879,7.117626040065514,0.38770160884735066,0.17802594383878026
8.726738693,-0.3534486252962034,-0.29780129637882957,3.1986904488132857,7.602582876274057,0.4012428116072374,0.08738488340932354
8.926752734,-0.12771771137192717,0.2309813481676075,3.3729859391573163,7.461671646448717,0.4132397810907482,-0.1253086632638644
9.126742676,0.15771242387528944,0.8661333446869702,3.3443850117095804,7.129993464430402,0.3609099483637373,-0.1851810376514673
9.326763682,0.6897114242002571,1.390339988384586,3.4275225990930878,6.70086493542212,0.3685224625844373,-0.1896903247322079
9.526755213,1.3699135974955552,1.478868909373564,3.317149055117746,6.325042870236439,0.38989926240932493,-0.19068104686918178
9.726742928,2.0037169229103453,1.3730764237936945,3.333262147888173,5.844108472604474,0.381199545322909,-0.18387407465456823
9.926748083,2.4411804222985434,1.0127981777705182,3.3047202081016165,5.455670084314443,0.3513158635011834,-0.19312367809593076
10.126762081,2.8476599906729794,0.45931301770653427,3.1651268796049443,5.0317925776764785,0.3400272474104346,-0.2069373180070785
10.326745272,2.845891757986068,-0.22805150129358046,3.0702183373253327,4.600215592201198,0.36680727616054465,-0.20384047360099336
10.52674733,2.6393325382738175,-0.8058975238850599,3.1414738236963555,4.0979826960505665,0.37612741279803114,-0.21185653802166812
10.726748537,2.1336519656353645,-1.1833029243270747,3.115817558564777,3.610010105329952,0.402651895141836,-0.2103132842895871
10.926754834,1.5805436324064066,-1.3416713398795386,3.1761478475935627,3.173890293208529,0.3958544701776091,-0.20621278250165861
11.126744763,0.9170051673424647,-1.255847931677191,3.165735325601489,2.7222886517001923,0.3432614229206574,-0.20733502231315373
11.326746271,0.4814152601221125,-0.9197057381148056,3.016934819794592,2.2802300526308357,0.34925065950571843,-0.20700529890671138
11.526752629,0.1339762680962426,-0.40919664675283096,3.368217364604981,1.9365744686768334,0.43808350752875086,-0.060467546263677
11.72673992,-0.20499767424438445,0.23044759137578108,3.531171292530433,2.0814026292710333,0.35909825336419043,0.09863372333667834
11.926750471,-0.5653304818063807,0.8040235989018001,3.5007200212238687,2.302453460001086,0.2622941493813387,0.16788369847457174
12.126744401,-1.0672556329703973,1.2321318686723688,3.3221824966664064,2.8551769284406534,0.24881648399131778,0.17884068395030384
12.326758486,-1.7403427267647817,1.3118173867094283,3.1368261411412472,3.3542041163644485,0.3320123238016097,0.16764822854568442
12.526763481,-2.330393505170398,1.0313851434073529,3.1560335807641353,3.6212057445370465,0.32401786033316543,0.1834333018043506
12.726805544,-2.741271600799745,0.6700521485184117,3.0159797197904843,4.083510174888895,0.3153726064447337,0.18748962539396202
12.926757897,-2.9571622495429586,0.03553921282969297,3.0101653733547518,4.509928659869634,0.3281165914608744,0.20348062810672027
13.126747541,-2.942115375256986,-0.5084715132566289,2.9961541642751564,5.072535779145364,0.3529901291163108,0.20423098848283885
13.326754956,-2.618196492005841,-0.9211498178786646,2.9378795517934604,5.546471768075947,0.4184457027277366,0.22404706945595884
13.526820078,-2.092133390623836,-1.2745099322029467,3.141249699810871,6.018836808610032,0.4540122466972498,0.22038889346367743
13.726739087,-1.4700366639087061,-1.3043941114807656,3.0798726226798196,6.578731454826276,0.4347085867682316,0.20449891655504926
13.926758996,-0.85136625754167,-1.0664304691389281,3.1669201291748577,6.927557361188106,0.4136342352104419,0.18707769483772488
14.126755516,-0.48280000680126073,-0.6112644383550504,3.207589733146596,7.345073078899632,0.3877998998870066,0.16249621070092315
14.326756086,-0.1937287194458992,-0.045423885143154,3.3388670123894166,7.545592488825071,0.42727324898248553,-0.03428080536802563
14.52676043,0.0621561231336778,0.6149797255022321,3.4604852482281205,7.284071676398012,0.3734690307096969,-0.15741118214827296
14.726793105,0.47456126540979277,1.15217143854609,3.3673076693141892,6.938128303454335,0.3455085910277057,-0.18499846846233298
14.92674386,1.107754216875516,1.4880128397040684,3.260038819539046,6.47673687963407,0.3780710343707037,-0.19466724969722213
15.126759098,1.635235742701038,1.5030193548121635,3.316798973166591,6.080255110892638,0.3759904301424503,-0.1951702889794648
15.326760365,2.3448196866900957,1.2834477007245855,3.37607316654409,5.60189644643127,0.3587364554035066,-0.18653051431041892
15.526761609,2.681432720328924,0.756143991110714,3.2313808558807606,5.244272754815313,0.35076952437215214,-0.20369509763053714
15.726733804,3.008758957589513,0.09482082846873072,3.0835043531057202,4.82556654610878,0.3484029808581123,-0.2119243125698773
15.926755026,2.7644691513361033,-0.46471693766356337,3.117282944462118,4.3139132176709625,0.3727286263909647,-0.21479094692433096
16.126754819,2.535489860701084,-0.9246814984026769,3.0711609991065933,3.9024624060974586,0.40408099398751535,-0.2161539973118897
16.326748941,2.0455381934842416,-1.19228897320138,3.1917732774024934,3.5098878689374904,0.40133773722500277,-0.21326319197242985
16.526756979,1.3530654494286516,-1.3076703411099286,3.1482161604931718,2.929431676541246,0.37568097758681723,-0.20920167172659251
16.726733261,0.7574332147061729,-1.178802168964353,3.120610580513504,2.532979918074769,0.36540252979687154,-0.2106331075150974
16.926747389,0.39193813318059545,-0.6749682985941864,3.173806180681222,2.0719383022104942,0.3902930695854008,-0.16079081102513168
17.126798347,0.08995987449983235,-0.10931522063605936,3.445953992439344,2.0005823648125296,0.4374593401010192,0.042236233883740065
17.326744277,-0.29299257835817727,0.5034712545124286,3.551710092159052,2.1521318554933737,0.32725846311844214,0.1445533969965246
17.526748873,-0.7890746950918399,1.0671882268011104,3.46843368328922,2.619312483117787,0.249708310717559,0.16856755626412576
17.726736616,-1.3794304359983616,1.2224290412620409,3.2629233294425166,3.085447817728262,0.3158257306349143,0.16242024491910972
17.926758091,-2.092819946512234,1.1373296618775384,3.0975850025242124,3.4488201943586474,0.3420297055862858,0.15575248654534798
18.126743091,-2.4765629844110557,0.877159685836248,3.094169236385544,3.9187537139341178,0.31208419263148063,0.17216714543822445
18.326795963,-2.822445775860837,0.3297946361926692,3.046281066659386,4.342684153697476,0.3060727534495703,0.18856916630310866
18.526750353,-2.9453603060520406,-0.2530307776021403,2.9869622577687696,4.78971543724446,0.32325353620181874,0.20176063389396964
18.726736574,-2.6212333105475456,-0.7867849078369193,2.9384219198214403,5.328093274327604,0.3703839854831137,0.21563121894180598
18.926747335,-2.27996146756986,-1.140572155481672,3.0766891672200694,5.720404171189269,0.4287270918973907,0.2212162883409809
19.126756545,-1.6360102117515742,-1.3859433353206205,3.150523239760273,6.267016104534546,0.4493010670222724,0.2108644835100235
19.326752932,-1.0766918166154977,-1.2514349305247898,3.162361002059036,6.669765101307939,0.4165526362416963,0.1943511185844393
19.526763593,-0.5462366114937358,-0.8652188415553292,3.2163795106116226,7.160200713231316,0.384642116741576,0.187234452955598
19.726734525,-0.30325117888177455,-0.3644361022089762,3.211066704809831,7.5149133994712844,0.4013616757358184,0.07957588927531381
19.926741074,-0.07665815248777684,0.3454570140156125,3.4583648317273274,7.476534561936114,0.39717239651594455,-0.1160707236685322
20.126796353,0.3030956540770203,0.8826151625185964,3.3616495634008436,7.094203579197623,0.3485598123142334,-0.1863362046275703
20.326748714,0.8076714613312523,1.3930217315818345,3.3063721771850094,6.627445644399146,0.3639340407704417,-0.19074609732560716
20.526807424,1.3834081114923595,1.4447716781994449,3.327576328725299,6.293233292502012,0.38810960258572497,-0.18895658031121657
20.726752636,2.004882495344008,1.3411700141499252,3.2675852915181105,5.791362688996565,0.4000612519479238,-0.1913224217057928
20.926743903,2.599024706953369,1.001288396851617,3.2695207064932856,5.4088303999591005,0.3456940320205092,-0.1965425811595515
21.126739932,2.9220833067476883,0.38649370011804135,3.141849593219723,5.015006211421722,0.3459288444178419,-0.2096477611207785
21.32677862,2.983168760751743,-0.1591353650840695,3.1473239998077793,4.522653066197024,0.37771087146656057,-0.19532279870543345
21.52687227,2.698952965316396,-0.8246553511373473,3.094497510267505,4.054276639221083,0.38908490449642064,-0.21641914583317434
21.726738066,2.2914505971668646,-1.1513943479245123,3.109884960070283,3.6142044503028004,0.40581926130816937,-0.20381265411751184
21.926731563,1.7013504521513985,-1.3532755639455607,3.1827839173955472,3.1090605342660065,0.3967837642739025,-0.20930595345930467
22.126756416,0.9582527609334016,-1.2699797410600844,3.193924276082483,2.7575504867702616,0.35639005527600076,-0.20506930675690288
22.326745313,0.4424472380738264,-0.8559018962410112,3.0213510450778083,2.216571182676103,0.33128889868480377,-0.20753835234231352
22.52674074,0.21276992838654832,-0.4209426073428072,3.2928861632776685,1.992435855981887,0.4304212190635187,-0.07177791459409993
22.726736405,-0.10363071991049644,0.3209570574177604,3.552613259747729,1.9983482051834445,0.35216520444820126,0.09711356332395894
