time (sec),x position (m),y position (m),forward velocity (m/s),"heading angle (rad), from x-axis, positive is CCW",throttle (unitless; -1 to 1),steering angle (unitless; -1 to 1)
1.139668729,1.242253715067333,-1.2733517630000648,3.0655557241252724,-3.3033588749015155,0.37142153013470386,-0.2541891613214943
1.339671127,0.7274576076521504,-1.098477295208913,3.141700226446185,-3.695299021025646,0.48099210547379095,-0.252640262664561
1.5396680520000001,0.1411678337010544,-0.6924817222806385,3.19362260943392,-4.220432787521664,0.5644255665023837,-0.1799563457724693
1.7396713890000002,-0.12339147389586075,-0.015188818138659972,3.6899933202730435,-4.3136666370638075,0.537622229614917,0.011783509016917866
1.939664038,-0.4375266489786521,0.5557952417130495,3.7322164793999493,-4.088236561592168,0.32440106568111826,0.10263251276615865
2.13971614,-0.8193395923360163,1.0422168220515495,3.6423835706272873,-3.779997489401501,0.21196487696098051,0.1601438741269284
2.339664079,-1.4683985820739753,1.504745804351562,3.334925231007243,-3.3010965611235163,0.211754118511777,0.178613996551062
2.539668333,-2.1649376309374753,1.4902469274698746,3.0974523958191855,-2.8107580521330213,0.31026449718704374,0.18808530596455886
2.7396669080000002,-2.696942984704496,1.2122028909335283,3.017872637006461,-2.4714886575507147,0.4049428923396262,0.21468752961868487
2.939671719,-3.000823281150253,0.837336587526198,3.0450021063112516,-1.9817148254875285,0.46687039832305116,0.22331138291618197
3.139683589,-3.204518823628866,0.17736489004954348,3.162917202268452,-1.567979398396964,0.5246834812646805,0.20288294409521965
3.339664484,-3.0373563128369363,-0.4188262832012485,3.3058627501402014,-1.090824245039145,0.5140080517909988,0.19744042663567288
3.53966898,-2.5964165666809125,-0.9163396603950913,3.3162001563883785,-0.6543645217310953,0.4755184754400273,0.18901329042192228
3.739665541,-2.031481981425816,-1.2926012410753591,3.217462985999873,-0.25059409630273555,0.38676846126541703,0.19017779769997198
3.939667288,-1.4336710507283061,-1.3638917226084866,3.158654347788973,0.19805300198698522,0.34061341163834397,0.20001910740801776
4.13967163,-0.884384844431393,-1.1132995877276985,3.0332384341464596,0.6606851089256235,0.3693342558149262,0.20716833679142907
4.339668816,-0.44970067803063335,-0.6407513988121696,3.0674762579600805,1.0448797482231158,0.5184706020715817,0.13008147637192707
4.539669713,-0.09416264193351401,-0.026507987747830156,3.5893708360992043,1.1344717802477866,0.5681709054542639,-0.062036814316047025
4.739671793,0.21199405297303936,0.6238060001853821,3.7316501801494857,1.0301176033199373,0.3575905291128991,-0.14441782744719123
4.939714761,0.6543564707912983,1.1504431501732135,3.5906508474247136,0.5989920018523706,0.23179370523952586,-0.20578744381488595
5.139673252,1.229055273871262,1.515604038766116,3.342422360700025,0.16745868396112779,0.270574118247544,-0.22564266057717297
5.33969209,1.8438078760350252,1.4910138403674045,3.1041909771280523,-0.2726247167387801,0.4119667462880587,-0.2552739253923537
5.539670742,2.4021234835411516,1.2587271787652279,3.1147037482939943,-0.7688435237973011,0.49704194847054656,-0.2522152771706469
5.739765019,2.739672361250457,0.7118574644318095,3.2481921891185275,-1.221741452906395,0.5241421659579377,-0.24216785350048003
5.939666475,2.8578340316842756,0.05085253485655044,3.2838978884052805,-1.7163660902293527,0.46408081100640186,-0.22341633864113394
6.139664662,2.7110612107363705,-0.5505638620079657,3.322365030856655,-2.1712583833907897,0.42127536325321774,-0.22290118157381475
6.339665481,2.2109395381700923,-1.1178753506392247,3.279895664296498,-2.5216263299881705,0.36721890363637066,-0.23231404561721847
6.539666935,1.7685705660103286,-1.3050334501103862,3.047646354402355,-3.0211576139666243,0.33327047356535466,-0.2597434766916401
6.739663319,1.1178996426366978,-1.1617345560389236,3.0220026113513097,-3.4675456482988105,0.433060043503486,-0.2565216989316906
6.939667963,0.5416118544127053,-0.8906061558762166,3.0899550000925715,-3.955394482620132,0.5579717714865615,-0.24487649630877317
7.139673504,0.22920504094672484,-0.38125199131929793,3.4839895381952712,-4.324113047824292,0.5762204337921636,-0.08304914715743308
7.339666651,-0.07191999691469807,0.2767946402605657,3.748580708302638,-4.182175504971651,0.41854688728938233,0.06253962301581914
7.539668187,-0.51777252666133,0.914461526246031,3.798481018664309,-3.9009078294785313,0.29979111894671534,0.1357244476826609
7.739670953,-1.0598480412923204,1.3578640232342116,3.491244331781329,-3.530687563796773,0.21096317740682083,0.17334357329280842
7.939668038,-1.6979832849389187,1.5719339459467432,3.276310143171892,-2.992038606791308,0.2521398458103071,0.18447948772193629
8.139767548,-2.3225764815531957,1.407543620224861,3.0481750449005016,-2.7182681366535295,0.3572932326740989,0.19859895399703958
8.33966739,-2.7633982393680876,1.0309564518782883,3.075533730891054,-2.20409332786544,0.41916621049077435,0.22285612755610207
8.539666904,-3.039168138762538,0.525266482159599,3.1031508020806413,-1.7671552698733353,0.4900226164904721,0.2195873505808884
8.73966683,-3.0956005152930963,-0.16027583604575465,3.2341236479421727,-1.3309883019306832,0.5112117701693526,0.20692621274733652
8.939663719,-2.8746908533277553,-0.7573005754464479,3.239274264621408,-0.8518897304143116,0.48274057286401273,0.19245215039604846
9.139727027,-2.370163032495702,-1.1763326481353382,3.342390703109444,-0.47150788186389253,0.4422365934804315,0.19031887694198538
9.339692425,-1.7783593433329685,-1.273024091382992,3.1647217041030067,-0.0782871641599373,0.3960715154195576,0.20067913831625603
9.539673597,-1.0884413116540625,-1.257292596098102,3.1157760718376117,0.45288654680365686,0.33994643029261845,0.20456354117617742
9.739667711,-0.5820953706278152,-0.9255554045084048,3.0392674660029644,0.917497217295889,0.41900951665294806,0.21292861473625616
9.939668216,-0.27101759524452573,-0.39959466511015007,3.2937022638976186,1.1690568646538624,0.58999752219342,0.02198339302779721
10.139677181,0.09764302775871485,0.3017987821051382,3.7709020779223357,1.1749010865937444,0.44154981512363856,-0.1007498306492866
10.339668065,0.35705478699418003,0.8815008105356329,3.6289448687288535,0.8533467105807947,0.29670571626709313,-0.1830573262338812
10.539711617,0.9169313953321626,1.3357640019887567,3.390679688302941,0.37339966011890946,0.22961575443415522,-0.21600112921058184
10.739682457,1.6364845053565285,1.3886959265467418,3.1901436768225775,-0.0749667124212389,0.34761936349110206,-0.22245189945331414
10.939738336,2.2037225779838576,1.24330042919982,3.013884606434399,-0.504925254554351,0.5063583980685634,-0.24240954349901125
11.139691694,2.6481111081887416,0.9135350650535317,3.2462371493114595,-0.9722758640224416,0.5057380669237945,-0.2352508198040805
11.339672461,2.81605540625513,0.2934863641593045,3.1399905421261707,-1.5000620895212353,0.48005205290553615,-0.22619909635536792
11.539718252,2.8243430260509457,-0.42303943784034564,3.2588127031658134,-1.8697440511774188,0.4505527130471027,-0.20497599448969922
11.739667094,2.48423099953143,-0.9861605253481301,3.2734155344847293,-2.3488565153413434,0.36233335417064316,-0.22310547136054926
11.939671213,2.0258883044023364,-1.3048201663682337,3.0654645546338517,-2.720280683475083,0.3372426960841084,-0.23282107458881557
12.139745443,1.340066637125397,-1.3570061688174022,3.1218859042139107,-3.294819218183191,0.3907012010777093,-0.25063653576351114
12.339674074,0.7947742886233676,-1.1827862868315282,3.0954944412084178,-3.776935780811568,0.48963958401787055,-0.2427059651658345
12.539676539,0.34175773309246316,-0.7030042137813891,3.1741791920426428,-4.214282277213727,0.6024439213044378,-0.1774232655907278
12.739795167,0.07506916842776747,-0.14432258362257144,3.669660323682815,-4.39255056965498,0.5357877306461725,0.02850174842293262
12.939666806,-0.240430034931225,0.581817030735817,3.764945166687878,-4.182067350066863,0.33677864282764597,0.11954579955799155
13.139706658,-0.6677292735032313,1.1346508889156686,3.616994116303279,-3.882425731416222,0.24645833075003948,0.17116311439821497
13.339670206,-1.2294461598577047,1.4948116239489395,3.318232890209411,-3.3224559973944454,0.24509745574315908,0.18095338161717556
13.53966674,-1.9402525964791386,1.5339108722069759,3.096451529429081,-2.966246909987876,0.30816931027597005,0.2003827679010146
13.739792281,-2.3972691238308466,1.3083394690858992,3.0873052058057224,-2.5788908135187536,0.3823799165427126,0.22426897354809888
13.93966711,-2.9033674002971317,0.7658868726741535,3.077245746443096,-2.0688548958126733,0.44543058756451526,0.23568472780177036
14.139666784,-3.0634176304189222,0.27640597848481513,3.1699790409205497,-1.6644509175524556,0.49665647935591695,0.23261004000482824
14.339669347,-3.011455655845699,-0.38883905378785505,3.276479064936362,-1.1353469006315162,0.5178249780918434,0.2168549007806545
14.539674192,-2.638675733485172,-0.9055984618921604,3.2416594338231,-0.7265599728998027,0.46968484034669145,0.21771468855781867
14.739668328,-2.019603252629376,-1.225846352283292,3.228536820639558,-0.2580014195773925,0.3993240120127718,0.21391599062237293
14.939669351,-1.4493547962804074,-1.2871014817201234,3.1054981504552908,0.16689732343189181,0.3425914247305094,0.22150598360874377
15.13970008,-0.853904302149724,-1.164892240421857,3.013213028375955,0.644837394191551,0.35774884303395205,0.22438673514289542
15.339793294,-0.4171940498133174,-0.729507947905396,3.1229783783567275,1.0142868462762684,0.5524262561589982,0.13455166270809218
15.539734287,-0.0900162731128473,-0.07398037978580249,3.6229421129539103,1.0769732257711562,0.5467552470837853,-0.03251702855168325
15.739669142,0.3101322516507872,0.4707902471192011,3.7679748496255687,1.0088691563693712,0.3584810468513409,-0.13407536902665432
15.939678089000001,0.7157025662676132,1.1073743527015114,3.6258756776888728,0.6748548610639411,0.2301024519418489,-0.20977524819643342
16.139687874,1.3131281009016427,1.4255997060804433,3.27224694368678,0.26074873370946505,0.2705602878070791,-0.21760704199986491
16.339669642,1.9190492275633755,1.4524361171329916,3.0917949906358846,-0.2606225390749216,0.3887468365512118,-0.24631988738781446
16.539685722,2.463859053077114,1.123929370712136,3.1570208307782757,-0.722568382143226,0.4770152029691151,-0.25495009809579977
16.739670699,2.8214948548068555,0.5452084659279338,3.1812562145789016,-1.248939443326047,0.4972795005857145,-0.24300023982321595
16.939667412,3.0110320540466793,-0.008092931740071273,3.2721690575420808,-1.6337543241782075,0.4720697048462637,-0.24798393828489407
17.139669621,2.826492372363289,-0.5775719493344268,3.314545345107821,-2.0948078471421083,0.42614350630363845,-0.22895678100715686
17.339667492,2.364315569299342,-1.125320554291209,3.2306290273583875,-2.500954717932295,0.3683378701184732,-0.23087859386466184
17.53976616,1.6933211127582337,-1.322543156059539,3.102924125751186,-3.035294355955818,0.3621527785879337,-0.23726563509618367
17.739669478,1.1638135504786473,-1.2496394239509379,3.070689328948933,-3.5665404235448674,0.4558156075135126,-0.25687059759970504
17.939676066,0.6302636744765928,-1.0950888198435638,3.183318240333834,-3.9976203891204625,0.5285857030258447,-0.22867631952262868
18.139687841,0.28898404550721263,-0.477013908405629,3.421878341360911,-4.296900917362271,0.5887434004196237,-0.07353897221141667
18.339667841,-0.10548391494523662,0.19632593687182032,3.7915960003273987,-4.287278226801461,0.4325762513915872,0.0701537611171525
18.539797712,-0.3860527490226281,0.7407692906702098,3.7401839112481046,-4.002979570900328,0.27575376912881433,0.13762330465664308
18.739718354,-0.9447786517356553,1.2924117823218961,3.6127272379071096,-3.589067800054707,0.2226367046384128,0.15082017194296302
18.939680557,-1.6687701338327103,1.5107550953419724,3.305911255330862,-3.1210699763030227,0.25215352066062,0.18409088085210543
19.139665478,-2.258918420102654,1.3576464812371476,3.0711231382378728,-2.6906273900314304,0.2614819207726109,0.25138973669741593
19.339667445,-2.750582566424672,1.0095021268082027,2.9405297007581574,-2.092413131395142,0.435538967857428,0.21707504612948111
19.5396657,-2.985721759482019,0.4150614510636962,3.116899669336676,-1.7888141967935671,0.5175158715675712,0.1986394598316273
19.739669902,-2.932442968317294,-0.09287497239410683,3.288239488700136,-1.3088993977768482,0.4859891728276359,0.22135406047144474
19.9396809,-2.7632227220440284,-0.8283691785650475,3.225604859421897,-0.9132043559976952,0.4576726301355085,0.2084554786547375
20.139697618,-2.2766905564554074,-1.199652505267921,3.2533697254467975,-0.5439987720388715,0.4502806429905668,0.20721180095562206
20.339666134,-1.6877451731782058,-1.375159854130386,3.247685609262593,-0.06507144835251906,0.334192283911925,0.21458839417363385
20.539684741,-1.0362612521113777,-1.3414289812466644,3.1060226025150666,0.4619585075702349,0.3491623412393828,0.22764816085735176
20.739666846,-0.5007413056964553,-0.9944671012365709,3.036362300309598,0.8853699673652831,0.4595159910711946,0.19679899225152883
20.939665183,-0.23526098837802237,-0.48288983522014745,3.3228766479534295,1.1322193421097129,0.5886784280316624,0.033140150767482376
21.139725068,0.12336155114513901,0.2415473335460867,3.7154387468133527,1.1768879306040991,0.5099950572910218,-0.09857048363943817
21.339680175,0.4935254002330067,0.8207547236684917,3.6292265742255987,0.910472635881807,0.2582031523074185,-0.19188672774461635
21.539767304,1.0383563315483892,1.3126313309488824,3.3788666813368846,0.4143398821700341,0.22820270628922298,-0.21495779737280032
21.739678312,1.6296494808558388,1.4175862699115425,3.153035495035568,0.0253156210979527,0.32393810179318,-0.24219921208257525
21.939674013,2.3007253842490742,1.194131967595956,3.0785299832464044,-0.4343878447213587,0.4339097124562613,-0.26032165646475125
22.139685472,2.6832705964620804,0.8441511048055572,3.21923908859415,-1.0016089824978651,0.5049707182005744,-0.25885762401438805
22.339680006000002,2.996058642216708,0.31078865419899443,3.224846539170018,-1.4913526394789354,0.5640173317359266,-0.25894910907541696
22.539687287,2.8947527357955627,-0.443376010958342,3.3060632014152675,-1.9424376213959609,0.4438673665282306,-0.22957583248816998
22.739668536,2.5801507715835204,-1.000530295453548,3.1922978948065337,-2.3072493741831335,0.4284349209659309,-0.24609805459666367
