time (sec),x position (m),y position (m),forward velocity (m/s),"heading angle (rad), from x-axis, positive is CCW",throttle (unitless; -1 to 1),steering angle (unitless; -1 to 1)
1.12969955,0.07141663446652158,0.7830423467624077,3.4528266021009175,0.8493902674439537,0.4334747452117904,-0.18636818719364434
1.329689994,0.6508168151302263,1.157435486258448,3.404192198007647,0.39665335262297546,0.31494257809510295,-0.21522624955089362
1.5296900070000001,1.3290327688017733,1.2941431502186123,3.240150729218062,-0.024779207364768196,0.34001133115659365,-0.2341086163221543
1.729694571,1.8868840142414551,1.2174526695151529,3.237540763952033,-0.5070368003966546,0.45740949982634643,-0.25412960154860054
1.929693285,2.3083971575461875,0.7304059546293449,3.153838396963808,-0.970045265733927,0.518750961179734,-0.24690200431764175
2.129685886,2.669025940628819,0.1067162627561941,3.3087815376235876,-1.3825029772013464,0.46794236889248664,-0.2352703871429807
2.329685951,2.54966742447242,-0.5039466502769904,3.2770382760259653,-1.8173466560388767,0.42203970139268976,-0.23515701756965432
2.5297858939999998,2.2904296600749454,-1.1372498370995114,3.179944478332996,-2.308707012607209,0.35701337818864054,-0.23799375109024704
2.729689238,1.7482856668486415,-1.4701328067853618,3.0690775743094756,-2.7915974588491625,0.3153467616445909,-0.2631482681447477
2.929691418,1.1358216959203735,-1.518816225192871,2.9747052359453843,-3.2788747535014466,0.4190401811892035,-0.27677642710343314
3.129689194,0.6190001275102247,-1.3003997279203414,3.0388685791200722,-3.7525596950132387,0.5399931465137905,-0.26882359370031633
3.329698708,0.18194683419646193,-0.8725072474340658,3.244505192328893,-4.268430162665623,0.6416474230595035,-0.1497738379034699
3.529685932,-0.07999274518693866,-0.25533022684919005,3.618689753538816,-4.344082317380455,0.5900637662184428,0.055240552414893625
3.7296837590000003,-0.4299972128945172,0.44105243275712397,3.745873343963352,-4.132489479139402,0.330999144511639,0.11876223800435654
3.929686175,-0.8907500798525059,1.0244926328530577,3.5731941565468657,-3.7260702069811518,0.21286410596175276,0.17212666532915896
4.129686627,-1.420102468217653,1.3272477226813844,3.295021115714485,-3.334359241853059,0.22792847644807473,0.18369158926595475
4.329689246,-2.135418731999538,1.3355975159056277,3.0030552527294074,-2.8984354393051146,0.29287770077877895,0.20359363980133421
4.529739494,-2.574392145612085,1.055390160379735,2.9332956421729266,-2.3612831992070897,0.3871808347201929,0.2366310632422349
4.7296978460000005,-2.975004787083775,0.6485958804709131,3.1368474046420376,-1.9850888511926426,0.5216843694976676,0.2434480062538301
4.929784992,-3.168453377807091,0.01602193945268464,3.175475466740968,-1.4734323190103586,0.5375690831463529,0.21532564908627658
5.129697111,-2.962112488881208,-0.5527784352137636,3.2904545096379043,-0.9828161694048136,0.546249075215997,0.2043504302144719
5.329704794,-2.6052890512652698,-1.072703887710771,3.3485569564784408,-0.6504695282274061,0.46661696235550415,0.18773910784125172
5.529686511,-1.9864513791970793,-1.3785845187475014,3.2911305071693304,-0.26066359052429366,0.3817066869443332,0.19373230357568744
5.729691526,-1.2841677441142063,-1.33130276256688,3.1940140700558266,0.26788170625535174,0.34405822546921894,0.19963026330558592
5.929688905,-0.821521817306263,-1.2276734714151736,3.0143766526244766,0.6676619755664318,0.3922817231460876,0.20350511404029806
6.129685264,-0.3394223598999031,-0.7115588854029514,3.2254715525431754,1.1457738078121764,0.5814097969249092,0.10195790488459217
6.32969809,-0.07080381471504424,-0.1217994290867511,3.697929242050575,1.0879460101711502,0.5405166520142688,-0.07615113630707526
6.529687341,0.31367145014221814,0.5941845875903234,3.755566137428433,0.9014974259911109,0.328640427371375,-0.15042824252877668
6.729746337,0.6968300841635747,1.1705163082835115,3.495362763055259,0.618571889333777,0.23118754301065683,-0.19122588495980855
6.929686018,1.406065411805741,1.3970728268388863,3.283382976518788,0.14464819981524651,0.2746667814966854,-0.2180948808636164
7.129686494,2.0591395280058795,1.3642188742135248,3.1095820811362263,-0.36793290015344743,0.39428927322543017,-0.2525132567559897
7.329745938,2.4936475540735668,1.0478754352822144,3.0856033899681043,-0.781940796183656,0.5320838294894544,-0.25221274952885453
7.529692619,2.8702686656940046,0.4619271302197655,3.1978889691517662,-1.2256888885297839,0.5205997970327834,-0.23929241273080162
7.72976348,2.991801644090409,-0.1892576305634302,3.2515643514904133,-1.7282257674725294,0.4983610756811861,-0.2181238045332175
7.929688567,2.705211108063082,-0.802537488328077,3.2090989240292376,-2.226329926034548,0.43951569107099037,-0.22464615425044443
8.129690563,2.1977665130563193,-1.2618340619800714,3.201934391576269,-2.6112271960160034,0.35590179144322864,-0.2374826385287601
8.329684726,1.6689512940027502,-1.4677236408819037,3.182161039960145,-3.0566778318572836,0.3569006136681859,-0.24654906734785126
8.529791301,1.0980842707129908,-1.348194870895047,3.183418029874261,-3.5270206050188873,0.4653828331482847,-0.25859933739299434
8.729686088,0.4681143853566213,-1.0410746759661202,3.177973133268393,-3.9917405032023514,0.5695888094833234,-0.2245251793244248
8.929686002,0.14260236617206806,-0.48441859084358846,3.562019356139032,-4.287397934833365,0.6043053900722707,-0.04646697826946787
9.129687967,-0.12826853533250965,0.24843885249607475,3.8096304474479026,-4.2213112537356325,0.4418863199559402,0.0793157287266728
9.329785118,-0.5705284005772686,0.8471328406556085,3.7763570955314534,-4.000589593671293,0.25351438429109846,0.14787609301081395
9.529689233,-1.1239389964876763,1.2153559394308036,3.4919907409314397,-3.500320583271451,0.19861950977273218,0.17400765989696165
9.729715281,-1.6605090834086809,1.4150304529113156,3.1693937181364755,-3.089493509703966,0.26352678474862545,0.18099716583735764
9.929687167,-2.3342111522934923,1.3914128046711383,3.0914070445634456,-2.613398856077348,0.35294608806429234,0.21288722078047703
10.12969071,-2.826524966062765,0.9661018148989654,3.1529109342424584,-2.1834617857614593,0.45470659640626804,0.2290636995228988
10.329702634,-3.12183423153286,0.331792404173559,3.1245963299058728,-1.7537077716695395,0.5179402330903038,0.21353581297344795
10.529691306,-3.0974293787223175,-0.3174425539023577,3.3810115974965824,-1.229194321875739,0.521063088340481,0.210855131759692
10.72970613,-2.784003103172454,-0.8024481914449525,3.2724438098540527,-0.8278552401848064,0.4893036091130501,0.19444995730749648
10.929685501,-2.191234648480346,-1.239747983906601,3.371329142478195,-0.502956687514911,0.41733286914063256,0.1890735757451967
11.12969005,-1.6509495190426011,-1.5002241180451825,3.20158793957761,-0.03617463003705011,0.34458438185223195,0.20283361661600058
11.32968543,-0.9794468193979817,-1.3597595337738444,3.0487578336604213,0.46266044465412826,0.3508486747293199,0.20960692940630427
11.529723517,-0.521650736336111,-0.9255685923285093,3.0674746805679813,0.8830311403784318,0.4846011055157307,0.1845986754737288
11.729686641,-0.2155866861169746,-0.4540311702245956,3.4742470255843045,1.0977774169144636,0.6198766705967785,0.013800746370394657
11.929687018,0.1972497231445022,0.24526508587931004,3.821448127051553,0.9964965775090102,0.42283872192847205,-0.09739566350112451
12.129687969,0.6066124259581641,0.8712645890823014,3.7242194075598936,0.8650259209563745,0.2466756385382959,-0.181253403218967
12.329690222,1.1929296774818778,1.2629675848227322,3.384031768982476,0.30650135158546005,0.20304718992511864,-0.20128801569335528
12.529688038,1.7817578670098084,1.3792450986629992,3.06890914631919,-0.11984352815450383,0.31553156844065716,-0.2390629172128801
12.729685756,2.482674739387565,1.1573652100607545,3.089183110497043,-0.6236359527167515,0.4690457946832219,-0.2530272792687111
12.929689218,2.8583854020980315,0.6734149856966363,3.2316529264969596,-1.0233960285253545,0.5650727255935646,-0.25109924059605393
13.129688172,3.0446453238501827,0.1445716157626182,3.228420334392159,-1.523800777711177,0.5046416676370568,-0.2279599208064146
13.329690259,2.8913943784601863,-0.47693157494394334,3.299209548519484,-1.9869938593265548,0.47125436528615966,-0.20488134536783265
13.529756935,2.5458015784561776,-1.0099922773535543,3.2519976654525493,-2.4134652505826493,0.42689799589748,-0.21388578946327566
13.729777825,1.9451260456066277,-1.356532850618747,3.2433206243922017,-2.8831459995500683,0.34321276455342,-0.23112433006042848
13.929685826,1.3968878176640083,-1.4470678632829816,3.216890137621476,-3.257979399419525,0.4005315269063074,-0.25180631718805263
14.129695554,0.714361243864507,-1.1777604636998176,3.145806219135936,-3.86714045765946,0.5167735684991696,-0.24308096247256158
14.329685405,0.30895898671927047,-0.8105294230241873,3.254743177094294,-4.265666956786456,0.5880400087018539,-0.15137951299617844
14.529707943,0.14452147623548595,-0.10844661947227313,3.7165040485768395,-4.285712006281273,0.5390163791574261,0.058132682340700376
14.729686015,-0.2765853687390412,0.588293989487568,3.8032577954241136,-4.111054138383098,0.31274165347635013,0.12226732046120393
14.929686696000001,-0.7272284942795716,1.177387789782326,3.596541450147342,-3.692559496878567,0.22159066082492157,0.16784847300524813
15.129686703,-1.33905066033759,1.4777609391293702,3.323678586124455,-3.302881271386813,0.22444225321091718,0.1845961399531054
15.329738717,-1.9848584933240827,1.52555367198077,3.168993349839708,-2.8912805123043213,0.3055005227240421,0.20846937682024352
15.529696819,-2.5369401430930325,1.2364025641872796,3.0645823826634033,-2.4666734458780453,0.39110177777008315,0.2352767798105464
15.729705651,-2.97560870306672,0.8542549985317086,3.0801783425176676,-2.0092189322698717,0.4850986594622297,0.24137036339270151
15.929704216,-3.099990408440549,0.25231781317833724,3.1709005094037663,-1.5919190726183239,0.5310912976884189,0.22005248955305456
16.129690386,-2.905060178729633,-0.4852908168507522,3.3557979545621692,-1.032157323765433,0.5089379678464169,0.20722520632862929
16.329685181,-2.508087638631181,-0.8988405670994121,3.2645347660338855,-0.6302528975869353,0.4744555790705984,0.20178491085935257
16.529685881,-2.06020790991395,-1.2798281649140784,3.2890561113172923,-0.2912407597182854,0.36225089751937173,0.206580628419322
16.729685877,-1.3586192285564982,-1.457990784309633,3.140643209433869,0.1514603783551918,0.3205990263280533,0.21558573685855148
16.929691279,-0.784463797508166,-1.1706190104240455,3.1090670330979644,0.6460815209099471,0.3646756880756245,0.22840275811589256
17.129686741,-0.3544874051137264,-0.6694022672243963,3.280627778558379,1.0252105814915473,0.5592073412818452,0.12605316920785856
17.329686714,0.09217812014800542,-0.12005260124984357,3.666418360370583,1.020709568094333,0.5384057288049443,-0.03866639627865006
17.529694409,0.3745203554588679,0.5558921267567148,3.7703444896984983,1.0298863429661629,0.3306202930482219,-0.13814643429081677
17.729703723,0.8535132539399699,1.110944602329819,3.620128710488451,0.6207518074654296,0.20562293043076127,-0.18994299713138446
17.929700156,1.5417291222383516,1.3349863279307173,3.2888702403155214,0.144437280354284,0.229466665705409,-0.21977311082196466
18.129687091,2.146093749898109,1.3031134754738949,3.033356179504788,-0.2683211879411297,0.4034245697252391,-0.2589083007827354
18.32969096,2.619390597516649,0.9448698098586711,3.1624126428763186,-0.7636000389243544,0.4953645094660668,-0.2560505247636121
18.529742893,2.9602582683150014,0.4402536690564643,3.2548528530695546,-1.2982004082623746,0.5276973174748248,-0.248815364475944
18.729686533,3.1478155808346124,-0.17848808117717554,3.290221610018337,-1.7588681325943625,0.5006747563051067,-0.21721031948803737
18.929765616,2.8769588733903997,-0.7990383872000019,3.2838343973423125,-2.2477065385015145,0.4369769647342634,-0.2094452610337977
19.129685784,2.3277372746125295,-1.2880215519644471,3.256588980372859,-2.625380551202598,0.39024218251275755,-0.21920726764728815
19.329685895,1.7995421128829103,-1.3980535077968772,3.2257354912494205,-3.060520163753819,0.354973471951132,-0.2415239416321926
19.529687261,1.0126737157716543,-1.3013217378990503,3.115923613901586,-3.607241376083755,0.4460739777232668,-0.2597617472579753
19.729684862,0.5011748050717546,-1.0134018670063722,3.0757449073518415,-4.12131350565366,0.5417976014895906,-0.24221017904108957
19.929685249,0.20102420641063287,-0.3989697823074964,3.5998250483769607,-4.345625260311245,0.5972685321674115,-0.03812823961193313
20.129685684,-0.03654331479823944,0.27348772891813045,3.7385802321885846,-4.221211934945363,0.41526405367172914,0.07815045319852491
20.329685857,-0.458795984493709,0.9096097813103041,3.814186483419936,-3.9869740015324524,0.2782311596636149,0.13226429085946134
20.529688079,-0.9873758810620872,1.386934143659198,3.5437905863335084,-3.4978836164310185,0.19814757154310642,0.1806539102754815
20.729701332,-1.6707336036032578,1.510153202395156,3.207551363445135,-3.0402911680112537,0.25585159746615255,0.18437226205001467
20.929702515,-2.2754172754472637,1.378664748805962,3.0581699801133064,-2.622589330919826,0.3670487962563032,0.2009033012043348
21.129683898,-2.7114502460245458,0.9804534327252258,3.084774341893924,-2.1398507974603183,0.43550333008481784,0.2303433361694119
21.329687414,-2.983111742865682,0.31032132543388813,3.1839974470026733,-1.7562421958122305,0.5132665171570608,0.21868672570251144
21.529749689,-2.9753790894036043,-0.23287535301974066,3.195484138213741,-1.2496622526644054,0.5409955097915001,0.19209129435379316
21.729688075,-2.706447138907843,-0.8926285125362834,3.3394787429674153,-0.7804873307425017,0.47492918362061587,0.18350728457011142
21.929683996,-2.219220931777779,-1.2852015612649785,3.3511489251905076,-0.44452648667616457,0.4070597072770186,0.18890043800660972
22.12970415,-1.5688938910122787,-1.3995705227282962,3.1400059183074327,-0.03013147657729872,0.33759807398387703,0.19650862123879742
22.32974087,-0.9910362909837337,-1.3439546349664149,3.078522984494106,0.4641805938377303,0.33532799160180754,0.21151505919372723
22.529731166,-0.4025605924791831,-0.8907290978285731,3.1155597710796017,0.9146001263491061,0.4713724869449154,0.17832403842226502
22.729687935,-0.07892961226019757,-0.34048270159045824,3.4689041577414743,1.235342326991863,0.5866002341702087,0.013877565785965107
