time (sec),x position (m),y position (m),forward velocity (m/s),"heading angle (rad), from x-axis, positive is CCW",throttle (unitless; -1 to 1),steering angle (unitless; -1 to 1)
1.127865915,0.10519850662082351,0.5026547604799605,3.3427256953748308,0.790290544433593,0.4437823779217668,-0.2042795788567108
1.327769424,0.7653089347933542,0.9780106308949835,3.3544307330237966,0.46842390924409955,0.28453974040347424,-0.2590248929029931
1.527778503,1.3557819736542527,1.0720160807554957,3.1032765675300165,-0.042767345572192944,0.3395377235673978,-0.24956116591601377
1.7277739900000002,1.9400281768283385,0.8642055179410367,2.987366923101347,-0.5053382674953962,0.41042994102413566,-0.24915042926400816
1.927780413,2.3442170044019575,0.46505878811277057,3.1022492151691097,-1.0014268139145588,0.39976289867294507,-0.24494182609793405
2.127773797,2.5668272590112484,-0.08689284489972514,3.0534634519456665,-1.4490919735004066,0.39978999630063605,-0.25073673818024966
2.32777231,2.51956712825005,-0.6663877841368173,3.0878826967549475,-1.894097526909088,0.3383306155142133,-0.2541266149797993
2.527788994,2.214613609279181,-1.1511700939325336,2.9112346306748287,-2.3370744764515523,0.3305424746712057,-0.2621670013864574
2.727772867,1.7385999380292185,-1.4065116061413627,2.873753585231214,-2.816133763579583,0.3693317366706835,-0.2708465512848668
2.927785428,1.1957522339709807,-1.506692368246887,2.817584078032667,-3.319651963340896,0.436351087310733,-0.28866148785735857
3.127772299,0.5201265297662765,-1.2689502655763933,2.9756200846301635,-3.8746824418048695,0.5111060542673949,-0.2615527355771234
3.327771323,0.235070072012234,-0.7970484960801086,3.1909059493270453,-4.24361552638441,0.5601873065004506,-0.1522226819703755
3.527776083,-0.06859078316202144,-0.16169877073371108,3.5153484073218166,-4.3352859006687945,0.47826261291032607,0.05928410868170916
3.727769351,-0.41973930617194555,0.45329141207928914,3.589165621566719,-4.060250019934714,0.31991918327438884,0.12660530870956793
3.927769821,-0.9194559180011401,1.0206423562893219,3.5496607019509776,-3.6787146103985027,0.23034228220375658,0.17436668414354378
4.127768744,-1.4369806881091296,1.2844318200261424,3.2536249599399234,-3.218542759328305,0.23544443096733747,0.18706288452381864
4.32780447,-2.060975825924401,1.2237961741472634,2.979773774998834,-2.8896202095933714,0.2951435238962216,0.20550354520912706
4.527802916,-2.615701006372632,0.9421447174838672,2.936936401098313,-2.389731947363284,0.36603145097801165,0.21812722717203448
4.727795204,-2.909483569221289,0.41005946651576064,2.899462141427933,-1.8371744665739853,0.4039357698592433,0.2279568868144671
4.927774086,-2.9519585095434793,-0.13705733820378507,2.9557326468391905,-1.4017441325033708,0.44378751300707026,0.2179578166643653
5.127787212,-2.8312868310842014,-0.6573094033603984,3.032921846842033,-0.903093877107522,0.444982916351615,0.206324747319725
5.327783485,-2.366669170693842,-1.1616501553838792,3.1035086098921085,-0.4462096229848774,0.4237212944487923,0.2034534552258198
5.527797666,-1.8512482122508311,-1.3586729979919778,3.0043476942543257,-0.031140978605110156,0.40941011465887167,0.2101024584405236
5.7277814,-1.2685320100939705,-1.2914984383539245,3.03377308131076,0.22103964058299103,0.37062201733500916,0.20958233503968018
5.92782098,-0.6370112824707965,-1.0019932970026943,2.9934667406447737,0.8083763379116664,0.3849640913686036,0.20088150311206698
6.127773094,-0.36494223183685454,-0.49308403124015954,3.110085998156963,1.2329057420172393,0.5320039218561811,0.08246672237914787
6.327859371,-0.16030890898949546,-0.00505255477555526,3.4586199763916237,1.2415019362445656,0.4794165748458517,-0.10184342176231378
6.527773949,0.17796784075491545,0.7633364910595696,3.4808108327238503,0.8802780672067195,0.32784264088400705,-0.19280999838863663
6.727802282,0.7069256342346594,1.1521823123880364,3.4207277977103816,0.5631912808467137,0.2880646836803972,-0.22048447056207426
6.927790765,1.2627073549607657,1.4362879284095875,3.267369487669364,0.13021573055994795,0.32667029523758173,-0.2350973309162601
7.127770884,1.937253756222807,1.3790876081565215,3.0711992038339795,-0.35070278105891517,0.4047966205794187,-0.24373030930092013
7.327779296,2.481590628372465,0.9724500258279023,3.1125500438708813,-0.8104776012484918,0.4516322492321518,-0.24448977335911265
7.527800937,2.7512460534349423,0.49008952241433706,3.1974865054896373,-1.2967177189972576,0.41249898597601053,-0.22966656868531904
7.727774538,2.7714380125196016,-0.0832921486520474,3.151209994582284,-1.7596036952873724,0.3920110512958294,-0.2299784265970454
7.9277849620000005,2.552939091784613,-0.6376504088196535,3.0303285316146265,-2.100353541449578,0.3429464942576832,-0.24460668298912486
8.127888566,2.0941288144607983,-1.1688066474481065,3.039814955360815,-2.635370656568248,0.33766315732053775,-0.24771403408949094
8.32776672,1.6279799978744398,-1.3313079148464515,2.8930820023148063,-3.1454945504826854,0.3844869432340994,-0.25518560285083247
8.527793114,0.9991699830536361,-1.1866235337943802,3.052418430393822,-3.575337999298851,0.44237771627058126,-0.2638963699579163
8.727786833,0.4351687444775704,-0.85923184342294,3.0577699549057007,-4.083967672149484,0.48983597158132897,-0.2394242707247303
8.927791844,0.23735801944221516,-0.2636956204051176,3.419005256423758,-4.240299122608771,0.5774711197032232,-0.036688354855072804
9.127800505,-0.13130315613278118,0.39676236486812544,3.6718144133096198,-4.148559265436704,0.37591304339746684,0.0855437079665244
9.327768535,-0.5755932135197587,0.9844983152990042,3.6130684459320603,-3.9162378943884493,0.2607388975912883,0.1602553197297437
9.527882782,-1.1244327417560764,1.351533067511951,3.350249433545516,-3.379926497156403,0.2517039319111968,0.17648691486437365
9.727771905,-1.777537096802688,1.3579313025252624,3.215062174786171,-3.0264505294183928,0.2866830254213124,0.17844832759421925
9.927776418,-2.459187207936038,1.227281821443964,2.9669793919376013,-2.550107070000625,0.2900982651136855,0.26615483663678524
10.12786415,-2.7252840706318997,0.7932756403926928,2.9436261542273847,-2.0295768626238213,0.4330053874395488,0.1914608732533665
10.327789056,-2.883544635279231,0.2444540857675932,3.1137510032166573,-1.5933914436139078,0.4336024833166009,0.21389594753258967
10.527773775,-2.8907749730864554,-0.34223739349855276,3.033400440259279,-1.179864902594708,0.4304674840602062,0.2165058485505569
10.727792528,-2.5817813580557982,-0.8953327174294967,3.1204890743860285,-0.6830855059382273,0.4152585815905704,0.2078901187966074
10.927771241,-2.0250377996130817,-1.1784508160546532,3.0053788143332563,-0.3967147349134827,0.3884719889515964,0.206437410833917
11.127770797,-1.4751245404871793,-1.3106436713859972,2.948412083781666,0.09025435193386375,0.3677810393939807,0.21295471982224448
11.327771133,-0.7737416015582503,-1.0894485007733359,2.960167885295161,0.633296796268819,0.3698120308430448,0.2115796133555104
11.527771237,-0.5420415555195297,-0.7226416619048911,2.9816221063372015,1.0342516055531148,0.4342154844116503,0.19163573512707263
11.727770791,-0.1945748387827105,-0.10152154356287617,3.3312826516642495,1.2507749781293818,0.5269742913078145,-0.030310248322604844
11.927779748,0.047715100387724786,0.4421671240575027,3.4467347772184787,1.0414726150343447,0.39276018874878427,-0.14952352953972792
12.127774602,0.4342166579862399,0.9695373938703038,3.4887332688018224,0.6938921468268779,0.3081037076556713,-0.2033092880408358
12.327872572,1.0646629859911874,1.4232378245632538,3.2277099534275333,0.3255868940543643,0.2949153370405518,-0.2211541596989292
12.527818734,1.6818157936845284,1.42583058449252,3.144970337524302,-0.1688014934176131,0.37224857071458023,-0.23534757259697925
12.727779561,2.3099545232931993,1.2106989762214388,3.0905238440893004,-0.5836608070359234,0.45775784511277745,-0.2419847376303659
12.927785089,2.646955959225342,0.8073625216036647,3.150496025485227,-1.060444368797769,0.42668159437248426,-0.2356234796970676
13.12776909,2.8473336386706496,0.13356116219381786,3.1854848307410184,-1.4827606551199177,0.41268085138037575,-0.24540700861290854
13.327875295,2.780535248362144,-0.4115612914173989,3.06197288827869,-1.976228968130851,0.40075469397390284,-0.23674620873202534
13.527805141,2.4101679156942524,-0.9679290706568787,3.0970936123618733,-2.4239112929667694,0.33895883961692075,-0.2474766506965652
13.727793505,1.9523875644464497,-1.2619831117728921,2.9785329618868768,-2.83554793141988,0.3526876303017255,-0.24663375567703227
13.927781164,1.3568349435202243,-1.3136505020208913,2.9072716816142328,-3.3909579849908975,0.41391973008531824,-0.2622177451722357
14.127793673,0.772374322603711,-1.0979717778014901,2.9699950817839937,-3.767548438358634,0.48523950878252076,-0.24992641095463622
14.327781962,0.3708354474564607,-0.6738740877437863,3.149104338794771,-4.309008056906597,0.5565273410483801,-0.13881073042960906
14.527791493,0.17002642371968069,0.02340405210665535,3.5940140924251045,-4.273263390765844,0.4587697450754414,0.0474633511597519
14.727775464,-0.28619062014159513,0.6563903404700286,3.6322681768331178,-4.07445212762114,0.30852122352059064,0.13101095907722088
14.927796562,-0.7235621938535377,1.2006859897709763,3.4948442570305516,-3.7076727006953565,0.264168734737517,0.1733868035797465
15.127779782,-1.3733405174483355,1.457228781417632,3.263216279395577,-3.1889814351629293,0.2611697108353194,0.1766662984957955
15.32789646,-2.013747096257345,1.463219817748977,3.0727300201341206,-2.7626428897941815,0.3135940540669993,0.20357908102411118
15.527833165,-2.522797240300865,1.1263226313153714,3.022930491419468,-2.385009160811009,0.3714233341496952,0.22177969006415432
15.727793088,-2.8709533508485703,0.6071479447456217,2.9844095543273426,-1.898232164809329,0.4061756140837911,0.22775108959755103
15.927769814,-2.951616050188779,0.0621964806073087,3.1000859863617105,-1.452556346469698,0.44666500217850896,0.22503124025151822
16.127772512,-2.7117571509749534,-0.6219019899232016,3.145113526917284,-0.9787898776733587,0.4317631018201098,0.2152088679739785
16.327770592,-2.334293811161663,-1.070074268114886,3.117626668931451,-0.6265946163140514,0.4076732306117916,0.209658742071099
16.527873149,-1.8109395933606525,-1.2991208309859166,3.132149661471207,-0.11634122680660242,0.38741756280717415,0.22672933563557157
16.727772578,-1.1893373175731943,-1.1315599897755622,3.023600109488988,0.33736508965263434,0.366085585248235,0.21717995384654729
16.927772961,-0.6598309146810485,-0.9745721677793396,3.037182374145701,0.8256664762124716,0.3788073310922265,0.22901223784295766
17.127852435,-0.33008171430050476,-0.5139274409341956,3.125775012258841,1.1250394450165409,0.526411576706471,0.09197660139340627
17.327793712,-0.02498282724507149,0.07428523721644609,3.5686063457430035,1.191418552352534,0.4558939423153918,-0.07879913515020255
17.527776455,0.28779973007674187,0.713740539747207,3.600576961505304,0.9549081557511458,0.3114647455383347,-0.1789304668873034
17.727771309,0.7155903410390004,1.211176257650008,3.3677096067445302,0.5125395900463563,0.26430722866455625,-0.213730278605986
17.927789352,1.3811410743694246,1.3612593759028861,3.1654871168993277,0.10052358614674253,0.3159501462483715,-0.23089876376463878
18.127883444,2.0426661336103913,1.2600231480819908,3.107499100896211,-0.32920897585197206,0.4021880636469366,-0.23458408124324698
18.327776471,2.4702604194946196,0.9835994411959333,3.1816944315846794,-0.8198882095782344,0.4122695772310025,-0.23995579505098455
18.527772814,2.8668945253931293,0.46665781142872303,3.1484727483977673,-1.255707637287289,0.40679869051936707,-0.24422079257044804
18.72778394,2.840919082249004,-0.21264100577342884,3.0174461395580345,-1.7201391609820673,0.4169381444589615,-0.2406242317620685
18.927774797,2.735958483601393,-0.6898815830665522,3.0615770402571196,-2.1249661068204153,0.3608289417990333,-0.24085047136032037
19.127769905,2.3138162872458548,-1.1639795060223894,3.0511706852684335,-2.6174917767248598,0.34211537219125826,-0.24841084182198853
19.327770404,1.626125455707986,-1.3728371726764683,2.970413804995115,-2.986360205758102,0.3827579472807057,-0.26776224649966657
19.527799297,1.0756847091581467,-1.1868612648606724,3.0219390899817573,-3.56960527497847,0.44122607497567357,-0.2658681194484188
19.727778493,0.5941950626099134,-0.8739535200074717,3.0340124708487797,-4.044627018310919,0.4990122717876185,-0.22764876214250568
19.927776162,0.3556228009700743,-0.38085502250996495,3.4742536321144,-4.3516589733856055,0.575391895872822,-0.02693954035643682
20.127772475,-0.047509344917417914,0.32289240389170293,3.6951578335417916,-4.203514762301331,0.3730224920144197,0.09341327398608601
20.327774414,-0.3809603936650781,0.9025363202742476,3.6519164333724903,-3.8942214473711987,0.27563954662633344,0.1593746439459854
20.527837547,-1.099246666546424,1.2992031940635012,3.3314230144031307,-3.3868603768997563,0.2606186277935604,0.17696139704946412
20.727787102,-1.6226225966921244,1.4196043632942228,3.109256084412282,-3.0122463280109772,0.28916243248461504,0.1814191919497674
20.927772404,-2.3453392675225957,1.2244725883550047,3.0607529070899258,-2.6062298894606224,0.32629055008158975,0.2169844810832778
21.127779163,-2.6855585865953056,0.7970338545840974,2.97273726649232,-2.0473653323301573,0.3749242258818002,0.22429725163052533
21.327837328,-2.9394017399854073,0.2745711858683036,3.0059815991295697,-1.6968158074583053,0.40854403465581013,0.22462847743913672
21.527769558,-2.8647249989954466,-0.34315665171061377,3.108913902408646,-1.2334434801367309,0.4356938252878236,0.22809878342265982
21.727863007,-2.5763088072341604,-0.8858828529729671,3.1151983582976706,-0.7810203067453152,0.42218832172255055,0.21416492642186358
21.92779254,-2.1280154121124917,-1.3034993667320365,3.1082964502799455,-0.38955182470040406,0.39385798677318073,0.20646821054918396
22.127795861,-1.4719254560339807,-1.4349186602393018,3.049924263689699,0.050494040391023995,0.3780010798378906,0.22208268763715705
22.327887755,-0.9189410196499617,-1.2279890802692157,3.0303227485612445,0.6297050409964268,0.3587504115823096,0.21846803489230435
22.527801937,-0.4395776579553625,-0.8271163261113632,2.995285855992284,0.9460748319188088,0.4440113615428203,0.1829058832492592
22.727771112,-0.12418974527182498,-0.2151142848656982,3.371851297230921,1.1522168531226893,0.5588618607232596,0.001934810362674965
