time (sec),x position (m),y position (m),forward velocity (m/s),"heading angle (rad), from x-axis, positive is CCW",throttle (unitless; -1 to 1),steering angle (unitless; -1 to 1)
0.009688451,-0.8641143012242124,-0.8964321718195069,0.0022833431087353005,0.9240525390734279,0.65,-0.2997692247976138
0.029706708000000002,-0.8641143012242124,-0.8964321718195069,0.0022833431087353005,0.9240525390734279,0.65,-0.29976655827838283
0.049688488,-0.8640954176686062,-0.8964174946342361,0.0026868882803430614,0.9240907927357284,0.65,-0.2997772809919268
0.06970693600000001,-0.8640927542495875,-0.8964164171003269,0.002726910566891362,0.9240800894411573,0.65,-0.037465899720707865
0.089697947,-0.8641692763848912,-0.8963102475046951,0.002315791889751471,0.9240376798249914,0.65,-0.02362113494313581
0.109687322,-0.8640991092642542,-0.8964148094159621,0.002483489796101521,0.9240929033607062,0.65,-0.015046569527323158
0.12968695300000002,-0.8640994930753327,-0.8964164580983016,0.0005746812356708892,0.9241121970312386,0.65,-0.009209965404727587
0.14969706700000002,-0.864093118643195,-0.8964032797000062,0.0028687741085441977,0.9241004528496694,0.65,-0.00497380877909445
0.169706992,-0.8641092503629609,-0.8964162066429893,0.0013847928004247574,0.9240240644695902,0.65,0.011684402752350121
0.18968553500000002,-0.8641104858392303,-0.8963978750929763,0.001432662330243378,0.9244148939691197,0.65,0.025074672867437472
0.209687551,-0.8641000488540388,-0.8963685317371236,0.0032291651622749747,0.9241386777768531,0.65,0.03876371791489318
0.229686931,-0.8641547858485048,-0.8962819275909243,0.001653334929919024,0.9241390244989524,0.65,0.05237823219063677
0.24971182000000003,-0.8641477589220413,-0.8962994872930546,0.001154848765073632,0.9241590261663195,0.65,0.06598176526405336
0.26968584300000004,-0.8633474618470542,-0.8953527041035775,0.09066810459647207,0.9236340103816253,0.65,0.07967038673103474
0.28968668200000003,-0.8614303375485928,-0.8925451130342199,0.19945069165431822,0.9219361367728784,0.65,0.09366138061011776
0.309687759,-0.8582912166682043,-0.8883401919950034,0.2829083415058136,0.9210692065766883,0.65,0.09839066354896386
0.329686187,-0.8539219219865685,-0.8825891524444359,0.37966819470418167,0.9197361826438671,0.65,0.10482750171537364
0.349687185,-0.8484168854791876,-0.8752419267888327,0.4878793424330437,0.9202858493861366,0.65,0.11064083016758501
0.369703192,-0.8417813445259947,-0.8662121546379992,0.5894895905008517,0.9219863980488091,0.65,0.11607058089281691
0.38968877,-0.8335710707344728,-0.8554870997479584,0.7047235964768599,0.9231210558196471,0.65,0.12167626447752412
0.409703986,-0.8243592082551012,-0.843037935165189,0.798243841088239,0.9274252786994835,0.65,0.12624337697619703
0.42969132200000004,-0.8141071856867677,-0.828801758800009,0.9007424078733737,0.9364992318537246,0.65,0.12923760072039986
0.449701045,-0.8026665592440598,-0.8125092674398804,1.0154790658700603,0.9483488726521507,0.65,0.13132327104883493
0.46968390400000004,-0.790045797944578,-0.7941154259947463,1.1451089510154646,0.9634853410895061,0.65,0.1157807803181295
0.48968447800000003,-0.7765749019714724,-0.7741075437816155,1.2358598799264149,0.9783850546132136,0.65,0.09794038653516192
0.50968396,-0.7622048295432918,-0.752198173848674,1.332652366097476,0.9960662853389286,0.65,0.07941920108235367
0.529685119,-0.7467690217550826,-0.7281743745404721,1.4525771194921233,1.0168430477146153,0.65,0.06014205070761904
0.5496850560000001,-0.7308347900101865,-0.7021670437116753,1.5467850138452535,1.0400117306138663,0.65,0.040344753016050824
0.5697035890000001,-0.7141449332954208,-0.6741420889657388,1.6617632140896696,1.0644925540919377,0.65,0.02039183001222329
0.589688314,-0.6972249521221101,-0.6438169578211349,1.7631466424212503,1.0882187497106233,0.65,0.0009798438721484544
0.609687916,-0.6797037839775381,-0.6113762600580959,1.8630139184718435,1.1115193759417892,0.65,-0.008048228679607378
0.6296897410000001,-0.6618587903758701,-0.5769863519361219,1.9620910948994033,1.1326636686009628,0.65,-0.02568729200336428
0.649738102,-0.6434796586980577,-0.5405632721452265,2.060844709917897,1.1489307160959736,0.65,-0.04176434260116952
0.669691425,-0.6248669389882003,-0.5021218122308826,2.1645899709066567,1.1620481602299382,0.65,-0.056751467197600734
0.689692172,-0.6058472072330767,-0.46163517513573826,2.2600136335649244,1.1717109322296648,0.65,-0.07060250844379208
0.7096885540000001,-0.5864582582006381,-0.4190882087487301,2.3708219982431658,1.1780010997273909,0.65,-0.08329916608538704
0.729692235,-0.5665156055569419,-0.37448832715535246,2.4699968154313283,1.1805832009031005,0.65,-0.09471649605803235
0.7497445770000001,-0.5461165003274114,-0.327917700544391,2.5734462786605916,1.1795382359955218,0.65,-0.10488438141265202
0.76969726,-0.5250231836938204,-0.279808952707146,2.649587001626746,1.1746910383384224,0.65,-0.10153556153428128
0.789689198,-0.503135016017089,-0.2298855161958966,2.7485687893633455,1.1700081086700738,0.65,-0.11101467442772892
0.8096880110000001,-0.48025928907239523,-0.17850841380367583,2.833498252940462,1.1640404489005123,0.65,-0.12025226261058228
0.8296884750000001,-0.4563269890999812,-0.12597425313121305,2.89720350131133,1.1564339083226363,0.65,-0.1291038168308839
0.849690571,-0.4313140389160438,-0.07231337723656417,2.975626959593213,1.1475204576866238,0.65,-0.13765457785529048
0.869690599,-0.4050682129403744,-0.01732777544940043,3.067968589268478,1.1366846996872983,0.6315558526922673,-0.14568188564788787
0.8896901660000001,-0.3775082651549068,0.03854575027540844,3.1364374324988264,1.1261772618854742,0.6132061298770984,-0.1538804550545086
0.909701281,-0.34871010614913983,0.09521727066719728,3.1916285488237617,1.1145102515956882,0.5682185007999923,-0.15727255371497126
0.9296858010000001,-0.3185613955092046,0.1526425211480196,3.260114497109606,1.1023002267868767,0.531164489826551,-0.1647616076100954
0.9496865050000001,-0.2870295845207296,0.21054795300236515,3.309714074602103,1.0856145548754426,0.5023127489546343,-0.1711049406141358
0.9696855040000001,-0.2540451793913944,0.2687055104082196,3.34565476110953,1.0664569078643833,0.47999562811292606,-0.17692265959504616
0.9896894970000001,-0.21960868980768217,0.3271123890325279,3.3815732690951927,1.043163872803589,0.4596633972578849,-0.1816574918560818
1.009688771,-0.18348906136121645,0.3854462639235463,3.4407308469576474,1.0191156572801903,0.4334747452117904,-0.18636818719364434
1.029691934,-0.16464142679847482,0.4142594210793488,3.4430093724758093,1.0063333338297757,0.4331385917829514,-0.19426478556823334
1.049704415,-0.10610159627853182,0.5004549947583604,3.4794158980951417,0.9654978961393018,0.41471285493984134,-0.1945176832178347
1.069691996,-0.08579827767448901,0.528738026872747,3.4816011430384886,0.950468843606283,0.39591959225934015,-0.2004989336803989
1.08969008,-0.021880196021201684,0.6119816027959251,3.5032634239600196,0.9017683380042552,0.3679004453574307,-0.1983989426100339
1.109686531,0.0228853311374171,0.6662843192780936,3.528318451916793,0.8689872451375773,0.34534934453246424,-0.2011697320774693
1.12969955,0.0460151234614867,0.6927642253736914,3.515924799801991,0.8523845779378297,0.3422009912806881,-0.20880529679552445
1.149698374,0.1178949962253206,0.7705206928631412,3.5295368196462373,0.7979462836488675,0.32423878952850066,-0.20586775602473478
1.16970275,0.16799019331266923,0.8202736230691365,3.521883348875172,0.7613949960950283,0.3203672042110002,-0.20827058151850375
1.189710808,0.19356744653359104,0.8443288129719676,3.5111935913424372,0.74059624675987,0.3243304794397195,-0.2152336043363376
1.20969069,0.27302052606661453,0.9139074466384568,3.526397155538819,0.6784126363963756,0.31494257809510295,-0.21522624955089362
1.229689055,0.32768446823630215,0.95769362433615,3.503338908771243,0.6374941004818218,0.30852153874689964,-0.21649785478072966
1.24968541,0.3840075690843314,0.9992725423958134,3.489701008761875,0.5955345943572238,0.3016001525032509,-0.2177764495103767
1.269688751,0.4416975702255452,1.0384368045904542,3.4852918549221754,0.5524654755033805,0.29439236037790495,-0.21899462019850238
1.289687271,0.5005799741115842,1.0748803097101267,3.464458279778252,0.5093382485154953,0.2959583146221426,-0.22042603430953164
1.309687704,0.5609062724578963,1.1089573776955486,3.4621134289067457,0.4666842447157394,0.29415171042469873,-0.22220585479754767
1.329689994,0.6220261724164765,1.1402203556062847,3.416286182599002,0.42241136156690506,0.31073586307144047,-0.2235654978122327
1.349690799,0.6842366963401939,1.1687213621144112,3.4178311853541468,0.3763365778687566,0.3139781171973757,-0.22438018064507834
1.369687278,0.7472581322148028,1.1944742559768793,3.399616435839086,0.33212540948604374,0.3324170290342682,-0.23102788984237596
1.38968729,0.8108688586141451,1.2168894178530754,3.3634486282895004,0.28493664338900526,0.3392477616770751,-0.23246573253020425
1.409689607,0.8750993721834425,1.2366743134251832,3.3546765902655316,0.23771829233906003,0.34001133115659365,-0.2341086163221543
1.429704305,0.9074204018160175,1.2455489516181872,3.351728150620985,0.21583896115733125,0.3464525984114973,-0.24339925145299265
1.4496879470000001,1.0046737786738527,1.2668342142080091,3.2984982357222576,0.14734500417290852,0.36719173389484844,-0.23897593960056296
1.469687216,1.069897372267908,1.2771624713770378,3.2980334593274545,0.10141328144046029,0.3766815798818901,-0.24111113378688337
1.48968539,1.1352173535099075,1.2843527383358717,3.2753716900441923,0.05969949476493767,0.3981021883853986,-0.2444826696367871
1.5097012900000002,1.2002537721435678,1.2882122161540706,3.247834543120789,0.014973558974764888,0.42255070503482595,-0.2446634690103685
1.5296900070000001,1.2653636611443455,1.2892576960393516,3.2516642610829405,-0.03004712049667308,0.4167955880372426,-0.24653331673807882
1.549689961,1.3302735760614266,1.2873586337278873,3.241642477043142,-0.07304825453424477,0.42001233850627073,-0.24922954572958522
1.56968921,1.3945777603055685,1.2821124036826066,3.213478377761982,-0.11983812393608,0.4338406268386783,-0.25071801964814067
1.589689453,1.4583234205201447,1.2742182990791175,3.2054854870356495,-0.16741412372566186,0.4441117892849265,-0.2519339799111719
1.609694055,1.5215038229414088,1.2633204065582695,3.1998495032206655,-0.21174824371532897,0.45740949982634643,-0.25412960154860054
1.629688737,1.5837058862755988,1.249485471890854,3.182893279893736,-0.2621200907019093,0.4788205421999092,-0.25412531137745575
1.649699991,1.6453110356317193,1.2326412642921762,3.200131188699365,-0.30778849451879325,0.48439578700043506,-0.2598470684636928
1.66970188,1.7060200563399357,1.213215667931692,3.1828409536331947,-0.3551700399434423,0.4885075857915375,-0.25871473555276436
1.689706146,1.7654376488453953,1.190770207308718,3.1671712647317216,-0.4056166453968266,0.49487060880750317,-0.25662861431257017
1.709700206,1.8237977849765563,1.1653674754286052,3.190292573451612,-0.4536629901089076,0.48930522381911573,-0.25536895996647363
1.729694571,1.881088938678017,1.1373722446966967,3.1854981068625814,-0.500491165771465,0.497360482866825,-0.25450383940788135
1.749701136,1.936951822137341,1.1070336399101552,3.1736940031149494,-0.5496181454311276,0.511125730357,-0.25280718484133824
1.769701068,1.9909926839867296,1.0737524829314475,3.169411437420513,-0.5983537204423769,0.5249326349599338,-0.251099674884055
1.789691049,2.044035048451277,1.0378165393696361,3.1987635267483654,-0.645251614937972,0.5287822313758483,-0.24984889583032785
1.809685945,2.0951076339367543,0.9995958870202845,3.186620846781535,-0.692885103279889,0.518750961179734,-0.24690200431764175
1.829684506,2.1442679824725595,0.9588115444755962,3.1985308184923973,-0.7394929751399927,0.5082185316072821,-0.24610858889098783
1.849689815,2.1915821011667025,0.9157122445663576,3.19534207566588,-0.7862904972479011,0.5065826162017723,-0.24539218098541438
1.86968668,2.2365625089022156,0.8704235105205652,3.1981604084192,-0.835089750112875,0.5056902999563875,-0.24406905937491663
1.889742993,2.2796423802225236,0.8228585580000415,3.203345910958478,-0.8827617872350785,0.5070160533506741,-0.2432016268921829
1.909687048,2.3205704052910225,0.7731219542336012,3.220476640276448,-0.9275689874917628,0.5067520456074476,-0.24319769179537293
1.929693285,2.34001030545048,0.7476624737983781,3.2032715499020337,-0.9522980537954888,0.527168905914811,-0.24911551164980936
1.949692028,2.3951860253651263,0.6682727563097258,3.216359758175204,-1.0240579834651362,0.5066482002108027,-0.23740232432990094
1.969688716,2.4290517752997656,0.6131509380851666,3.2326784109226625,-1.0675261548450439,0.4886262168106452,-0.23768548629497785
1.98968854,2.460367440197634,0.5566022916783063,3.234295857474717,-1.118291196878386,0.47948052799570895,-0.2357311016799558
2.009687161,2.4889907507475066,0.49836780481646675,3.249768329419025,-1.165138105036005,0.46794236889248664,-0.2352703871429807
2.029688487,2.514684843432797,0.43872271977308835,3.244520674133536,-1.2088365670598709,0.4677963240837378,-0.23598643086185214
2.049693492,2.5379454577055283,0.3784135046404254,3.2417302873544087,-1.2571408469966092,0.470072962163677,-0.23521940707022007
2.069687938,2.5587476343260365,0.31649413332720805,3.2599031450746407,-1.302767887988076,0.4673165902501859,-0.23537065631307472
2.08968853,2.576709681096828,0.25368716413284503,3.2530634609127715,-1.346948790448666,0.465091786222784,-0.2334072605883355
2.109685813,2.5913854228238,0.19057638001858887,3.2770585898033584,-1.3932509360919458,0.4408308282226337,-0.2326070710376982
2.129685886,2.603043705800073,0.12619855424495274,3.273072826528245,-1.4354296602343337,0.43056981034052955,-0.23348126767579527
2.149686005,2.611971349756226,0.0618773626146923,3.257892625790853,-1.4828009955294956,0.42793427535915235,-0.23281905384653204
2.169687061,2.6180398167503998,-0.0030811323048830627,3.271743316057193,-1.5284363899756204,0.41681970026338133,-0.23292639771984724
2.189691718,2.6212179297741187,-0.06852901820641501,3.278593870429229,-1.5705215878693488,0.4117128352742239,-0.23436407696478936
2.209691717,2.6214401475429856,-0.13365446901484904,3.2552243258388143,-1.6146531138784548,0.42203970139268976,-0.23515701756965432
2.229693739,2.6186829786365915,-0.19889264832497106,3.259912926170793,-1.6572916416769263,0.4244794219772038,-0.2364593759175921
2.249702453,2.6129505477864474,-0.2639578316148611,3.2637749723720155,-1.6979057242062785,0.43062058537923426,-0.23839007819628175
2.269685869,2.604689465221056,-0.32841431072795413,3.238841837381804,-1.7420446191922396,0.40413185021676395,-0.23041991663961287
2.289684067,2.59342878662427,-0.3924763211757688,3.2578944927345543,-1.7877552254793678,0.38160611903745145,-0.23140993809586183
2.309685853,2.5792084269517606,-0.45603047880406716,3.2658422727595458,-1.8289760972417233,0.36705545189620253,-0.23423836014212546
2.329685951,2.562398207953478,-0.5186296866142317,3.2383466066501603,-1.874886075258456,0.3704394608093581,-0.23572001369148204
2.349700827,2.5424462356973816,-0.5805040879912036,3.2408855448097427,-1.9218579658152823,0.36556129601333603,-0.23702447107410346
2.369704597,2.5200669516740444,-0.6414043754399242,3.2559225874240862,-1.965547656434682,0.3596404343712222,-0.23953789800324327
2.389698505,2.495006599867015,-0.7008373279057556,3.231567019439063,-2.0119020560131395,0.37346139175863347,-0.24114357265586533
2.409685186,2.467300001695035,-0.7591514169899839,3.218714184949776,-2.0581253121338876,0.35701337818864054,-0.23799375109024704
2.429689976,2.4370217819309183,-0.8161908509848512,3.2203239905902175,-2.0991457948484618,0.3420446990418698,-0.24026384451059968
2.449686584,2.404364914483983,-0.8716440977080179,3.216773414542092,-2.142386748718548,0.33240579434733747,-0.24207676975751893
2.46973077,2.3693143893435833,-0.92555521284761,3.2178959907535503,-2.186965777762764,0.3243029204342143,-0.24371871852596586
2.48978887,2.331785743312362,-0.9775047104798218,3.1959746285640844,-2.2298448521200704,0.3288426727653835,-0.2461176426254563
2.509707826,2.2923257839046935,-1.0277501183446447,3.181166020805405,-2.2744673558804807,0.3341425547174722,-0.24792914271922048
2.5297858939999998,2.2505078008616555,-1.0759326334872337,3.190757201599862,-2.3194265360343205,0.33344063254846934,-0.24977193189857974
2.549703701,2.2067956889965954,-1.1222276326803662,3.183879116219115,-2.3607734848910016,0.3225560797407957,-0.2562862371601034
2.569690256,2.161364850940398,-1.1666255479578562,3.177328671773841,-2.400184846878172,0.31571389626803936,-0.25911362068526766
2.589705498,2.1141633551991976,-1.2088768588493501,3.161372273013667,-2.4423146080379063,0.3157067310076601,-0.2612588894554101
2.60971136,2.0651864710868173,-1.2487978253868168,3.154597716063547,-2.485628654220159,0.3153467616445909,-0.2631482681447477
2.62981538,2.0146509188916695,-1.2861763962260035,3.1466573076206856,-2.532123131554815,0.3188144246375711,-0.2641095190675107
2.649703374,1.962638407666239,-1.320995861589749,3.1297618964785654,-2.5793871152744754,0.32903144785670885,-0.26465787932014356
2.669703879,1.9096323346425672,-1.3535042659021002,3.099443050758157,-2.6259503447537305,0.3480151323511207,-0.26547471235168313
2.68973296,1.855204109745866,-1.3835509655935119,3.1031497107284953,-2.6719788278859022,0.34569140823405814,-0.2709591061823547
2.7096909030000003,1.7994704808720807,-1.410609364942944,3.09184069660882,-2.7197593233452335,0.34823047613948305,-0.2722286303630121
2.729689238,1.7429231542190509,-1.4348139775694224,3.078174286304707,-2.7668473170187924,0.3553869847184216,-0.27383347523552193
2.749689623,1.6854909483955096,-1.4564516455121412,3.063882002125181,-2.814009584197171,0.3665317353613873,-0.2754124248123256
2.769688479,1.627527170154707,-1.4751242558813182,3.038061404378718,-2.8643734859216314,0.38582573066557097,-0.2757992890121233
2.789791519,1.5687280149707863,-1.4906553974173078,3.0338584021667874,-2.912667319614584,0.4006911252913398,-0.2767850848517084
2.8097993260000003,1.5094886877193707,-1.503673879256541,3.030077418815173,-2.9629427156239956,0.4190401811892035,-0.27677642710343314
2.829804511,1.449988905346554,-1.5133367852220518,3.014824037156795,-3.0141868749398784,0.445330094465381,-0.27609103285096176
2.849688027,1.3901533656213234,-1.520528616718155,3.01625395677571,-3.0616524797289713,0.43411929622336437,-0.27289882354056655
2.86971318,1.3303671361064349,-1.524606271888212,2.988001122225815,-3.1122101165289195,0.45211547945964103,-0.27344819282493654
2.889698513,1.2706909905047414,-1.525337632121974,2.9788840554914224,3.118905250307922,0.46685847023377924,-0.2733244847855933
2.909698846,1.2108281766285083,-1.5235202745076315,2.997092303527356,3.0703987405850057,0.4754062228503214,-0.27423299755277125
2.929691418,1.1510784497037099,-1.5189818927452403,2.9909467165130725,3.022570590234474,0.49666774427509414,-0.27509278296414513
2.949706861,1.0918128637645257,-1.51127257739119,3.000022841195258,2.970386952796901,0.5160284252983731,-0.2741386366862767
2.969687633,1.0327693763706995,-1.5007686485215594,3.002936488573008,2.9237166698540373,0.5411671678360641,-0.2746164928995244
2.989687234,0.9742106267353734,-1.4875191150635434,2.998949169367068,2.876171446979093,0.5298916787299628,-0.27056556825667766
3.009687771,0.9165209128508852,-1.4713975404876587,2.9924759633901785,2.826409502130652,0.5399931465137905,-0.26882359370031633
3.029687476,0.8594273753239704,-1.4525118789635643,3.0126067992922843,2.7761131005848663,0.5434566099114853,-0.2668179406118667
3.049685361,0.8030847712357758,-1.4307955420620357,3.0280923867264007,2.7273950224787558,0.5513503302811679,-0.2652040590211523
3.069684801,0.7477834472605057,-1.4063514811594977,3.026713948254202,2.6753410972127902,0.5680059332178261,-0.2622818202210334
3.089742785,0.6935557802516252,-1.3791525486897958,3.0313669144098334,2.623138858639156,0.5853123656912307,-0.2591145048885872
3.109690922,0.6667169317725334,-1.364625708135847,3.0518074712594445,2.596956190769449,0.6029026932895714,-0.2636553239406048
3.129689194,0.5885806185588693,-1.316903531811259,3.0529856246376563,2.5151115538064017,0.5965708674626526,-0.24076067466447573
