time (sec),x position (m),y position (m),forward velocity (m/s),"heading angle (rad), from x-axis, positive is CCW",throttle (unitless; -1 to 1),steering angle (unitless; -1 to 1)
0.006811845,-0.09499244543401748,0.18090703726341575,0.0010984662676411388,1.6596163453684396,0.11461033079925301,-0.026147542941827175
0.026809965,-0.09499726630979226,0.18090447597094983,0.0005279248493271089,1.6595629774831888,0.3032162364536375,0.08089303455427994
0.046817992,-0.09499457225236926,0.1808970684895635,0.0005079627402692003,1.6595727164941687,0.49530826985637477,0.09761754969950646
0.06682077,-0.09500427235097325,0.18090396556212462,0.0010915226932225698,1.6595340894339523,0.6891684695238678,0.10435322627763116
0.08683323600000001,-0.09499633373654835,0.18090257765976972,0.0014111208507339183,1.6595343932579905,0.75,0.10797913916443887
0.106813162,-0.09499179460556675,0.1809116099833062,0.0012999196286861494,1.6595379163393849,0.75,0.11024168673209557
0.126809067,-0.09499280848929842,0.18089840971478047,0.0012547133479024759,1.6595565835502206,0.75,0.11178570521886207
0.146869569,-0.09499177703713998,0.18089640966472953,0.001279029448774365,1.6595140297902329,0.75,0.11293106503521669
0.166881673,-0.09499724415244752,0.18090267563894397,0.0006157575716366853,1.65954199880634,0.75,0.12560224308503118
0.186824868,-0.0949920269633827,0.1809122731941164,0.0008709125019162554,1.6595531317832448,0.75,0.1396657552644725
0.206811492,-0.09499180268537226,0.18089853175862416,0.0010360201587492155,1.6595630703949396,0.75,0.15377283593556917
0.226835632,-0.0949967027271735,0.1809031621284608,0.0008075424812682237,1.6595818029330596,0.75,0.16786829941226564
0.246848857,-0.09498956060582671,0.1809226161355905,0.0005150306072474606,1.659540314029671,0.75,0.1818934308955902
0.26681417,-0.09499300529636624,0.1809026466306633,0.0019769093983775556,1.6595762091875685,0.75,0.1957284363420928
0.286817347,-0.0950120790984202,0.1808924652914268,0.0011590951931962157,1.659534674410504,0.75,0.2085591937497506
0.306813029,-0.094990275335947,0.18095551915915237,0.0046991979006099985,1.6595996640152177,0.75,0.221839474993116
0.32681279,-0.09522994536258922,0.1829773168556719,0.14994935439151758,1.658507986111159,0.75,0.23564939986058195
0.346864432,-0.09563195062114539,0.18886606027508693,0.3368466253534183,1.6555206263613202,0.75,0.25029059883701693
0.366821447,-0.09628423485553042,0.19754378938838216,0.4752322884338122,1.6542394652678607,0.75,0.26439650856027214
0.38682371600000004,-0.09748813672520858,0.2096347751788473,0.6554902608431038,1.6547526442330112,0.75,0.2780069666214418
0.40680911000000003,-0.09992674293129497,0.22560637196080544,0.852327358179032,1.665390723972076,0.75,0.28826505936698044
0.426887467,-0.10348065424710919,0.24506318271992064,1.0325023968325375,1.6821355997793856,0.75,0.29654055721546524
0.44684956800000003,-0.10834917167947934,0.267864970321169,1.2093733253419703,1.7071983917845357,0.75,0.2861870552071317
0.46681732800000003,-0.11467787749788554,0.2941649373252575,1.3897704374835584,1.7391433129206997,0.75,0.28642245618891865
0.486894578,-0.12256666802408085,0.32355611612069674,1.5724047731246038,1.7731539207634806,0.75,0.2861681790642412
0.506820102,-0.1329891038542463,0.35581632751027736,1.7399076885530038,1.8135078940442197,0.75,0.2838282479251501
0.526822973,-0.1458753588729451,0.3903375004128606,1.8765110841174122,1.85628448571943,0.75,0.28079615037361294
0.546816641,-0.16119825152096273,0.42687066764166787,2.0108347818622843,1.9033694294914436,0.75,0.2763769510648364
0.566818112,-0.17893801609796253,0.4652247935426894,2.1494139914408934,1.9522858349808627,0.7431060007269089,0.27138368989850964
0.586842148,-0.19978779873159536,0.5050223216234538,2.282282226896123,1.9992174642512255,0.7038517329126878,0.267059193332042
0.606817998,-0.22308903269885172,0.5462361556380355,2.3990739477455736,2.0475848513214983,0.6523765882440087,0.2576257809713204
0.626813975,-0.24908904368780238,0.5879976790223367,2.48783782534444,2.096495088484657,0.6168542524219143,0.25448663085797574
0.646814207,-0.2780616026873309,0.6306880367654264,2.59125380444546,2.146859800408036,0.5779305199445136,0.25105947046301214
0.6668209620000001,-0.3100926721304787,0.6735470138206483,2.681752617468986,2.196899242820624,0.5455010760771445,0.2478837486239301
0.686826441,-0.34501356009531636,0.7167465586352672,2.804926341040537,2.246444919079436,0.5034134325430295,0.2449880097640356
0.7068181330000001,-0.3825743340013213,0.7590987060611497,2.853131485090539,2.2969373051939894,0.4900780352581612,0.24181073496276878
0.726810422,-0.422803284918556,0.8008306322988645,2.907356874558499,2.3448017115411335,0.4766883094482691,0.23952351181311546
0.7468106560000001,-0.46534312711673437,0.8410351157506623,2.9376964334422784,2.3929902642709853,0.4831350573033927,0.23558711930333096
0.766814045,-0.5102602789300791,0.8795928068511789,2.9685296448705225,2.44214495130637,0.46717429612554817,0.23434302874689664
0.786821218,-0.5570210570861677,0.9163402784230869,2.9913898335186504,2.4905617677751604,0.4568899379078405,0.23351788803914897
0.806815846,-0.6054923517516612,0.9513396708732665,3.003273068657649,2.5367984503395697,0.4534281973503285,0.23352839254278612
0.8268093630000001,-0.6562989702526254,0.9841497188282012,3.0300188198582645,2.5840396865900495,0.4474580509476474,0.23325654744535962
0.8468151530000001,-0.7085521886237015,1.0148463245241157,3.031842143989473,2.6319846628492947,0.45340394368330095,0.23275312813514334
0.8668231110000001,-0.7624440538703351,1.0434463758473547,3.0482668714788628,2.6793317717643,0.45706755571755037,0.23238694295587664
0.886825347,-0.8176560292562483,1.0695496252936765,3.059117105983757,2.7288969896095927,0.4679890146845109,0.2334219376073189
0.906819649,-0.8742252405578874,1.0931931401807515,3.067398871339605,2.7786078097015614,0.4586515270036876,0.23165018829746464
0.9268094760000001,-0.9318015179585655,1.1144392823945537,3.06855407495094,2.8266776771414124,0.45465584049138436,0.23060309338036783
0.9468179000000001,-0.9904896374662905,1.1330631230491832,3.080233757733654,2.8771792253019433,0.44963211305305334,0.22889193039526481
0.966858898,-1.0500792758797917,1.1487216327234138,3.0788557130565803,2.9260253498837554,0.45219484262011556,0.22781763115373146
0.986821939,-1.1106449739112279,1.162083140651251,3.0910138851301356,2.9768156131162895,0.45269411198994525,0.2260794711903404
1.006811958,-1.171774258525987,1.1723228845041724,3.098141640389528,3.0257011363816475,0.4579179068336698,0.2249396822992751
1.026848147,-1.2334720995247028,1.1797272231911633,3.1004274208354934,3.0763684696456504,0.47103115748740826,0.22419238218024615
1.046864161,-1.2954692385091167,1.1842156743098395,3.10446870477952,3.1255667606503197,0.46277697760167713,0.22276987886048763
1.066858348,-1.3577915146366017,1.185873179693644,3.1155256140622227,-3.106958886137531,0.4547855316725938,0.22103654301347328
1.086813985,-1.4202957165017989,1.1839606400169893,3.130289493457495,-3.0565913355392302,0.448250461660466,0.21949080686236794
1.106812068,-1.4827351799693396,1.1795890094552355,3.126561827633983,-3.0062144017023447,0.45155435324850784,0.21805792105228541
1.126808321,-1.5451884644569294,1.1723464575439593,3.142511324564957,-2.9587189143895354,0.4506252653114798,0.2176017289358172
1.14693122,-1.6070944253466355,1.161950886533117,3.131345941278732,-2.907889625839862,0.46280400630702045,0.2160743393333889
1.166810875,-1.6686867908390757,1.1485999581954551,3.155884894164426,-2.8602545995843394,0.4625129957655352,0.21794482527834932
1.18681588,-1.7297735812201473,1.1323793140819496,3.1702733543658845,-2.8114483125163474,0.4511270163480054,0.21615249022904554
1.206810781,-1.7899068092991968,1.1131310638016183,3.1521753974724995,-2.762635229577757,0.4544952803570351,0.21449620537316155
1.226835511,-1.8491130771338733,1.0911053847275096,3.1490669206844673,-2.715874895936494,0.45505486343544405,0.21364470951084447
1.246863986,-1.9073612237738755,1.0661702978936591,3.174871526705857,-2.6688147233344126,0.4476410032679816,0.212752808420649
1.26682698,-1.9644307194158892,1.0385489888335802,3.1727827558759683,-2.621403633119455,0.45339585772189844,0.2117057964789079
1.286822573,-2.0202271411878727,1.0083551004921363,3.173175706655428,-2.5765246680227327,0.4611059065146305,0.21147131871882469
1.306810908,-2.0744371144690867,0.975655130013763,3.157883348934832,-2.5341082524745775,0.46871768886952125,0.21305759632231008
1.32681107,-2.127325793415138,0.9401669233156157,3.175266452665187,-2.4901024655254056,0.4527949909423779,0.21242064762751767
1.346893534,-2.178435279421461,0.9024208064928441,3.1862748911452115,-2.4460985691341244,0.441843880338835,0.21203185405533267
1.3668705540000001,-2.2280187669975433,0.8624495951460978,3.1840264715237097,-2.404232986562491,0.43848717927607916,0.21244976400479776
1.386814432,-2.275817414732533,0.8200909354948891,3.1951498848609012,-2.3591608069836525,0.43275693696692763,0.21189882891332112
1.406810414,-2.3216834366707544,0.7754198529919921,3.1992709572762354,-2.313812864457602,0.4323812086340023,0.2113549751222427
1.426860466,-2.365652342392943,0.7291834333266924,3.1794075494311618,-2.270124732960703,0.44389870597791753,0.21141700815443237
1.446823934,-2.4076640826451525,0.6804386929393101,3.2167157536866617,-2.2239201162995648,0.4366201150945122,0.21056028017373118
1.466882174,-2.4475476622981263,0.6299614620558114,3.2221292805778066,-2.1807834996320388,0.4192900981936099,0.20661292484095936
1.4868168480000001,-2.4850730019833605,0.5775822156227769,3.218767795293055,-2.134603760088193,0.40692759073011064,0.20599783958903464
1.5068119530000001,-2.5202848568809757,0.5236538264621414,3.2183307938067696,-2.0858767236650095,0.39630906864774523,0.20486814643660933
1.52680838,-2.5531169954504884,0.4678717670797209,3.2473784832222057,-2.041675810753186,0.37746937737210395,0.20548226405597136
1.546894776,-2.583456534429294,0.4106542155750519,3.239094480329331,-1.9979688027728364,0.37581360742661024,0.20651227095618288
1.5668223239999999,-2.6112839807763892,0.35207921526150165,3.2400032217067185,-1.9554307667873483,0.37378606353599036,0.207951589501449
1.58682418,-2.6362455433777208,0.29244937622144307,3.2296513056907337,-1.9101593204094989,0.37924309706855025,0.20859769911316706
1.6068089859999999,-2.6586657770545066,0.2316352046615527,3.2434364615211266,-1.8666138955755598,0.3622701085555111,0.20839006817575031
1.6268734249999999,-2.6780944461547316,0.17005551512839348,3.23469905952205,-1.8215901125551923,0.34863087308295987,0.20824415305221317
1.646893766,-2.6949867832962453,0.10774790305981781,3.230581615011045,-1.7768491748591337,0.33604592246336673,0.20851987910164993
1.666821831,-2.7090254418851383,0.04476550260013682,3.2335300676887044,-1.7328493562017895,0.3236736838410103,0.20928106227960158
1.6868244,-2.719973853864305,-0.018505311149441248,3.20858777685851,-1.686612189798852,0.3248555166902295,0.2095949899422524
1.7068114140000001,-2.7283240816845975,-0.08207239505028628,3.213355104132243,-1.6399879621279267,0.3179142969231916,0.2099751633458589
1.7268124720000002,-2.73412629449704,-0.14597911606397865,3.208883386477168,-1.5969758861378835,0.31767113640919203,0.21171074244075497
1.746837835,-2.736490005593103,-0.20977915944961453,3.191107390073424,-1.5494163934989182,0.325685103715559,0.21200514080864266
1.766811597,-2.7363568557663114,-0.2733284387294024,3.175122853008225,-1.503528289019895,0.31592010548580396,0.21102839685649222
1.786832549,-2.7335001200665117,-0.3367784247657504,3.177274000242731,-1.4579680850397976,0.3008625421204858,0.21233582878478344
1.806848106,-2.7275497096981933,-0.3994174156865541,3.139602037184345,-1.4104705569620413,0.3042224709128338,0.21332363508073443
1.826809463,-2.7191272952753662,-0.4616020561104188,3.1252261956050322,-1.3642084792185554,0.3022897664315335,0.2149673459068948
1.846858976,-2.7077560515763657,-0.5232549603473581,3.155790079466401,-1.3185932906645454,0.28693751758022196,0.2170958235541997
1.866817654,-2.6936005377842998,-0.5839147656865831,3.1250808374863026,-1.2696447130615671,0.29839646669437103,0.2181622614904562
1.886819363,-2.6768832449166933,-0.6435625719834722,3.1049216042021595,-1.2213493907825241,0.30963337650451855,0.21951429970749126
1.906813046,-2.6576828853242946,-0.7021935511408983,3.091978668279004,-1.1732742400473335,0.31078281693293897,0.2234051219361564
1.926808153,-2.635477884545463,-0.7594136773585778,3.0631769648893927,-1.125691203465662,0.31398378184498993,0.22420915672628414
1.946874233,-2.6105905727885403,-0.8151092451873412,3.045872206620046,-1.0789038069159147,0.31620226330228,0.22552712480409717
1.966816708,-2.5835416377325178,-0.8694178191295394,3.040672693193784,-1.0324031637661526,0.3173017123851043,0.22698328309239402
1.986841432,-2.553839750024606,-0.9220037103925748,3.019400139247877,-0.9848073252177958,0.32789296306866844,0.22818290184106266
2.006863419,-2.521860557881357,-0.9726808410452548,2.9976220325813645,-0.9384309410464343,0.342189655905636,0.22974828431129501
2.026862723,-2.487733104759928,-1.0218383536210094,2.9987238280965403,-0.8942152942429399,0.3513862619170845,0.2319136559529747
2.046810446,-2.4512325837626694,-1.0687612710108938,2.9684866761287894,-0.8470727928150449,0.37298891662168937,0.2360208828042658
2.066859327,-2.412368665406089,-1.113752404507073,2.9716973486441396,-0.8033835853453376,0.37158397102710505,0.23828277792848068
2.086828229,-2.3720329299125074,-1.1566230874811245,2.950286822128729,-0.7582639371518985,0.3827777774883543,0.24005441466818125
2.106808617,-2.3297386553594106,-1.1975160340695645,2.9504076950630522,-0.7151089030422203,0.38939983353989444,0.2424594751860789
2.126885292,-2.285300173036057,-1.2360220320062099,2.946807148924908,-0.6689813164766711,0.40086156683149704,0.2438373162087375
2.146889998,-2.239351077003656,-1.2723954955935337,2.937036652599662,-0.6236123238327489,0.4180047636344978,0.24523401856986377
2.166822644,-2.191649150046543,-1.3065936729872212,2.9339589776305433,-0.5777798075278539,0.43591792383181355,0.2461783505133017
2.18683361,-2.1422011284595235,-1.3385350717420657,2.941644989288334,-0.5300013566836947,0.4400187687958289,0.24616072108763767
2.206813247,-2.09118382413638,-1.3679929774495208,2.950194935026905,-0.48446816590176495,0.4361524176532151,0.24646197995000946
2.226828735,-2.038860035624535,-1.394942693074418,2.948583038285266,-0.43671150156840227,0.4389742889441204,0.246109532819085
2.246852553,-1.9850911632511747,-1.4193683364151357,2.9689731903738865,-0.38708086736987146,0.43663692102514173,0.24514511876382306
2.266819076,-1.930508301335461,-1.4410940202084954,2.935478605823562,-0.3372393281137577,0.4571150814013882,0.24400367066448164
2.286823887,-1.8744458854050703,-1.460432820422829,2.9610934300807434,-0.2909829075034809,0.45878011232409643,0.24397507872447802
2.306862859,-1.8172618442262432,-1.4769572329663019,2.9859695064251484,-0.2428319552891575,0.46366952768654757,0.24316537613302838
2.326810658,-1.7591861748985136,-1.4905664702585142,2.98496635993866,-0.1934998773104142,0.4808633678536859,0.24167001672486227
2.3469536460000002,-1.7005356711791944,-1.5016841067439157,2.9853070173112894,-0.14787160763025484,0.47697099262714215,0.23818517597728867
2.366813026,-1.6409772712340294,-1.5100900710082983,3.0106246638305874,-0.10194709159948791,0.46966269927229687,0.23833854462701098
2.38682722,-1.580887622353762,-1.5155727639695922,3.0212274690797782,-0.056018280636306254,0.4708243439968742,0.23861120376095413
2.406807379,-1.5204641312784715,-1.5184247244417701,3.0178814016320414,-0.00835366897916445,0.48014875527267664,0.23824088599220675
2.426865652,-1.4596122005625842,-1.518432955262348,3.0460796620411683,0.03524113466701369,0.48109801131853824,0.23917517931482282
2.446888755,-1.3984799289209278,-1.515219440925075,3.06100184807522,0.08288761105941989,0.4898609363170367,0.23856722070627123
2.466815118,-1.3372671898515962,-1.5097385198575146,3.071690204970642,0.1290585873079448,0.5031319044981837,0.23818011159949462
2.486849237,-1.2761950119939702,-1.5012776638650391,3.088434688019864,0.17670132714483877,0.49179363810372134,0.23260533112472337
2.506812836,-1.2153384170628634,-1.4897264403954642,3.0991636773246327,0.22408031218507157,0.485706886533895,0.23147596677131557
2.526807615,-1.1547808648348132,-1.4756046390642579,3.108987756461758,0.2718552801862727,0.48273873747564056,0.2303337328838822
2.546852077,-1.094713336849197,-1.4586654376982497,3.128099159971678,0.3202719954280619,0.479243738511044,0.22905123179384246
2.566814393,-1.0353494088105233,-1.438963000910568,3.1286961720617934,0.368371626942581,0.4852362471521925,0.22780511968949493
2.586841348,-0.976670678904277,-1.416505357059969,3.1366949477308816,0.4168006283939316,0.49143750519447993,0.22642956018845314
2.606870545,-0.9189271616132587,-1.3909853756671198,3.149219589326922,0.4679224429267095,0.4988015282129656,0.22403475592191144
2.6268598499999998,-0.8621494983256992,-1.36283434482064,3.1619539934566037,0.5190189657987653,0.5088697166489821,0.22145817893821043
2.64688539,-0.8066200263062456,-1.3320997382643307,3.164123255177042,0.5664660204106561,0.5086044580535496,0.21012325333748483
2.666812095,-0.7523685909956229,-1.298826445209411,3.1820032254300075,0.6149711644010856,0.5145417186266987,0.1976421686026235
2.686835911,-0.6996219998086571,-1.26291044766918,3.1883157150137946,0.6624260033154035,0.5246745246291175,0.18541299667569294
2.706814605,-0.6484090517023835,-1.2245778871364223,3.202266120367606,0.7081967009751088,0.53199156705422,0.17363465304022144
2.726806663,-0.5988008742669751,-1.1838625073135083,3.220155553178039,0.7538668473790977,0.5378771306103753,0.16178671006963743
2.746888373,-0.5507930914169707,-1.1406824622016019,3.2347650528246956,0.7997484143076229,0.5449775640678449,0.14977584968429417
2.766815946,-0.5044681786031621,-1.0952963233755009,3.243250107620824,0.842608784576405,0.554083288787171,0.13865620060360484
2.7868461780000002,-0.45967136175015555,-1.0477690231709247,3.2631380499405798,0.8836010875070047,0.5462029165881026,0.12437279627256567
2.806812181,-0.41685959539055634,-0.9981131278081578,3.2831360538418504,0.9250782356829578,0.5498085934124155,0.10106517911899356
2.826807849,-0.37570931803814284,-0.9464868547015788,3.3040749432489114,0.9644091128599961,0.5543309801357712,0.0784116776061771
2.846891813,-0.3365112784000675,-0.8930247659124214,3.3247254511626494,1.001622373881088,0.5603662494900844,0.05638223022257114
2.866813766,-0.29880995088704415,-0.8377069374227625,3.3457596853973848,1.035606124318882,0.5673754782746088,0.03550021956719256
2.886820051,-0.262989235536183,-0.7806313251043115,3.373686239437333,1.0656533673637318,0.5734202617646119,0.015886148669014413
2.906811062,-0.22897132282670501,-0.7219213789446601,3.4017563002723685,1.0927644397630771,0.5808217985697288,-0.0027254650282409233
2.926812827,-0.19607264607086355,-0.6616999572848635,3.433419176069858,1.1146692668744371,0.5500755536517722,-0.014425142117305032
2.946883779,-0.1643782841773945,-0.600143273490586,3.4672021720901602,1.1304498025055894,0.5364365637288326,-0.029523319573364494
2.966817877,-0.1335533645024125,-0.5372658160960879,3.5185509629880114,1.1400125333931665,0.5178985913283222,-0.042631870363874426
2.986826879,-0.10332437457162803,-0.47335868771308437,3.532717299736461,1.1461999537512,0.5139988163105036,-0.0547761224616343
3.006810746,-0.07337625941547027,-0.4081886033493895,3.5933743744278535,1.1478271699332339,0.49510015660264944,-0.0654920171090794
3.026809399,-0.043505268327454154,-0.3422662536699964,3.631201685230456,1.1469984803552034,0.4858257173928155,-0.07547085804092733
3.046872565,-0.013185695690942469,-0.27569274189272736,3.662575103923512,1.1449699209908628,0.48043427237188263,-0.08512418146908335
3.066812102,0.017667513194100398,-0.20887630116799552,3.685568413905958,1.1377095159748354,0.45259899393582087,-0.08796068813914067
3.086829668,0.04913110497088876,-0.14171008596377907,3.7094012323936143,1.1278592415617943,0.4338427803310562,-0.096061990528866
