time (sec),x position (m),y position (m),forward velocity (m/s),"heading angle (rad), from x-axis, positive is CCW",throttle (unitless; -1 to 1),steering angle (unitless; -1 to 1)
0.016874389,-1.58716402286642,-1.74527037846025,0.0024785691426845165,-0.04219799579246261,0.75,0.5160742793357436
0.036876719,-1.587175336118609,-1.7452782641006699,0.0006135818283697818,-0.04229440067346764,0.2544358577005075,0.17243429133488208
0.056877947000000005,-1.5871844938412496,-1.7452790441974801,0.00337367154069666,-0.04230230639969791,0.43278380483324713,0.1537454913733896
0.076865397,-1.5871564550795982,-1.745288752805776,0.0006547426029964357,-0.042252246941851916,0.6150832431154966,0.14587763411630011
0.096882942,-1.5871509941865234,-1.7452841927672134,0.002214473653864863,-0.04228633160480977,0.75,0.14156679600347846
0.11687481000000001,-1.5871868451764,-1.7452665196125046,0.001461713670066074,-0.04218401361375413,0.75,0.13880083622258169
0.136878845,-1.5871683564026742,-1.7452714258453759,0.0006316061011820709,-0.042182158608346364,0.75,0.13691994756426856
0.15689128800000002,-1.5871823662127067,-1.7452894186858885,0.003657759171917814,-0.04230777383867514,0.75,0.13558995772177027
0.176976296,-1.5871816034721447,-1.7452610061335867,0.0011062190835407827,-0.042145517130952936,0.75,0.13448040645651352
0.19700398800000002,-1.587148117453926,-1.74528377980603,0.0033693523930412588,-0.04222793530062428,0.75,0.15165363666390821
0.21687898700000002,-1.5871797953472009,-1.7452927651313321,0.00320355316339654,-0.0423152233710248,0.75,0.1685847011608632
0.23689732900000002,-1.5871571308897225,-1.7452779808644783,0.0006836436863274213,-0.04226532589870685,0.75,0.18551486143097967
0.256895068,-1.5871562125628964,-1.745278665400156,0.0005642264413967948,-0.042363602488938425,0.75,0.20232987142509817
0.276989513,-1.5871969177232566,-1.7452783214783816,0.0009829251128296655,-0.042248812398799414,0.75,0.21892687450177178
0.29696113500000004,-1.5871527435750528,-1.7452795569005268,0.0007583052921627837,-0.04226998597491229,0.75,0.23518446569638518
0.31688675800000005,-1.5871643777390296,-1.7452602217150819,0.0031099106233679467,-0.04214414222306459,0.75,0.2510069976128436
0.336873914,-1.5871313461584406,-1.7452557390736934,0.004382360018509701,-0.0420548949422708,0.75,0.2673795055848852
0.35686879000000005,-1.5857240983525371,-1.7451976139408227,0.09509583019631078,-0.04183790314161358,0.75,0.28048922365408513
0.37687004100000004,-1.5818614569915512,-1.7452369693169372,0.23113716598483008,-0.043343094484652636,0.75,0.29424372929850445
0.396868041,-1.5745239529088373,-1.7449831865092051,0.4118822341397641,-0.03932839505430924,0.75,0.3060775641737801
0.41688248600000005,-1.5642085273007633,-1.7445355418673325,0.5488366071372409,-0.03148905640372596,0.75,0.3165614584489661
0.436954877,-1.543048596904252,-1.742618685179353,0.7844806237687002,-0.005040876183967707,0.75,0.3206985647847882
0.45687023600000004,-1.5243812474176206,-1.740418202644937,0.9125622748588623,0.02171362651102349,0.75,0.32866497714496296
0.47686239500000005,-1.501930027504942,-1.7371562719464195,1.181004552338333,0.05285065677828116,0.75,0.32945982311641997
0.496864273,-1.4895467824905946,-1.7353050845117775,1.2520848693420874,0.06975936504143712,0.75,0.3349649921947333
0.516888564,-1.4626773959957664,-1.7303739098174844,1.3946909550108477,0.11059228137450187,0.75,0.33246145747434436
0.536880759,-1.4325316156227808,-1.723737216834694,1.5851210972684473,0.1566369615726219,0.75,0.32814976057496276
0.556869417,-1.3818856597421356,-1.7099618881275593,1.8136136494685515,0.23576791611505568,0.75,0.31272783942206644
0.576879092,-1.3637778168339312,-1.7041080798191925,1.9030529327880346,0.26479577276028604,0.75,0.3138800953307925
0.5968836940000001,-1.3262841812431179,-1.6908495522303748,2.021367497204619,0.32241787438795483,0.75,0.29787043305192584
0.616878977,-1.2869054119254122,-1.6746625875708208,2.1569214110366337,0.3852353691285917,0.75,0.2889351536721197
0.6368928300000001,-1.2461034415872998,-1.6552498486953406,2.2895052587532287,0.4492440600649692,0.7161368782337256,0.27972016637157815
0.656872333,-1.2045508385582315,-1.6329572905605871,2.3804477737431373,0.5132372466288324,0.6851325449516346,0.27057515722676456
0.676874611,-1.16229441916083,-1.6075204064927657,2.4935814103050005,0.5776385093746986,0.6478470353603527,0.2613568995662618
0.696879201,-1.1198721382533567,-1.5789176570783021,2.5801419083444124,0.6411367785402444,0.6218359122097575,0.2524684552066279
0.7168903710000001,-1.0775061713436416,-1.546923340212591,2.6721636231686103,0.7071939022110864,0.5955917221876738,0.24266276214183305
0.736861995,-1.0149708508353696,-1.4932123637786827,2.7835463366264177,0.8005825003486017,0.5607257932000471,0.22383771454239085
0.7568603230000001,-0.9744211261997918,-1.453591473702019,2.862649355543006,0.8590673452766545,0.5372267804497004,0.1787481950852893
0.7768576960000001,-0.9354633415810202,-1.4109909018069033,2.8957135071144724,0.9174031079176139,0.5347798082859048,0.1455089242522367
0.7968715660000001,-0.8978021385646602,-1.3659441890821218,2.949386924007062,0.9700971736897971,0.5267600445215547,0.11421796938016407
0.816876365,-0.8798425219505971,-1.3424429244612133,2.9577986200992403,0.9950216725726838,0.541392577509029,0.09234264223927999
0.83687568,-0.8454027343845242,-1.2938546864847518,2.9915179690145806,1.0427686428086147,0.5445357837624467,0.06287069291799506
0.856872567,-0.8132138307072495,-1.2430169205497037,3.012103906663236,1.088349268977208,0.5543869310710676,0.034195918191341323
0.876869349,-0.7830528284303555,-1.190052062256946,3.0460660515241975,1.1280948796198735,0.5614967087939757,0.0076449456447497625
0.896872325,-0.7551227600544622,-1.1351527389027543,3.0829504682375206,1.162858805518824,0.5696940431393142,-0.017061204250435176
0.916905285,-0.7290835026843808,-1.0790769449496536,3.090483012232564,1.194151771082743,0.5906928233319911,-0.040417852805582216
0.9368817150000001,-0.7047640041949373,-1.0211911003673297,3.1388033615350186,1.220666743777043,0.5148602628155118,-0.05911505139476543
0.956869229,-0.6818736066916491,-0.9618951171080697,3.181273303178194,1.2389151786040864,0.5034968911945681,-0.07638488460286462
0.9768831040000001,-0.6603560949294273,-0.9012784183859623,3.2296824801315656,1.2526011759275082,0.49155347839800007,-0.09215578571655343
0.9968891510000001,-0.639832803697899,-0.8393240852611158,3.2764628128393736,1.264242075002449,0.4817259219011219,-0.1072661915978922
1.016881466,-0.6105737240947843,-0.7442831974177374,3.318015292051009,1.2772755263482787,0.47030482957274866,-0.12329015072842282
1.036872434,-0.5913455533711974,-0.6796484630008491,3.3578715860328443,1.283375956834919,0.4661311810234301,-0.13651716406815925
1.056867638,-0.5816901556795191,-0.6470481437989343,3.400011053880864,1.2842731101096792,0.4677904200673663,-0.1474001225720592
1.076944904,-0.561740061831188,-0.5818229209229511,3.397552673958756,1.27706259708937,0.4165976877779333,-0.15774241635392228
1.09695456,-0.5406026234132701,-0.5164834505563501,3.4415287528068355,1.2614697717495735,0.3991820853925162,-0.16624621422882283
1.1168851850000001,-0.518558827675795,-0.45092005477566643,3.4665742389694203,1.2409253212553797,0.39090719109106253,-0.17305901980782637
1.136884484,-0.4824795279896249,-0.35284648577480643,3.480082353423311,1.2001260604230983,0.38428604729698634,-0.17339504887517573
1.1568891350000001,-0.46968697878047366,-0.32031823027181733,3.4953350645342955,1.1844152501889547,0.3893887312680578,-0.18141511427786
1.176869222,-0.4423957904538583,-0.2557056237049418,3.5110592472301105,1.1512900625506894,0.39182937803350293,-0.18379605327346696
1.19691795,-0.4135411310583189,-0.1918067927465387,3.5069634162804033,1.1167512332103746,0.3676578801268998,-0.17631397443273875
1.216875874,-0.38252785163575,-0.12872074141023832,3.505692994731662,1.0808705345179948,0.3600111303153357,-0.1791379394716279
1.236873717,-0.3318321143196178,-0.03622480310072874,3.5242935898239596,1.0230802501383935,0.3432660461329682,-0.18199372517833684
1.256870661,-0.31393404108270995,-0.005977302933892073,3.5146156147386884,1.0031836723505339,0.3493423542981576,-0.18325158093558458
1.276870772,-0.27638050417334953,0.053548026116639835,3.5160502582089066,0.9622775322052421,0.3495712574104587,-0.1847198927828649
1.296903646,-0.23652132317467284,0.1115379572245292,3.5192644213856994,0.9197209095234118,0.35222258096320436,-0.1856339794364998
1.31688006,-0.1946015454584135,0.1677595568662393,3.5177316440599333,0.8781400627356372,0.35961572195362107,-0.18678976896605773
1.336871365,-0.12791295703922798,0.2485406677945088,3.4895306384347906,0.8091938157496789,0.3482512138087367,-0.1737354303438037
1.356875043,-0.10456227136648744,0.2745489622357755,3.495262366591033,0.789120610039667,0.343404998197456,-0.18073658910672918
1.376874949,-0.05648465453938648,0.32480688964919174,3.477336001962867,0.7462733591863375,0.3447599835123469,-0.18056814822516862
1.396916981,-0.00661845326738656,0.37277599609571177,3.449311894645017,0.7020277347427653,0.35235783818069905,-0.1800398069414393
1.416883806,0.045192533931733295,0.4186890260164697,3.456581329406024,0.6600578084900991,0.3499324782274692,-0.18031543260831787
1.436878602,0.09870482412530812,0.4619346093542971,3.4455000370403353,0.6135405140331482,0.3567596245693241,-0.17901450974417316
1.456875799,0.15360073776529912,0.5028318669218202,3.421058772437953,0.5699142398089182,0.371090145629609,-0.17868092774706704
1.476858532,0.23911456664581812,0.5595087604966016,3.414309238964261,0.5057993491477937,0.3575609873682179,-0.16386772393569887
1.496907954,0.29795033386678865,0.5940670047555973,3.4127899111185114,0.46114121879150066,0.3464393634309406,-0.16348435194452957
1.5168829650000002,0.3277851459684131,0.610202225007064,3.39184514048413,0.43924671766415296,0.3497134410220364,-0.17055066623636808
1.53687344,0.4189225340170068,0.6550724864737748,3.374126176161199,0.37648661820954227,0.34515645699860287,-0.16489716644573307
1.556869542,0.4497925614144369,0.6689197521502163,3.3833494620450297,0.35579558141621803,0.3432471522396919,-0.17272760198149711
1.5768658740000001,0.5128026153409713,0.6941168506987471,3.390171063892107,0.31466596007254616,0.34030884911776926,-0.17417293532472936
1.596891657,0.5766283161058681,0.7166675874834826,3.3809501013421466,0.2746001037852787,0.3460902907561088,-0.17603451196209743
1.6168702590000001,0.6734406179747595,0.7450774712560372,3.3535455742252083,0.21450978165243906,0.3398886673492725,-0.16716512724303667
1.636877728,0.7059920033270493,0.753395524885049,3.3597361570938573,0.19369189603221054,0.3290441828767653,-0.17395629390801093
1.656871038,0.771506443060521,0.7676085284639271,3.358055412251355,0.1554628946158264,0.3187634074177098,-0.1756358540773271
1.676866368,0.8374437769489275,0.7791829057966528,3.347521492811405,0.11791180262060123,0.31420204109540734,-0.17778436690763133
1.696953745,0.9036499610379507,0.7877784528729929,3.337724726708932,0.07807776716196271,0.31201882227189653,-0.17938712226473133
1.716885232,0.970183139094555,0.7936834234902368,3.3573406471644747,0.03838766658340557,0.30195760109790754,-0.18106782306342184
1.736872345,1.0364789462655626,0.7969151400075042,3.3150347413961905,-0.0013623051941858626,0.3168734389301259,-0.18284221469018996
1.7568666290000001,1.1359120844800643,0.7965700620325227,3.314290810833301,-0.062302879271452026,0.3151263642199778,-0.17800458487953338
1.776865635,1.1689968416115235,0.7950978105893717,3.311749807517924,-0.08225544721944272,0.29902467429369917,-0.1777955771464835
1.796869378,1.2347732768010642,0.7900254088502087,3.3023582433247545,-0.12311236737537659,0.28829503013386143,-0.17965882484715678
1.8168781520000001,1.2999414323040637,0.7823569733063133,3.2805328301622856,-0.16521898472656518,0.2849276772777908,-0.18142742877432
1.8368686840000001,1.3966275540476685,0.7654336013312796,3.2742741776171504,-0.23074753254119032,0.27443805428259294,-0.1761154119508447
1.856866946,1.4602072232209184,0.7507275636843344,3.267794258522209,-0.27310016360417666,0.271658337542527,-0.17827336306884148
1.876865702,1.4916102236944038,0.7423611546699189,3.249838824517627,-0.294498437020063,0.28061791852082607,-0.18704414597703378
1.896933642,1.5536326448023812,0.7236490709154924,3.238915615473806,-0.33807946043207243,0.28584670698794346,-0.18902636429547
1.916882298,1.6148313292683252,0.7024096589059214,3.2302338763355087,-0.37962326860685486,0.2934529864622845,-0.19161041517106886
1.936895408,1.6746736423516895,0.6785751023034945,3.213803379458643,-0.4219023927462539,0.26863977736024797,-0.18420867977030117
1.9569057070000002,1.7330570719742182,0.6522166244145342,3.199463871099005,-0.46580660681619024,0.26162925747022137,-0.18617225549998087
1.97696581,1.7900944138414858,0.623462987042168,3.1865304095329217,-0.509040675017447,0.25733035860076525,-0.1887245375422088
1.996882409,1.8453402953780842,0.5921134012577746,3.1678621119418477,-0.5514460231554794,0.2583764783447394,-0.1916756200145768
2.016880104,1.8992086051589043,0.558700206346651,3.1601453912756763,-0.5932031640990787,0.2589391642125765,-0.19508898167012467
2.036869422,1.9514042342507003,0.5233954198205633,3.1321344349603946,-0.6371659787019187,0.27027620285175347,-0.1978320940405984
2.056867919,2.0015519154697277,0.48581178121331703,3.1443390348013893,-0.6826393366693316,0.27074764580813676,-0.20004811230884767
2.076968895,2.0731600317978756,0.42567257046455315,3.1134956951843824,-0.7456407144616083,0.25763597638141605,-0.18780620939405898
2.096954885,2.095977797509923,0.4047359671790523,3.0967592564232875,-0.7677620625464004,0.255247766010788,-0.19682678894018704
2.116893078,2.1401236107656487,0.361520595012215,3.079269850199979,-0.810628509557383,0.2522387704753689,-0.19985340739300722
2.136868259,2.202425320723313,0.2934312263293806,3.0717889770705025,-0.8744949052992689,0.24499619195122044,-0.19682073220764054
2.156885869,2.24093842824484,0.24622458114218249,3.046301665034992,-0.9196102043049665,0.25180717581215195,-0.19960543287665852
2.1769737080000002,2.2592144758268655,0.22229532580455139,3.011018392893027,-0.9410295817095439,0.2696987960837299,-0.2097982520518968
2.196962676,2.2945195481194856,0.1727829413486523,3.040219959589913,-0.9832892745628484,0.26409059101155236,-0.21361271468605145
2.216888376,2.3272314359838746,0.12212146289076813,3.009437770617817,-1.0292273089660282,0.28348715278815834,-0.21602043909646068
2.236869504,2.3717228015163023,0.04389087695264912,2.9890767303805434,-1.0957234065004193,0.2613455009230024,-0.20576153269676103
2.256874988,2.385374168498693,0.017211385736308593,2.9969235426528558,-1.1171719243248632,0.2552472934392507,-0.21570828029888633
2.276870232,2.4106459539558713,-0.036466020357051036,2.951588299237557,-1.1615525650300342,0.267796109481371,-0.21887275417790464
2.29687762,2.4333762248194306,-0.0912219358843879,2.969348999528603,-1.205669070051516,0.26136265281397636,-0.2222709161578379
2.316877776,2.4534763357585643,-0.14680998836237183,2.961144469591119,-1.248159455760128,0.26779417638261127,-0.22624489478444468
2.336868715,2.4786763518282906,-0.2311253587014967,2.933687866303469,-1.3170507323430938,0.28109536638884514,-0.2219976093462958
2.356869288,2.485786845695044,-0.25942450081284035,2.9178769118438823,-1.340108801413716,0.3011851130171724,-0.2315312987706604
2.376869103,2.49784135176668,-0.31627291749658937,2.8999184948004055,-1.386561487894733,0.29094054480967657,-0.22775225493603676
2.39687103,2.507209321788968,-0.3734323609596233,2.8890091881370648,-1.4341832222490185,0.2888214932518714,-0.22925937010522784
2.416885934,2.5137748295894933,-0.4305608698029771,2.862232726916958,-1.4840877542293982,0.29568639052783624,-0.23019007047915854
2.436871437,2.518501663067254,-0.5164377711460447,2.8612866188738932,-1.5553858750554455,0.29313503000693447,-0.22473554044901434
2.456867154,2.5181618521758726,-0.5734377456730657,2.8455646138413395,-1.6033996658960947,0.3028504734290261,-0.22640140527074942
2.476859702,2.5151193881063216,-0.6301529579484273,2.8383885159480426,-1.6513196401601644,0.31294391130307025,-0.22801432874819944
2.496872624,2.512654995883074,-0.6584063320545123,2.8360648395415704,-1.6747836880981573,0.32822131214910527,-0.2369872464090628
2.516895979,2.5052872235810524,-0.7147117203655659,2.8399293292424352,-1.7227888337996602,0.341123971004844,-0.23817191259846698
2.5368696660000003,2.4951889671964578,-0.7703197600634415,2.8259646435864663,-1.7707582431788498,0.3636467106993406,-0.2389907540722414
2.556871354,2.482756261306084,-0.8252987206784693,2.8219671664517945,-1.8205223974408222,0.3859091980109975,-0.2388309585760467
2.576881171,2.4676493630497522,-0.8795510841038618,2.8128850699346404,-1.8690503179106588,0.3369215752115927,-0.23888548792239223
2.596951269,2.4499947226963377,-0.9326295779504179,2.8051880560728186,-1.918742786408327,0.3472773363021957,-0.2397902815478311
2.616871967,2.4183019248958226,-1.010515772729435,2.8052809279598647,-1.990210604093469,0.3546139442784282,-0.23375475772592377
2.636888214,2.4066627250449018,-1.0359505228481856,2.797136905431984,-2.013244803631696,0.3752344678346629,-0.2425201725543814
2.6568664330000002,2.367443662184136,-1.1099940955699636,2.787178021993119,-2.086870451737178,0.3928229711481101,-0.23520355125350623
2.676883086,2.3531727801164597,-1.133819589655881,2.777250877086203,-2.1114285834376596,0.3776241577136364,-0.23898023235418223
2.696891218,2.32312914335075,-1.1810534145538634,2.796946874097298,-2.159730582892156,0.36975805058345057,-0.23903545710818588
2.716892311,2.2907523644166568,-1.2267942553304152,2.795553399069478,-2.20849025526085,0.3722881142532982,-0.23898281487458115
2.736887854,2.255878475079812,-1.2709167309844849,2.8068379102171432,-2.2590868275351292,0.3731826336476853,-0.23828165160834386
2.756884378,2.2188719390006146,-1.3136716560688466,2.829699203874012,-2.3051161690957183,0.37288621769947417,-0.23906472441790028
2.776961237,2.15986599250247,-1.37405167411337,2.8184207067703313,-2.3784809455652507,0.3842972999975584,-0.2311503694414134
2.796942013,2.1178141703701288,-1.412015174575896,2.8319329578438133,-2.4289780852513454,0.39314424743647514,-0.23001456177868115
2.816954453,2.0960484891520315,-1.4303063628872956,2.8430836229891594,-2.452984191656985,0.3823056199154361,-0.2374819729738155
2.836890166,2.051493534467957,-1.4655099498880806,2.8487200848097585,-2.5024565203791176,0.38094315685161356,-0.23624958564076315
2.856889676,2.0050740214617155,-1.49856006473095,2.8546169389287854,-2.550778573370689,0.3821238496711982,-0.23547128978170737
2.876867938,1.9569596462834,-1.5291312707525422,2.8508020546405435,-2.5995278946005187,0.3893866550894197,-0.23447737230745042
2.89687734,1.907159017447876,-1.557350249289978,2.8623921675421924,-2.6456560836117156,0.3938229734289699,-0.23429932785083876
2.916887169,1.8559565038499304,-1.5834635205892877,2.8843178382275627,-2.6931995316154556,0.39724667748415693,-0.23348674746242046
2.936872039,1.8035236659159652,-1.607342337613873,2.8830587350436154,-2.7405044847347577,0.4115396837777993,-0.23253058930703083
2.956871465,1.749959965329659,-1.6284806918842127,2.8872304442827432,-2.7877302745931507,0.39888257625251206,-0.23164907254270292
2.976872697,1.6952577671370883,-1.6471154282465346,2.886577409609847,-2.835392996635361,0.3982520841797263,-0.23077222277968715
2.996878535,1.6396483900158922,-1.6629739244300812,2.883719119092004,-2.887777312510085,0.4009886370201038,-0.22830935326750337
3.016875949,1.5833403002288766,-1.6764462182464617,2.9024194643240047,-2.937421784789136,0.39871180917143095,-0.22678050416648896
3.036877382,1.526239264147336,-1.6871909860982404,2.9003361304878816,-2.9861244724081675,0.4064387600208451,-0.2255101203003081
3.0568893,1.4683494345699397,-1.6952071449198542,2.923627789874748,-3.035948221237965,0.40775963660827924,-0.22373938746825492
3.076868712,1.4100704281981773,-1.7002984503824259,2.918714783977647,-3.085884824828888,0.4216796916347876,-0.22172179731482036
