time (sec),x position (m),y position (m),forward velocity (m/s),"heading angle (rad), from x-axis, positive is CCW",throttle (unitless; -1 to 1),steering angle (unitless; -1 to 1)
0.006752754000000001,0.01301070953579036,-0.9669692284744278,0.014779862013634803,2.2040046309637042,0.75,-0.22300269832785116
0.026744754000000003,0.013007745224997766,-0.9669700802149259,0.0001790157013822115,2.204035261046667,0.27907123909072823,-0.14588781857587335
0.046755513000000005,0.013142071393023529,-0.9669209253758413,0.014651989527905489,2.2037959808016674,0.456697138166502,-0.1280436931443476
0.066752746,0.01300983070122065,-0.96697298148186,0.014759039796177457,2.204046730611059,0.6414508875074667,-0.1206819802232259
0.08674163500000001,0.013146747965689494,-0.9669341252339362,0.0005930593896410221,2.20379629197324,0.75,-0.11647383230633847
0.106750415,0.013144979807773266,-0.9669287945221646,0.0002833440930127425,2.203794466214819,0.75,-0.11386864795575923
0.12682548800000001,0.013010740050481303,-0.9669617876315467,0.01400138186813977,2.204010321718649,0.75,-0.11214795284733324
0.146767631,0.0131468487048151,-0.9669329652933171,0.015290414881606464,2.203814990464905,0.75,-0.11076542729914844
0.166754743,0.013138019288737087,-0.9669303228287505,0.000563257472071868,2.203801120335079,0.75,-0.12342659494073559
0.18676972600000002,0.013012795263697271,-0.966980692967696,0.01349748396722893,2.203999930194628,0.75,-0.13692902750833072
0.20685006,0.013161548403976592,-0.9669388521881456,0.01590451626623193,2.203783120798348,0.75,-0.15028305280764506
0.226754862,0.013007590629525728,-0.9669665448264423,0.014965286396793235,2.203975433797989,0.75,-0.16359934430594578
0.24674962,0.012999526738765338,-0.9669757736750779,0.000984988961879172,2.204010969104678,0.75,-0.1768037450929271
0.266769498,0.01300768609188198,-0.966979756565944,0.014862726985964586,2.204045267662691,0.75,-0.18987644469115936
0.286750681,0.0131456541325759,-0.9669230352929122,0.0008956722917096264,2.2037949212442096,0.75,-0.20264079624177042
0.306794734,0.012978945705444504,-0.9667265370497364,0.026052428954352957,2.2040441483721924,0.75,-0.2154198873332411
0.32680488300000005,0.01156494892828142,-0.9648838746744514,0.1442679930157878,2.20449671978824,0.75,-0.18382520541254616
0.346747639,0.008245919671783163,-0.9604517890197805,0.3170354506581702,2.2042400639622772,0.75,-0.16844227424419225
0.366745296,0.003143828163194494,-0.9535572233440531,0.4623394393917328,2.205367182208847,0.75,-0.15357297248373253
0.386741455,-0.003510261014973988,-0.9444793582778139,0.589639895698396,2.2042424970925754,0.75,-0.13804284473845715
0.406842493,-0.016242851750024236,-0.9254871936501646,0.759464717053828,2.1918157245603425,0.75,-0.11877402652001447
0.42683406100000004,-0.02665284507116467,-0.9091175671233145,1.0164560597469636,2.1774000684470045,0.75,-0.09898960943626633
0.44675154,-0.03238480061855893,-0.8998885565100497,1.086415902392161,2.1690715749733256,0.75,-0.08149520731386767
0.46675829900000004,-0.044887926536224504,-0.8790436119945502,1.255098229161578,2.149059787861648,0.75,-0.06579379669909703
0.48674379300000004,-0.05887634455554958,-0.8556094073627397,1.415570187370893,2.1268039206841567,0.75,-0.044205277243729434
0.506749207,-0.07434322156448077,-0.8289289539356921,1.57866230542027,2.10489556749984,0.75,-0.0227639945859219
0.526747336,-0.0907003565736614,-0.7991768379542192,1.732751322961163,2.081431091329865,0.75,-0.0008422915733416218
0.5467602530000001,-0.1089366949511309,-0.7662381595972503,1.9111764371540096,2.0628139504296366,0.75,0.019298360876087533
0.5667555240000001,-0.12818386770554546,-0.7300508996951716,2.0905231510648004,2.047422813903268,0.75,0.038198952016476294
0.586762043,-0.14835119096388247,-0.6908642036921692,2.229645976132151,2.034566819832861,0.75,0.05608891811869562
0.606754585,-0.16957728579725015,-0.6484705837999699,2.4113498576836316,2.0269952036790007,0.710895229781284,0.06708502520137274
0.6267760640000001,-0.2041128743280597,-0.5792278200364079,2.64517796029911,2.0270492367048325,0.6218999755212931,0.07956100384365934
0.6467565620000001,-0.22876990588555526,-0.5299781682653032,2.78324312337462,2.034035350061235,0.5725684986168899,0.08956435834376585
0.666756126,-0.24167723338806424,-0.5046149899265423,2.845856494450861,2.037268422205545,0.5562884563983095,0.10068539973941154
0.686756361,-0.26888197284873394,-0.4523118519918363,2.982517780953401,2.0463879612677887,0.5108051707937188,0.11009968698620293
0.706752566,-0.2981587554647646,-0.39870525788998495,3.066656657140096,2.0571628207607118,0.4857586642974245,0.11896134434087408
0.726743149,-0.34504059510952484,-0.3159604371922357,3.21405323519592,2.0769696610931665,0.43501101283203847,0.12508878215582064
0.7467387390000001,-0.37823623913580073,-0.26020454595153375,3.266421050555803,2.0940476908747256,0.4002929086358776,0.13082444672160737
0.766755411,-0.3955257394970747,-0.23247698135330488,3.2676362424410823,2.104360381694527,0.3952296301541513,0.13973701972733515
0.786800155,-0.4310695161597739,-0.17653158657170567,3.3257582331040876,2.1275689070737642,0.36684765921629786,0.14484133975409016
0.8067498270000001,-0.4683313434314168,-0.12076809068379203,3.37205147961456,2.150398282096277,0.34462809760513546,0.15020800687034175
0.826834943,-0.5072005349590807,-0.0653172549366587,3.391582697058556,2.176682025587709,0.334038069739482,0.15461334198228943
0.846888347,-0.5683153020334555,0.016714895274299636,3.407334901674351,2.21906665313679,0.32197966390845806,0.1540610167970112
0.866774428,-0.5895980194824212,0.04352485051365258,3.423050922712979,2.2353673252834,0.3219323537822226,0.16145138993942995
0.8867497710000001,-0.6334903362238178,0.09659468190600318,3.4520042280234344,2.267731779872114,0.29404320884687457,0.16293125978421363
0.9067429720000001,-0.6788335532188023,0.1484425917524043,3.4517818843544834,2.3024357731636904,0.2810573536053755,0.16527149710888056
0.926846833,-0.7256379224672518,0.19923862018088476,3.455048594992206,2.336009488662445,0.2692057450060594,0.16837857882115567
0.946753261,-0.799166393909944,0.2724586584873486,3.4670872142047164,2.3925841409293955,0.25179736753747234,0.16425071394518603
0.9667511440000001,-0.8242154684562557,0.295868950186575,3.428553474965129,2.4128992250414973,0.26477251625753584,0.17168058090889066
0.9868215100000001,-0.8760261099041873,0.3415831590092115,3.4530988874851634,2.45239289058116,0.2529554166994334,0.17328891783415723
1.00676376,-0.9294819544797567,0.3850782470784084,3.445774114247779,2.494774816477274,0.2551262912498999,0.17388150683377274
1.026845213,-0.9841167590030295,0.42642336774347084,3.421201764908768,2.538192162596616,0.25036517996471563,0.17194234289594643
1.046791523,-1.0687870009646916,0.4840587340365124,3.3982777127203136,2.6056240933667305,0.24060607100809814,0.1646579307009385
1.066759612,-1.0975543936163288,0.5021755568956194,3.399679617966571,2.6273247351395574,0.23422815389947715,0.17211581700953496
1.086744871,-1.18536470351706,0.5525375225564277,3.367250182160475,2.6938539505981707,0.23339980686558495,0.16572652936558357
1.106743277,-1.2152849260377336,0.5679173946064672,3.3641643538361925,2.7167921972716518,0.23411817964180606,0.17319082922281087
1.126742226,-1.275684590941213,0.5964134711807519,3.332505365895224,2.763011104508218,0.2433402528686794,0.17342149057467146
1.146756675,-1.3365847990985293,0.6225333252091502,3.298744276300438,2.8082151675218463,0.25632976983547223,0.17408183308689815
1.166746772,-1.4292470433532223,0.6559581276123111,3.2766541520335535,2.8748810889296093,0.2562721219281291,0.16831277208582987
1.186751272,-1.460411068894345,0.6655403879341191,3.2603929223371932,2.897036355502773,0.2512146983795885,0.16873595707682992
1.206772344,-1.5228087461678665,0.6829037777912813,3.2395677951986395,2.941492609331834,0.2463479820297964,0.17036752507758765
1.226744888,-1.5856333670280376,0.6972726482025826,3.2076385642209764,2.986481409176136,0.24863302996538536,0.1720888673452591
1.246761079,-1.6485255478577516,0.7085241602590852,3.1833063703890225,3.0316492190342945,0.2514795548389547,0.17401524708875105
1.266758483,-1.7114457874483728,0.7172201423795428,3.1717659343448252,3.075493306748631,0.2531267543768103,0.17655478476598452
1.286741024,-1.7744891215251126,0.7230157667097944,3.1659932375665174,3.121943008692621,0.2561026314238457,0.1782711679259053
1.30674191,-1.8370667550160988,0.7252989705261127,3.1277460367513696,-3.117603405747419,0.2742173598624897,0.1809294466412913
1.326754244,-1.89931179395946,0.7249697529400759,3.105565604323248,-3.0737011591718,0.17411008899495328,0.19701905513161672
1.346755017,-1.9610751231528603,0.7220949007362099,3.081299072190167,-3.0282405297078134,0.13468305615131812,0.20740542431726774
1.366750856,-2.0224572933108953,0.7159161914684511,3.0844815133431287,-2.9852334443359685,0.09230541962711891,0.2207117222563019
1.386747164,-2.083091470966041,0.707437706086607,3.0549825554768817,-2.944744746368488,0.06986085546481606,0.23686428931460538
1.4067426950000002,-2.1428261748656814,0.6960439709553065,3.0402069945905192,-2.901801417554256,0.05096918358097964,0.25384411237704974
1.4267430110000001,-2.2016249686808997,0.6820815811053709,3.013263487416842,-2.856276517255227,0.046179739340351494,0.27122656124906863
1.446756373,-2.259171648347762,0.6657064502161651,2.9782389010077055,-2.8117261078332567,0.05461863140789922,0.2897309545010473
1.4668040740000001,-2.315347025551696,0.6467073652334892,2.9629187675698985,-2.765260094608247,0.06650390933917966,0.3077684179786488
1.486765021,-2.3696211583619613,0.625132030757027,2.9109464346477196,-2.7133157697739034,0.16497128669037833,0.24184099915549687
1.506767487,-2.4220799780675164,0.6013195738517066,2.849870897772229,-2.6601489747245894,0.20857756932722088,0.23248022485935366
1.5267454169999999,-2.472678329385098,0.5751687137505384,2.834624807211846,-2.607424768577758,0.23622694915275522,0.22290277287829385
1.5467568649999999,-2.52083558937319,0.5466535388418337,2.789396275206473,-2.5515415611633236,0.2754870114683372,0.21188518881377533
1.566747525,-2.566853890408778,0.5159865592528475,2.756098669821303,-2.4957810454353035,0.31102678644467185,0.20055614562941715
1.586740629,-2.6099809862449512,0.48397540715321113,2.69002680372089,-2.4369681340813387,0.3592156900937877,0.1878316085427306
1.60674143,-2.6506201761666968,0.4496175999337686,2.642180160538909,-2.38229215678201,0.4013262534090804,0.17618030057915712
1.626778237,-2.688815869593483,0.4133130557470564,2.630690395784358,-2.327757171629134,0.3778463050643365,0.18201273104148458
1.646820627,-2.724969778115898,0.37509753748203123,2.626158218726663,-2.273017549046442,0.37233643189273263,0.18094372012571666
1.666751974,-2.759257385021919,0.33550712475148287,2.6214707904077934,-2.223359203712483,0.3702005620790776,0.1817472441100852
1.6867479090000002,-2.8062560399602416,0.2723708355236645,2.6169132217999307,-2.1550855882512803,0.3676231224281045,0.1769562831129243
1.706760269,-2.820818899514671,0.2504218072467821,2.6340780563631956,-2.1323590579661076,0.3678832224179577,0.1865966248769646
1.72673781,-2.8615409543639103,0.18227968909836187,2.641501939796732,-2.070571509620345,0.36767862333934,0.18402026699326385
1.746735857,-2.8862798550667295,0.13496858951717583,2.6860407617267685,-2.033007931553723,0.36106355102146,0.18902037362060353
1.766757045,-2.897657757677194,0.11078258576559043,2.672862595205596,-2.0115634244856766,0.3623696935427676,0.19955752880085703
1.7867467160000001,-2.9194650760162615,0.061687397518808376,2.695063813197066,-1.9761731493748347,0.3499855154021638,0.20466251089967225
1.806741776,-2.9395918413940674,0.011539700299872467,2.7073008006273027,-1.9405209076109018,0.34438849987872505,0.20985170013775736
1.826793827,-2.957670142053938,-0.039401444608171646,2.7155095707488415,-1.9035805556502636,0.3435195902025858,0.21471872152641194
1.846751676,-2.9727144073617158,-0.09246646060604606,2.7569596462123727,-1.8601056353875138,0.33342310014337634,0.21724251074999526
1.866751475,-2.986539750205097,-0.14554981954896085,2.7417204626912635,-1.8238486683043351,0.34751200341505334,0.2222098520559053
1.8867444180000001,-2.998292743911721,-0.19969584212366234,2.7637811467107567,-1.7825213166661902,0.35113763500225437,0.22527217219305828
1.906761361,-3.0071839373074485,-0.2545441957312665,2.781521668812235,-1.7356675501349292,0.3595125776051493,0.22618828592956822
1.926743347,-3.014625681334439,-0.30931333205435674,2.750608366337762,-1.696616044037279,0.35489153986905686,0.22325312073854212
1.9467526080000002,-3.019116080534999,-0.36547710138952555,2.789478375548783,-1.6486024200470255,0.3389723849698607,0.22542998146432006
1.966755063,-3.0215135786332956,-0.42115463574081613,2.7805392444392556,-1.6044669593324894,0.34447720033898965,0.22901610560941732
1.9867640780000002,-3.0208402261894576,-0.5057188213993347,2.85667254487637,-1.5399579855609902,0.3188630446650159,0.22632986644778028
2.006837175,-3.0194550993597846,-0.5335950661711933,2.7910635946084392,-1.5165484944409195,0.35651579161664126,0.23625348999967424
2.026853892,-3.0145960910684018,-0.5901328407266719,2.824987193387012,-1.4738414098662984,0.357660619070241,0.24000559472506786
2.046761853,-3.0071795085440445,-0.6459224836425681,2.7959474766781316,-1.4236426948564194,0.38555377028947463,0.2407575191518389
2.066751975,-2.997487634524396,-0.7021569016415001,2.8383886024989207,-1.3755893384058113,0.36547409419763155,0.2454497532791038
2.086744599,-2.9848325694191336,-0.7573233945062032,2.855646449936065,-1.3253009690177482,0.3630675869879121,0.24477574149274273
2.106741201,-2.969708443161013,-0.812396439062016,2.8473700634817507,-1.2765401168478976,0.3730147744533797,0.24458889926081173
2.126755244,-2.9518000564634215,-0.8664382414401567,2.8424260684854254,-1.22164243794168,0.3847575950272783,0.24214558741760006
2.146756689,-2.9319080710856396,-0.9203771991607912,2.8835541909838027,-1.1735581068509755,0.38258349226342336,0.24188450796549932
2.16674518,-2.9087857655714062,-0.9726677599782365,2.87067147929222,-1.121422965774883,0.40312159081547855,0.23991365612694948
2.186743608,-2.883226260507259,-1.0236318673199354,2.859036744949619,-1.0689610798950997,0.4261171568799702,0.2375103018773753
2.206744404,-2.8550294853097657,-1.0734323540420574,2.8606661919556786,-1.0167807987196305,0.42133316307220176,0.2315591886348931
2.226740396,-2.824673819362645,-1.1218744667277745,2.8764515202765883,-0.96587493033214,0.4181650363215973,0.23119672107989983
2.246756842,-2.7912376868358466,-1.1685119372726822,2.8553087190766306,-0.9176100534004189,0.43181894078997957,0.2317149353335255
2.266758383,-2.7557471895848815,-1.2133377815199544,2.86505611672497,-0.8684703410325276,0.4375310426203445,0.23180048420269672
2.2867868270000002,-2.7183939271458364,-1.2564820398588967,2.8362520750446967,-0.8195253322715573,0.4608247332156308,0.23179106501252608
2.306744115,-2.678010388233406,-1.29810324262242,2.902676209577966,-0.7710507277339403,0.45223735242301555,0.23163899857766074
2.326746038,-2.636124605624235,-1.3372567721643762,2.89302565039378,-0.7210246281173536,0.47497245900919133,0.2306420224931236
2.346746369,-2.569381723533596,-1.3926987145264655,2.911951926139675,-0.6491825621727613,0.4640068716289769,0.2183388643009404
2.366744377,-2.54609378721064,-1.4100152100950925,2.9020492707056573,-0.6253646226013948,0.47263408191750317,0.22532548579110592
2.386742238,-2.4732393627181652,-1.4587805125727369,2.927479367966148,-0.550505644374111,0.46334486267650177,0.2157741164719745
2.406749469,-2.4481256433318017,-1.47408204998938,2.9408093252197482,-0.5258672971669639,0.4692832629699893,0.22243178568628402
2.426746564,-2.396759646482807,-1.5027897645868036,2.944122023831966,-0.47678174002366625,0.47786971757276153,0.22106946349014817
2.446753052,-2.343632187520002,-1.5291091452536907,2.959613280898089,-0.43032383719109996,0.48485827631826384,0.22045938040591162
2.466743498,-2.261412957062419,-1.5639512015242767,2.9861584260824716,-0.3588427342682338,0.4866089840479734,0.21150077932106506
2.486820709,-2.2046905607920646,-1.5839596841031403,3.0127064340716223,-0.31046074170460264,0.4781326848973639,0.2081428177445948
2.506773393,-2.1759749170507323,-1.5928695669997863,3.0066163850931535,-0.28608297702774754,0.48320709860843647,0.21355752731860414
2.526846665,-2.1177598791760746,-1.609186408621896,3.040519786215184,-0.2388852518376797,0.4720626187256194,0.2117401099971159
2.54674768,-2.028474297733249,-1.6285274638558047,3.0445375381728264,-0.1704802501059268,0.4699866172544583,0.20300086456978877
2.566749025,-1.998066371622334,-1.6336263861185811,3.083246630759042,-0.1461593764481095,0.46610733419768385,0.2084759566911143
2.586747572,-1.936944545416644,-1.6417463379472246,3.087473492184735,-0.1015038224040813,0.47312157351053086,0.2073597671208173
2.606741712,-1.875115962548875,-1.6472205391900623,3.09816196286467,-0.05602557708446731,0.4802431013391407,0.205822141523072
2.626820906,-1.7813036904901307,-1.6500869176768527,3.140091372817268,0.013040646250010437,0.4583901930895923,0.19564228929922017
2.646750815,-1.7499333571330755,-1.649601056373434,3.1374095622645912,0.03458013010061381,0.45897442502892966,0.20157245879350777
2.666789736,-1.6555138322777687,-1.6443006727020224,3.158862497027275,0.10077397473068196,0.44434699872290234,0.1932485979929601
2.6867441579999998,-1.6240590335076925,-1.6411847046206134,3.160875863981921,0.12233715441572264,0.447879070033287,0.19935090555439247
2.706751566,-1.5609852220161626,-1.6326730505161933,3.189980136701933,0.16514729382712134,0.4394949085446113,0.1986724902852355
2.72673896,-1.4666910634328838,-1.6151010307757803,3.2024607071649043,0.22878109207014527,0.43511414167972073,0.19128161856261422
2.746744904,-1.4042153274128524,-1.599927293538675,3.215668516641402,0.2713487103757295,0.4373176327052886,0.1906049849471355
2.7667401270000003,-1.3420918372360489,-1.5822859808611038,3.2303985132534345,0.31259889991896606,0.4413847303283737,0.19028487376669675
2.786740724,-1.3112196735563928,-1.572481101800896,3.2391760428367857,0.3326262913272579,0.42113964728643316,0.19536783428485494
2.8067927360000002,-1.2500981758563579,-1.5505838908104237,3.2562446212117844,0.3759449848390755,0.40899904033368567,0.19461420074782754
2.82674089,-1.1898228938359028,-1.5261765384774864,3.2512992099631988,0.41943613951514563,0.40722526686966154,0.19385751801616813
2.846754072,-1.1303974140914512,-1.4990707535289933,3.2707000543421465,0.46437364914982704,0.3990327781430618,0.19271794128137798
2.866750499,-1.071759777717259,-1.4694463382145175,3.280370151086509,0.5080317794288134,0.39682548300260395,0.19206222613202392
2.886824873,-1.014615461163089,-1.437622040658556,3.260708255523441,0.5527912353496415,0.40790395387550527,0.19105714602141208
2.906743836,-0.9585462983226697,-1.4030799564174996,3.2790532740702583,0.5982643670127584,0.4075358236766427,0.18964344254295404
2.9268137970000003,-0.9041057334551822,-1.365953992846781,3.299890088155153,0.6464818605447632,0.3837056370732848,0.1844262645547215
2.946753296,-0.8513620233503721,-1.3268953807323882,3.288830094173827,0.6917203961691296,0.3837716245100594,0.1803407272323143
2.966745877,-0.7753252391957554,-1.2638526128751162,3.2975848159445276,0.7603880283688413,0.37350990747984264,0.16871264643037948
2.986787099,-0.7510983750120969,-1.2417011684899593,3.2827236199871215,0.7849037842482087,0.38261498136361405,0.1714387080225565
3.006837562,-0.7039490404068934,-1.1961307039966842,3.2848696372861355,0.830578741967894,0.38253128963088057,0.16734888986190766
3.026829799,-0.6368713923197217,-1.1242536088519222,3.2915541155727546,0.898913851128974,0.37768304689855525,0.15582834614052282
3.046758716,-0.6155455323392097,-1.0992228515578337,3.2883599477915473,0.9217566380636512,0.38728709984165965,0.1590689673823838
3.066754202,-0.5748426966287682,-1.0483085152489362,3.259778844956618,0.966532260484271,0.3985559088625517,0.13215596623721898
