time (sec),x position (m),y position (m),forward velocity (m/s),"heading angle (rad), from x-axis, positive is CCW",throttle (unitless; -1 to 1),steering angle (unitless; -1 to 1)
0.122753708,3.1317100022153053,-0.10233047239935847,0.049779547286425106,-1.4005340197732339,0.75,-0.6689579173414765
0.322746083,2.983280440791221,0.03551538132447865,0.18158111883392483,-1.3331888230019784,0.75,-0.14543500455068212
0.5227471890000001,2.911930336433384,-0.3915088215087741,1.7586142129070719,-1.690263690988005,0.75,-0.2761513955331446
0.7227459770000001,2.7303521520071214,-0.5551088984839097,2.6812022248852942,-2.2589344227453005,0.749057740347227,-0.26868066052994183
0.9227430480000001,2.1565108382715805,-0.8266352567910036,3.0799929643878547,-2.613683556234054,0.5160950226435082,-0.21660242066915247
1.122793033,1.6117562019576166,-1.0570030806034818,3.149856468632029,-3.0518241988892942,0.40240813970286354,-0.20619452714280478
1.3227514390000001,1.0620167319474694,-0.7255463456896386,2.8748645872971874,-3.7038441004280105,0.35604475798170443,-0.2010428768833822
1.522753991,0.6560942543659287,-0.5558610243576151,3.0956033249066794,-4.1090552642439535,0.46045927617993493,-0.1611354285448506
1.722751266,0.4322505975863595,0.12975753698844178,3.3395830406856613,-4.321021909307462,0.5463139360763564,0.01962009536316057
1.922740981,-0.020965527965117026,0.5065910466935518,3.698083172388544,-4.2831369608498715,0.38030853357170114,0.12925037113395157
2.122752986,-0.5997474277633112,1.1423793893048433,3.495274117449605,-3.7451022189315775,0.29747551598536354,0.18713470095060084
2.322753711,-1.0892894839551177,1.7367082615222,3.3695608383181326,-3.4186911957980786,0.3677096109987004,0.19560824730182155
2.522748267,-1.8562966560415788,1.6313144152415109,3.3030890533525064,-2.9107170644043276,0.41560227124107246,0.19834486212571661
2.722751959,-2.1822967653759746,1.3174101887122727,3.2946003253962495,-2.5979308568980954,0.43890059008653215,0.20034437890219786
2.9227456810000003,-2.863511793862551,0.8876325091346485,3.361004423371483,-2.190962342724073,0.44731579679419575,0.2102071260894802
3.122745715,-2.8492061359074525,0.16097897174096845,3.251785055070063,-1.549162909339958,0.3474363276541787,0.2047896474824699
3.322762674,-2.9116693727023204,-0.5345462777820754,3.1688570060258585,-1.1484117932482154,0.3125551250230177,0.20795008152874664
3.522744997,-2.4415976556749244,-1.0002087342456503,3.052867737227522,-0.7257934897339395,0.3375617008998835,0.21611625242993648
3.722784711,-2.0160397417467646,-1.2601446458031111,3.015836590023084,-0.25023254246756665,0.405813504781011,0.2402526723965196
3.922749528,-1.558327018931658,-1.226272592483842,3.229948713944757,0.3763698192231528,0.4656011288444462,0.2385898837762856
4.122749585,-0.9406707128053005,-1.100809986830972,3.176827855810903,0.5093643655394912,0.45753619959013786,0.22662727513952344
4.322748074,-0.4164998441086424,-0.6349198680018964,3.3104793157762296,0.9572873026385227,0.5358987281266008,0.1279582183595085
4.522749835,-0.11724711136257926,0.2415112166688212,3.5520218764243983,1.0818502178626341,0.5315290234574661,-0.04473289234355962
4.722740312,0.3054639005105521,0.6308032328276055,3.5118294473301774,0.9615147798923507,0.3856763067332853,-0.11965934074157401
4.922745437,0.8677174646719895,1.1539308258343213,3.658827434675966,0.42550363565880844,0.3506125705970202,-0.13263200478255543
5.122741498,1.5568745090220655,1.4156868960646098,3.2817383257400636,0.13874340617820227,0.3057145031423094,-0.14383844684885747
5.322769981,2.1104933491365285,1.2493711446519782,3.1077390206435327,-0.30777252822515155,0.29073453119702936,-0.16351439674981036
5.522742052,2.790371318754938,1.0413372141991888,2.9147542853912176,-0.7302779653001271,0.3417911723121416,-0.1958603106659612
5.722742544,2.8714746998116767,0.5086928045847603,2.8928937469776437,-1.3386399969860665,0.44750160867702726,-0.21710167316039336
5.922744364,3.053654903975929,-0.014408768521409945,3.0877224342499687,-1.7345257243308074,0.5010287414213462,-0.20925013292857167
6.122745116,2.823172454915998,-0.5592813626966806,3.3332465830225275,-2.154172123129444,0.5260807400234203,-0.20443487228229634
6.322746164,2.559914079880457,-1.2407789495640702,3.204061277334565,-2.8192627688448995,0.5013012133581674,-0.18725622209899076
6.522742326,1.666463160489841,-1.372442725646201,3.1869396210902057,-3.0401800843331444,0.4178619893728316,-0.18398265830928345
6.722751004,0.956362626256203,-1.3505931413904864,3.178973920837147,-3.585069552318427,0.36994402467945653,-0.1854506433611521
6.922742795,0.8578541011734986,-0.8344742340285976,3.0393819050637747,-4.018562543483479,0.3885569254353527,-0.18911017219324872
7.122743281,0.4435254096367367,-0.29057170697381196,3.308886891012406,-4.312667173724005,0.525896439183784,-0.06708575699725718
7.322742334,0.05549419700692866,0.31741885138688986,3.4070672636389006,-4.247948197650962,0.4657845557205117,0.09571583550825846
7.52274576,-0.10508133385990592,0.7055911290197825,3.467686250362281,-4.223774406783293,0.3056401481890672,0.17524567824117152
7.72275189,-0.5983341624132572,1.258044404781139,3.4318937269878838,-3.539923835499681,0.28555413646710265,0.20224793163080057
7.922746852,-1.3283112778035773,1.6001764363400235,3.1070983297444976,-3.1395467647894493,0.4147673525764021,0.1960607593394646
8.122752081,-2.0263913224877137,1.4226696606286244,3.222621397164299,-2.7177696385574857,0.14302455140711498,0.22699453864645816
8.322747555,-2.774629103114647,0.9621512341219252,2.9657241296967545,-2.3786140753606957,0.5229022682906463,0.20584667941677207
8.522740202,-2.7341142046451106,0.417003042132648,3.202007794036259,-1.7505704161990272,0.46621482430485167,0.18857932473218025
8.722743663,-2.7561911695804775,-0.23250870923226907,3.246917322721368,-1.4398727608600739,0.3199437691117665,0.20581469791354004
8.922741021,-2.595709738544055,-0.6052460980431292,3.0236832279345056,-1.0415312108887225,0.2922297837132196,0.20598051641093773
9.122746813,-2.048676738121038,-1.1213590599974264,2.97443083216746,-0.38911624811251466,0.36200755852195227,0.22874053324568971
9.322746663,-1.6671772607970865,-1.3341615253934052,3.1993287235020103,-0.05499203628910041,0.43678356552655423,0.22843486412889222
9.522745383,-1.0871789464974797,-1.2631376455165617,2.9863802132704693,0.6278850329468626,0.4731066712190124,0.2275429180976111
9.722747169,-0.41043422680035446,-0.5709000536961979,3.2691419444214835,0.679512258892849,0.49294107826731887,0.19531580983928148
9.922752505,-0.37058182149765834,-0.2783137401384068,3.472807432837784,1.06145281155253,0.541508856936422,0.026795197655644514
10.122749696,0.12689001481605056,0.6845380997349535,3.811451091022986,0.9523003402742883,0.46229274842695117,-0.10076073109136104
10.322792065,0.4791105971221361,0.9911750056359487,3.508950833712384,0.7676952433305708,0.3434667003544135,-0.13175703886649937
10.522746128,1.3618476285513483,1.289046222988057,3.5119099686207234,0.20819948881321945,0.3151282038001627,-0.13678239719289811
10.722752776,2.0800752785872456,1.3819931815962547,3.0954292800517287,-0.203285741563058,0.3082054399612623,-0.15726621528203558
10.92275248,2.544319777095035,1.2089859839591417,2.891888062450113,-0.5754855625708434,0.3160460541809959,-0.18247137864226134
11.122817908,2.8708736962519157,0.6827274927502791,2.898339531327788,-1.1045893940915956,0.402243160231399,-0.2092739393699117
11.322745485,3.0915761981587395,0.29492894775844086,2.9230912599351986,-1.5281151346796704,0.5085559039808651,-0.21806099019209424
11.522747269,2.915269761151308,-0.34569761972716284,3.1857414391394467,-1.9787642481304895,0.5143423626456292,-0.210499524288274
11.72274929,2.561392867367557,-1.053957899270058,2.9487607694325857,-2.4487393990629767,0.5055711829623546,-0.19980429671493397
11.922754643,2.1589049621985352,-1.1427706775001676,3.263482563975228,-2.87583117371396,0.49935645942028095,-0.18366233871294058
12.122749702,1.4897787918490248,-1.2676141057489656,3.181768181998053,-3.269452764010486,0.38016907562319135,-0.19050976981312287
12.322752383,0.9714955317191367,-0.9862671131795218,2.8132310324567706,-3.714800365199382,0.35864799461157204,-0.1911371449667444
12.522746381,0.40285615647532513,-0.9029281419624382,3.0077405506222514,-4.060456809737832,0.43343469319535166,-0.1798591173456761
12.72274442,0.2390698317498361,-0.029127663092255174,3.4019528394253085,-4.405133501862072,0.5377259545134498,0.034458184916193825
12.922760563,0.022598793434378428,0.7586962628831515,3.654604713244591,-4.24571620044372,0.3766110157651419,0.13721741833700957
13.12274876,-0.5088842675972512,1.1772725478733272,3.3811071423799164,-3.8654257212646397,0.28590173101825456,0.2034685066171029
13.322744382,-1.0882241481880504,1.475659242680486,3.405721741320695,-3.435675069878328,0.3330565450424275,0.20349785163685175
13.522747577,-1.740074050072805,1.3158554579185822,3.2230680953114734,-2.8597463033115593,0.4568971396931817,0.19909909392202121
13.72281058,-2.326354374030166,1.2224098957715275,3.311298306057376,-2.45947903386374,0.44604892422879283,0.20305839553313915
13.922750979,-2.759978190167245,0.7673037179600602,3.4431266328492547,-1.9281655104036342,0.4141336145596398,0.2056436211117197
14.122750263,-2.8396411873767753,0.1964626860649305,3.1553299109610013,-1.7137586639532516,0.3677224076526359,0.2008426818316542
14.322745107,-2.831694886554069,-0.5934253945721808,3.0486448940449327,-1.027803871095628,0.32495231932753477,0.20378045489665536
14.522752901,-2.5546365523302024,-1.1801608537881825,3.191202860541141,-0.7137001515031599,0.32532254627218593,0.22325276844126735
14.722743628,-2.074108535108258,-1.3547218327196424,2.8868347097306306,-0.4683106142240365,0.4306867695015535,0.23473469228737914
14.922750464,-1.466656711844272,-1.184569506922519,3.062236868170827,0.02560381454380481,0.46146068333038454,0.23677931758927312
15.122744991,-0.9248624745433669,-1.1803709859902982,3.163812666606592,0.502102262442913,0.47469173757735705,0.21907792869684103
15.322747308,-0.4387970500301629,-0.6073715728178772,3.316344525803752,1.0979653670908207,0.5008599900165928,0.15279474243299526
15.522744722,-0.17873691856134444,0.2568425216949296,3.7883523584197425,1.126515085888362,0.5083952831966796,-0.05322537569873577
15.72275445,0.46370008514458977,0.64673161787378,3.6895265662008967,0.9213991985688053,0.40061868137621354,-0.12456398974713877
15.92275941,0.9818350403825159,1.2395328654592856,3.492130938649223,0.4172511475063538,0.34166390820003706,-0.134452519141753
16.122752849,1.5060150818852915,1.489102592431817,3.46394381649512,0.08854861787336589,0.2955069391539202,-0.14852802001577325
16.322751818,2.3798712552298866,1.1834612798764035,2.9403092913748505,-0.260187996487743,0.2849329933394504,-0.17656787419765768
16.522751151,2.7546012821544443,0.9515692591478928,2.936894612153251,-0.6529778539657412,0.3472028524558681,-0.21246696432650794
16.722744372,2.9844239131915944,0.43295147790671656,3.0180259367329985,-1.1940041824473315,0.45308231050803155,-0.22312233129240006
16.922744715,2.9322854688619477,-0.05244567611040175,3.0168569527475033,-1.7720965370317963,0.5290379102815429,-0.22062701395144235
17.12276325,2.8275907345820395,-0.6204768263444046,3.1597749066014815,-2.1397160639619623,0.5123846212735117,-0.20714671081144492
17.322746345,2.298821196648528,-1.1945802241330128,3.2597132179233403,-2.748616586780689,0.48818874393188794,-0.1998792564894371
17.522752834,1.8024794398331234,-1.2072871447193565,3.051470385690781,-3.194421461766235,0.4493583973260223,-0.1930179850163327
17.722743661,1.0615311881933507,-1.2663379914535033,3.0676893765971114,-3.5025184023800224,0.3610711183282172,-0.19419113646006897
17.922745614,0.7258724600591573,-0.926288361888728,2.9620583032049246,-3.8435865634462756,0.3678596750272226,-0.20207859681537232
18.122754241,0.526737947242931,-0.3366270268985323,3.199599921249135,-4.429704414609667,0.5488847509285241,-0.07419254924851112
18.322761071,0.26916942484186607,0.23824210863225392,3.555392354700997,-4.343184789048244,0.44957317652811585,0.07767332445040163
18.522760094,0.005625369178499262,0.7865698547765865,3.525860081484761,-3.982730355790722,0.3279884166044501,0.16319796024137861
18.722749377,-0.8901360867324648,1.1601858505389853,3.4316272729190276,-3.855981093406703,0.3052757224308654,0.19159049598251893
18.922746371,-1.3822517166990325,1.3896260525699078,3.473344948703762,-3.044965412595493,0.38274230209311016,0.19416653802828981
19.122754395,-1.902017293488356,1.409643263649002,3.276578492589764,-2.6783788577069196,0.41946385159617616,0.2090987008749314
19.322817151,-2.6413976540429935,0.9547653241353203,3.429341968651439,-2.3696515764030868,0.4107776383406076,0.21729765634083037
19.522750495,-2.9569556898552554,0.4582372668087142,3.1952519013530383,-1.8407763860871753,0.3979561792354286,0.2004724113999872
19.722745912,-2.9706256897810177,-0.12285911484436063,3.2884827247706276,-1.5525803024287224,0.376889191364876,0.2083981763108158
19.922752218,-2.7745286029760856,-0.6162197543227399,3.2220024110330576,-0.8476786864228253,0.3101565326821097,0.21879429756930882
20.122750368,-2.426344689258244,-1.158886203606467,3.154461649860345,-0.5706719815085297,0.36737162168232507,0.2340141848701555
20.322753585,-1.8173158722307667,-1.4959269587017583,3.0053286949470923,-0.033691071072346986,0.4654148128519474,0.24040079183807955
20.522753403,-1.3231332282557327,-1.2361648219176766,3.2361062929670736,0.3771672118493539,0.46847961535016097,0.22609510399171323
20.722743123,-0.6178674558163585,-0.7303794893695176,3.3548419797278917,0.6581972472092625,0.469457075640821,0.20392765494976411
20.922786074,-0.38654887745859284,-0.21216014014040446,3.5510346344600134,0.968929792585896,0.5605631570595792,0.028445336468482407
21.122755034,0.15890825525959734,0.25263786951165507,3.541248257602868,1.112902447298436,0.4531427838242124,-0.09138459994825443
21.322786134,0.4015675944168957,0.9606579290696611,3.6334567928337034,0.557167632351491,0.36608294415669745,-0.1304921612413685
21.522743321,1.3461157013574765,1.1882854123722182,3.639859979341591,0.4128644130747426,0.3014369723208855,-0.1416074832081064
21.722735715,1.7152261010249215,1.305653844533254,3.4249042615201963,-0.1286591913249539,0.27057980474159105,-0.16517252411784752
21.922784044,2.2923350771014124,1.2484703993568735,2.990777842835359,-0.48928504402394357,0.3031023511107605,-0.19803967721991023
22.122739437,2.890789244291319,0.7651143722315545,2.8582565980661805,-1.0276108410240583,0.3873298095719142,-0.21577471265202675
22.322803151,3.024579035906482,0.1997405558001571,2.910133544378962,-1.3847690815197766,0.48361585705591903,-0.22515553275324543
22.522740464,2.978871486135432,-0.2657125677054934,3.0708162931355125,-1.8094292968540573,0.5136967295359453,-0.20666645376148604
22.722757705,2.616785198003729,-0.7897753152481841,3.0743853288634417,-2.431453242562496,0.49924477340452056,-0.2080748461197377
