time (sec),x position (m),y position (m),forward velocity (m/s),"heading angle (rad), from x-axis, positive is CCW",throttle (unitless; -1 to 1),steering angle (unitless; -1 to 1)
0.131754949,-3.268027917003327,-0.08788554675978072,-0.13380520487257216,-1.6480486285428273,0.75,0.5237577366672638
0.331868037,-3.2572050807804334,-0.027697730766698105,0.16144375384289555,-1.621305311904951,0.75,0.2095458817381423
0.531748577,-3.1799217744088213,-0.3023192206583906,1.898860373471698,-1.4174716820119304,0.75,0.34595207215914137
0.731746709,-2.966301091826878,-0.6814332888904638,2.856166534800105,-0.7129877742545147,0.701606785543776,0.3070551345896091
0.9317214730000001,-2.5702749078943805,-1.0464427526461724,3.1926665232473077,-0.3103724199323126,0.5314470630521367,0.24704050012159948
1.131723923,-1.7870490841968354,-1.1307024557446828,3.27058133648227,0.0961998837826441,0.48910815030796406,0.2389796564774423
1.331729786,-1.372844789807508,-0.8286967405992837,3.225619884735908,0.641750827279802,0.38474973775416027,0.21317847471370052
1.5318023649999999,-0.7884871946085341,-0.41835325228386344,3.2070448792200117,1.0561479173093467,0.4257189466247922,0.12841348383606127
1.7317145900000002,-0.5395311289023209,0.10373393521883108,3.4056414275786655,1.1330540997272898,0.47054572558486046,-0.05834173902473084
1.9317412530000002,-0.1954861255798917,0.8110286929775682,3.6563420652703744,0.9565778245524165,0.39625929560983886,-0.15642432230189382
2.131725968,0.31481971361077277,1.289712235126304,3.527810157957071,0.4397424144925832,0.3847187755033689,-0.1770960656056541
2.331750755,0.9195509528585245,1.450676731893861,3.5868306244821953,0.07679338185018555,0.38745885107595973,-0.17402726304012817
2.531755346,1.7159368123835022,1.424101091220543,3.532838453382783,-0.31016249595205087,0.3663093785080968,-0.17007840030420918
2.731730447,2.363569010721881,0.9773694976343348,3.3088264556723006,-0.7659950071093866,0.3524209999107038,-0.18303209310194427
2.931726395,2.71277706904771,0.40916378975570317,3.2802780043362647,-1.3169278415942378,0.33897907813507255,-0.1861735593221366
3.131743336,2.7216311777841624,-0.07220676362960893,3.2611861490481573,-1.7108172861607414,0.3394468788114864,-0.2027567355462518
3.331739246,2.631547592966488,-0.7808999888290962,3.107853270080985,-2.06873426548478,0.3969403658554241,-0.21331268226350905
3.531733864,2.1590559472370665,-1.2004107488769982,3.1553658382514556,-2.42731461543222,0.3894056177766717,-0.2104492357862695
3.73174373,1.6976358885475267,-1.2981203345635213,3.184822940625324,-3.0564258542661977,0.39150218685335914,-0.2140228569724768
3.931740745,1.0194901154117706,-1.25899635315393,3.0858707250448565,-3.4706153222942016,0.3670412208781133,-0.2013028789787073
4.131730515,0.4168517581437371,-1.0219476543102985,3.1798647255564996,-3.9419162579037317,0.35349683415793703,-0.20363686800744632
4.331728481,0.14263622646362065,-0.5429132189541662,3.135996011428431,-4.334828321546005,0.4486498793751622,-0.09507582375855372
4.5317319860000005,-0.05148396418063016,0.10741790071458265,3.6152778601978937,-4.340352783582711,0.38566853164756587,0.0739757109581563
4.731812961,-0.49743692027382447,0.6816183620419725,3.5632638491182203,-3.992680309889371,0.2630663962070413,0.1539614620286008
4.931762534,-0.9619957276806896,1.2154455104013893,3.405182469594999,-3.550924960795935,0.24137420679886554,0.16836038752005247
5.131817237,-1.6673457773180698,1.3410037084293185,3.065917836424225,-3.0422293037108403,0.29765112097788815,0.1726766339723029
5.331737446,-2.184658026177975,1.3143240160694836,3.172210574682866,-2.7287023570595323,0.3410974743867703,0.1768401546350792
5.531812693,-2.7194785078938026,0.8810883640656371,3.0539437579908264,-2.2674636595631106,0.3439986512801761,0.20036746002802772
5.7317691150000005,-2.966383501547126,0.2997014915618363,3.1107914082472603,-1.6675469043088558,0.3468884894093327,0.1990322407631348
5.931732564,-3.1154231945667883,-0.2175348684163419,2.9154778023595096,-1.264009382836719,0.37948496889438,0.21125680156765053
6.131851139,-2.7243791251243468,-0.8522998677367554,3.06771722645235,-0.9105986618143074,0.418277592312166,0.21700351104371016
6.331746112,-2.2015748857544533,-1.1780987637296485,3.050166601047054,-0.4407559743500544,0.4552839933843781,0.21065948976162527
6.531734692,-1.7157128072268104,-1.255136442977129,3.2873552474985392,0.12325961592629577,0.4550963771080933,0.19922508176295287
6.731818148,-1.0941544397296699,-1.0778070035431842,3.285529988754281,0.547536579137147,0.38866148084594165,0.1857940848266361
6.93172666,-0.5946870639387326,-0.7215543845098217,3.186341015825205,0.9828426366970376,0.35405875159718797,0.18434600178591953
7.131762723,-0.22019618201233976,-0.2679988784625035,3.2127008944541617,1.3414805808354273,0.45763021886422073,0.01823228441340524
7.331729632,-0.03530149751680099,0.5056525786434551,3.3785954081243226,1.1000045711065018,0.3990668455473633,-0.13808160183589208
7.531798897,0.4691286915054699,0.9439030937315688,3.37733372586938,0.8247955109602384,0.3473227911186426,-0.17004027206318753
7.731742936,0.8494420303411921,1.4700925060606433,3.328487318696092,0.3455938616940324,0.3859705026538866,-0.18579595103265695
7.93176247,1.6826370196101503,1.4361959199827605,3.3610391598201685,-0.026961790073581626,0.38079930100826453,-0.18124775371019536
8.131741327,2.2687771759836903,1.1943077071837185,3.27999942216816,-0.6014335855465804,0.370604926858805,-0.18533669810165293
8.331812505,2.838250891059193,0.9410406156317688,3.22683807316987,-0.8911904048708109,0.3779814334495589,-0.19784338944710692
8.531800659,2.8935616277300236,0.32316535346432723,3.2120192524874054,-1.4537162407282762,0.36201341081968985,-0.2083587967731365
8.731743743,2.824008406778895,-0.4202347835666239,3.334276381948759,-1.8887664342629609,0.38526666291308254,-0.2046937515977773
8.931732281,2.692459813658745,-0.8859468260543061,3.1096922229987576,-2.269129588704234,0.4179466929301916,-0.20546015895169867
9.131812035,2.121953146147731,-1.254792958886332,3.3140015025243375,-2.8835851687526586,0.4119090462938337,-0.19715537533862149
9.331725746,1.4404474640141027,-1.3557461288055435,3.145463406422983,-3.2871638590475745,0.38550437029009577,-0.20026828927143572
9.531725017,0.8314058978008101,-1.1736248049801161,3.0877775113672428,-3.6972737191944267,0.35972652482630996,-0.19741880399673792
9.731744338,0.40934131456690015,-0.6481384778800956,3.160376005556415,-4.1190131181937275,0.3877093418491697,-0.1707465848442618
9.931729467,0.12072293735469776,-0.17868253944144122,3.366567885949013,-4.357428648813302,0.4694668226564685,0.007672433546746925
10.13172796,-0.2593809688453345,0.5615586652170965,3.6728050194165913,-4.203140667912319,0.32837975853302453,0.12172613084630375
10.331714917,-0.643210640431343,1.0298374993319168,3.587132984026877,-3.758044441240241,0.24526044782921097,0.18108128362245596
10.531726926,-1.185236151327578,1.3297095502214602,3.255695041163559,-3.329959989040144,0.29228675057908554,0.1829449535399672
10.731723148,-1.8126300099077552,1.403740618959022,3.0846994144741586,-2.9531957289926805,0.3341452898913142,0.1688245875497965
10.931803602,-2.370785262760212,1.206610153472235,3.138415874194284,-2.3993310300004826,0.33580127370831236,0.19141303557960374
11.131738481,-2.7633523223498253,0.6766941091546015,3.1406848125612696,-2.0508851448969585,0.33795171278395625,0.19767693264055727
11.331730654,-3.0533150085768987,0.02663002071227155,3.118508284135616,-1.558453461702393,0.35138023699680665,0.20469837876875854
11.531742742,-2.8733591415565565,-0.5316065105493096,2.9876818392628053,-1.1995963117347108,0.378082760744647,0.2195781264465568
11.731729861,-2.5289024630778694,-1.052902128250657,3.0679110917224084,-0.5636669653185233,0.46124218605948314,0.22769136074669855
11.931771745,-1.9655285194083216,-1.3024148741304111,3.113973456500739,-0.3301581492732291,0.4413548603695316,0.22746839193304685
12.131724402,-1.3984299175927488,-1.1664332003938278,3.186939021734102,0.23296739162265911,0.425655426015845,0.21059054834065494
12.331746448,-0.7051898674701209,-0.9188142792657576,3.2534304096989053,0.7329012671241503,0.38687975257868007,0.18593142814476407
12.531734519,-0.25972868381562186,-0.4748837454644453,3.2208457359265825,1.073682142556319,0.39824784779638395,0.1277062543252558
12.731804322,-0.1233377117336529,0.20734614771296317,3.384213120807071,1.1431038617216638,0.4530510181825665,-0.06524831650073908
12.931727675,0.19495571131181885,0.7109321670811886,3.642053031553132,0.8628353554012976,0.3454916348786809,-0.1595355938249117
13.13173104,0.7023320429509066,1.32739642212493,3.3671799423809112,0.391351271362592,0.3380578226419509,-0.18307854672749063
13.331733598,1.3429049825540442,1.432422655191878,3.280280562414993,0.040012446988267024,0.39224052054342495,-0.17896685129425632
13.531740565,1.9007129142300159,1.4040053355087159,3.215154671754487,-0.28852594944560017,0.37767597603250347,-0.1809590042023821
13.731817068,2.5275020892541855,1.0652417453837615,3.301767745414304,-0.7583947262905939,0.3644351299649732,-0.1903545729655664
13.931819463,3.0675978228333047,0.554347498605022,3.1124698520586622,-1.2579103524510669,0.38564339836408557,-0.20209941478819138
14.131726718,2.9688296421701583,-0.06188526504071051,3.095028804010674,-1.567796880013872,0.3784966729602856,-0.19553848545975425
14.331737448,2.7531886677629522,-0.6447305221051349,3.2434496179028893,-2.195162257425807,0.4037404287922257,-0.20339924292123066
14.531807442,2.4045498490868056,-1.1120082460834555,3.1624628302993956,-2.560269939736253,0.42425294559316196,-0.20321720993045056
14.731739468,1.892319161423156,-1.3593908774025651,3.2808995279483,-3.0796453252425526,0.4047628668021736,-0.19186178922423655
14.931728815,1.2072248205190754,-1.3522300511328789,3.233800253994682,-3.4432742532504976,0.3771373353662512,-0.19443301095649693
15.131726549,0.6207148995624703,-1.0447312729948306,3.1745850682067918,-3.96340724449775,0.3374538870768287,-0.18965710559958796
15.33174524,0.2484346671698578,-0.5053624593193601,3.220778041356292,-4.294922052093493,0.43153422734662705,-0.09835298520327262
15.53173211,-0.05250246790023088,0.1493603559092658,3.650855980414451,-4.35350481758119,0.42242920068250617,0.08948514134552149
15.731728565000001,-0.3906016346259398,0.698646423259689,3.49357375233613,-4.051071767122399,0.2735533416269237,0.15995681839345793
15.931729323,-0.7212838274735135,1.1980968250433555,3.4049464286982345,-3.51988161080697,0.25539112558966753,0.17847587444601626
16.131742321,-1.4619900116764883,1.3927521086530041,3.2379004833430076,-3.027675444784915,0.3395733749545357,0.1685844821830264
16.33172789,-2.1173589546250806,1.199342051276355,3.1288584865822435,-2.6886965926754893,0.33158826931623114,0.18151302020053167
16.531817473,-2.5895240042113987,0.8473804202079251,3.1152569539099426,-2.332567102615257,0.31954533569206145,0.187952100247544
16.731725299,-2.895585366284649,0.26384033778844695,3.0954516975712805,-1.7120994807297316,0.3284298521763383,0.19986160818255078
16.931807904,-2.9816403522523074,-0.4301850400444462,3.024670421662929,-1.2902962994407225,0.3502408063847859,0.2185449906926651
17.131777487,-2.6152408304178443,-0.8382168042226075,3.059668503051972,-0.9614614173787543,0.4320341416257184,0.22585089981127374
17.331823787,-2.238001933706933,-1.231978488817296,3.067320508204746,-0.358677456014003,0.4447785802876782,0.23069455976451847
17.531746713,-1.584257953837285,-1.4835509438767045,3.2448603050880718,0.08181363417199962,0.44208262786182695,0.2213573413934364
17.731845585,-0.9720787468376616,-1.075128337320439,3.24088645951704,0.510461936894587,0.417095418772393,0.19934229208490545
17.931748439,-0.5252809389411898,-0.9120070477538795,3.2646962517792444,0.7808889042544753,0.374423104388553,0.1934408127656078
18.131763547,-0.0994116376603239,-0.30906410144354823,3.2848397312373177,1.2733248446543624,0.4572775422466169,0.028239279978130773
18.331739441,0.09023350625864682,0.3904058031097692,3.554014360653872,1.0576905086730508,0.3918258898462871,-0.12446487339005861
18.531911628,0.44697718784908563,0.8814668565460752,3.359727246325371,0.7069648730426569,0.3394446780345881,-0.17055474036993618
18.731750824,0.9100388165466838,1.319501144331059,3.3718045309500018,0.3321757020588457,0.3714297565153482,-0.179614556651735
18.931734791,1.6729239085248828,1.3374803119855112,3.2835590736005806,-0.10086221178440959,0.3631009260150514,-0.1736532565737779
19.131734076,2.328504968749128,1.2452276832190154,3.2728478193376467,-0.6446678740863226,0.3603289885351094,-0.18597810923569844
19.331724846,2.752027017976823,0.7873754944984623,3.15415064344549,-0.9258707034200597,0.3631705153063454,-0.1967947354322521
19.531731164,3.017169224815475,0.22536240186017722,3.176323139389886,-1.4598677692026003,0.3643540862112405,-0.1948951588630886
19.731726685,2.9473027988197105,-0.38399223551694156,3.150297569075408,-1.8485459053940754,0.3915725322201725,-0.19878005576616137
19.931737028,2.744031789772505,-0.99335099969998,3.207614382919867,-2.375743658758275,0.4170832135477289,-0.20131966225153483
20.131808056,2.1241807882510724,-1.235370244979263,3.2554253572290057,-2.762813689595186,0.4194928108172529,-0.20532506777291434
20.331726672,1.5440414860360194,-1.5767886696721838,3.1756035158122122,-3.304277115571253,0.3933167961282635,-0.19080041429822447
20.531772426,0.9955134677029923,-1.2523986758084322,3.0469992686239595,-3.7769273157296355,0.15373371388752363,-0.2673451535741496
20.731735047,0.5534364531875218,-0.9357788796910125,2.9988528689204452,-4.310010069095697,0.465526358488489,-0.14919880811250594
20.931723514,0.17783792377169538,-0.3064180670798914,3.4664452752092383,-4.357881952980978,0.47421222399596924,0.016737955077181
21.13172764,-0.050137417411464706,0.33278969336089326,3.6103822014895166,-4.09632032493373,0.3530786026070855,0.12671509675316853
21.331872572,-0.5025050683969765,0.9694322961597108,3.492640160534582,-3.8410103861707996,0.25445198464206975,0.17443984343232397
21.531734498,-1.1255006479767042,1.2844543293293542,3.250369105533541,-3.353389136728924,0.270475687677761,0.16383908514534554
21.731729154,-1.6927587335983845,1.1829680684820605,3.127983687357986,-2.8237575492533806,0.35471610571046047,0.16163781658974133
21.931737961,-2.245907395389108,1.0339708331338666,3.1879038287656645,-2.4874485993591993,0.31990589358565574,0.18403762959204648
22.131728641,-2.5849493128673915,0.6220323745844222,2.991157111045957,-2.105328041761407,0.3295652033706434,0.19002024527654826
22.331724779,-2.844674812400153,-0.041626218241564907,3.1851236641509915,-1.568668068323437,0.32559657564594247,0.20437431613300083
22.531824896,-2.8831479677245833,-0.6359703019857463,2.868414788443144,-1.0869854575543303,0.3580924366237216,0.21484562228019854
22.731731171,-2.4003850901851247,-0.9500843440907984,2.981996198874692,-0.6491637163672953,0.4450136735769374,0.22452273097837655
