time (sec),x position (m),y position (m),forward velocity (m/s),"heading angle (rad), from x-axis, positive is CCW",throttle (unitless; -1 to 1),steering angle (unitless; -1 to 1)
1.034735163,2.606400652360062,-0.989084347503471,3.2026575812335913,-2.765795556953882,0.5501128982940844,-0.2789972386065157
1.134739925,2.2975865297325084,-1.1055637220408088,3.2705970620921256,-2.9917219499088805,0.47428477682941733,-0.26436266903652395
1.234748548,1.966252836155988,-1.10686149242185,3.2478045172356094,-3.224606710304616,0.41685324396485607,-0.2559565327560624
1.33473707,1.6592452542187983,-1.0643518386684365,3.2169858359131265,-3.497442405808087,0.37650319259076964,-0.2573431803403921
1.434745266,1.356837523824997,-0.9441685143729035,3.1457452124646785,-3.7280160380368224,0.3544410003643384,-0.2523895388274216
1.5347302919999999,1.1016493763322968,-0.7449697845095115,3.158102755806246,-3.9554158546076046,0.4539081036460494,-0.18504149589996488
1.634779291,0.8864705781326891,-0.48423536145375845,3.3793354559345983,-4.092775477156875,0.5390637742832051,-0.1072356068624167
1.734730474,0.6898726605243247,-0.2149211305190651,3.5756319879336815,-4.1055350316081,0.5859258266161382,-0.014621332467023013
1.834730439,0.48129344180720846,0.09021111770328837,3.7812275589847424,-4.0739994714275785,0.4916023153253124,0.036123548442989734
1.934754957,0.23420421632849975,0.3863553887509164,3.855102044651482,-4.032477256574653,0.40056357064208825,0.07489265082194738
2.034742833,-0.005420896890366615,0.6596066502302641,3.8698047048351722,-3.9041459494474786,0.3270779306645261,0.10917038644881841
2.134728051,-0.31675031980779156,0.9037336302962852,3.8357050980468497,-3.7403287512322034,0.25278767758455495,0.13572597161677313
2.234749517,-0.6746723113258091,1.119069458929516,3.717395285955801,-3.494496182885503,0.2042485466894734,0.15052309269543046
2.334755312,-1.009402148959508,1.243028079894012,3.5559932756400086,-3.237236505036796,0.21689168442867057,0.1526084612407777
2.434732273,-1.3285244681941972,1.2474681278392215,3.399924047336518,-3.023472335730989,0.24155038043963706,0.14767710456924973
2.534735104,-1.6527053826157105,1.2191432313420516,3.2849272180166658,-2.823834717695713,0.2884026331514864,0.14984685302513145
2.634735724,-1.9882900348420882,1.0811063798488583,3.2055638126313153,-2.5810618887073233,0.34991985434722434,0.160982795163729
2.734733117,-2.2264815886770335,0.9303156845827552,3.195273930156883,-2.4118287617044905,0.37494419503326804,0.17392939247268113
2.834726897,-2.4639723026233415,0.6811393443412276,3.188177793817533,-2.1601765901895367,0.3871721569064875,0.18017123974239646
2.934740868,-2.6087166352967626,0.39795424535526486,3.1833641318715884,-1.9147431338894787,0.4030221171864786,0.18258426249233445
3.034729437,-2.6763197657191844,0.11544619164383868,3.1864517809308777,-1.724140405280172,0.39884927828111144,0.17787741528313894
3.134735302,-2.7020020979689163,-0.20427484023689274,3.172699630415729,-1.5000024498486402,0.3933219446670198,0.18832633978282473
3.234747033,-2.684409527024082,-0.5219273271070076,3.1522261451423157,-1.262328985566831,0.3898076098248185,0.1916044151063964
3.334740623,-2.551000847545301,-0.8087955283377707,3.1455357257932377,-1.0184292227992153,0.4048897096070895,0.19994982279961623
3.434772914,-2.3737118648120683,-1.070530427700227,3.1404605423695733,-0.8055971111862226,0.4179614506060726,0.20255450177884887
3.534734658,-2.1426994320354416,-1.2579256790235058,3.176434356784268,-0.5770924637787792,0.4323541483395963,0.19918612038514324
3.634740261,-1.8167149860595984,-1.4088327680303605,3.2135393869952447,-0.3238405740704761,0.45304340010198335,0.21129816843636565
3.7347352430000003,-1.5429054260680561,-1.497072037529113,3.1984221937656607,-0.095687823104485,0.4268375310508666,0.21014446504567533
3.8347344960000003,-1.1905443960438695,-1.4815297743424445,3.2401357033604903,0.1556953378051742,0.43301118290473606,0.2039948211204508
3.934737747,-0.9311046783388952,-1.4610100606163439,3.2316143088537674,0.3665645716563629,0.4400073444546797,0.19515031533994381
4.034760492,-0.6069451605619876,-1.322989191202091,3.2258818278319463,0.5979380282109785,0.4234848788383089,0.19317577330309868
4.134733986,-0.36190578354727027,-1.1060017009985128,3.2400362192947223,0.8303961326103108,0.4147502370115298,0.18686280568552688
4.2347457330000005,-0.15795900841893543,-0.851099558162596,3.2317853351422468,1.042536995391335,0.44281164233043935,0.17661397907781526
4.33473323,-0.02057367449016005,-0.5537153309257761,3.3193767649271577,1.2130552461550026,0.5149327028500487,0.07938786625986474
4.434732212,0.0901201040821025,-0.2482268433183151,3.504822103593828,1.2659296624978174,0.5154655457147456,-0.018689058188061318
4.534736131,0.22016974236303088,0.1179687250696354,3.6191867833114446,1.2298332413575352,0.46798912041214735,-0.08706951981035743
4.634730521,0.39105922915849634,0.47567583693596976,3.67680403133297,1.097455484706966,0.41544123244200604,-0.13530557488046172
4.734741665,0.5643794373948214,0.7874844017199565,3.684672236739902,0.9472917000946228,0.34083431008505055,-0.16201584092620994
4.83472959,0.7899772475372986,1.0671542605123179,3.6388555499721655,0.7209249967996255,0.30182994199685753,-0.17492672573525114
4.934738408,1.0359376651314645,1.2851917805535547,3.5347617756047542,0.5447565058581938,0.30875014541926615,-0.19328284993503891
5.034793863,1.3454678132455657,1.4447819034548026,3.4396607719571244,0.3240014864895394,0.2943359024591616,-0.19394041242812926
5.134731736,1.6546117097577238,1.5207966848935293,3.329387207989806,0.09916903583836227,0.32341779180743246,-0.21521072269692626
5.234733488,2.0047526258482904,1.5429231130118168,3.246285519619718,-0.13992889080751783,0.3615220413014059,-0.21134447528452996
5.334729784,2.3309953979773783,1.4526877224308479,3.2225728883758884,-0.39755953542786043,0.3828518357766516,-0.21710344075138668
5.434733425,2.599864007482426,1.3009136675991617,3.2262319315065757,-0.6092119597705075,0.4246115512970691,-0.23035207050485984
5.534809178,2.8761121867665342,1.0906645418312806,3.2599273725610534,-0.8751333410153116,0.4879929602673837,-0.2363486370740677
5.634735293,3.0563381185081173,0.8029292654782344,3.26195896241704,-1.1084085263762644,0.4839982615679635,-0.2343161142550405
5.734735127,3.1783243842321363,0.5514775462199464,3.3133790533519187,-1.297987609169029,0.48274090882888393,-0.22930263778481033
5.834727742,3.224702393480757,0.2177378062747571,3.3850914958546348,-1.53302628010118,0.5112427693884305,-0.2314440517666279
5.934727212,3.2058279890688866,-0.1511692698126289,3.3956116497109567,-1.8087581199610097,0.493740380892229,-0.22622805702041757
6.034780307,3.1175487828706334,-0.4703016563099666,3.4476539383855873,-1.9826299068765767,0.48745181128088844,-0.21858503729753634
6.134736122,2.9639679734326076,-0.8072052872849598,3.4380896889628425,-2.2208700760179494,0.48128128276612336,-0.20981281036369384
6.234727495,2.752306681704084,-1.0367115314204651,3.4656787866284295,-2.434611847307539,0.4688841527499536,-0.20791083107977434
6.334740677,2.473629231678021,-1.2560615158661081,3.464200242916285,-2.653974493604216,0.4398927874050237,-0.18975071824308887
6.434744905,2.1519596757772868,-1.4006844038722097,3.5061189053172193,-2.839249102279167,0.4092744757978846,-0.19570199082605388
6.534747095,1.8271818051854019,-1.4681001966434324,3.4736538285577527,-3.0555461273527578,0.38877883837104205,-0.19717734890538582
6.634735199,1.445837949173007,-1.4738005214705896,3.432662749516641,-3.284614642533347,0.35349315645600377,-0.19176648186349293
6.734728811,1.1396431634492283,-1.423460585475086,3.2789513188375756,-3.506089892775574,0.15364922442692222,-0.24320452368805176
6.834729281,0.8314529354381651,-1.2682540543154337,3.0292192495759567,-3.797514651688277,0.094460852333104,-0.32418234107163113
6.934730182,0.62939765224327,-1.0815879302920908,2.9981104703935966,-4.031956179022343,0.4037316508915581,-0.21061235093357536
7.034736346,0.45434561235468424,-0.8473503954714725,3.1548795984305054,-4.2013539440560725,0.5366130953491661,-0.14034431035812456
7.13474933,0.294232001106505,-0.547134534251754,3.409900277041511,-4.303600549866197,0.606101168967475,-0.056047562898687654
7.234728707,0.13667308370087022,-0.1878544820660972,3.631308249660922,-4.286239720003282,0.5154832563607716,0.015492966860655558
7.334704649,-0.009557661340478961,0.11961752176236294,3.762998917397477,-4.236018626312508,0.3961083215883861,0.06189634409001392
7.434732935,-0.18961196279414172,0.44017372780638736,3.7901573337687378,-4.125967191369638,0.3165211117295901,0.09792352268877602
7.534733415,-0.44105426975056367,0.7602375619802225,3.7515133809903944,-3.9454812639358345,0.24567360677576225,0.12767264672785153
7.634734198,-0.677340812686368,1.0117137790523631,3.6733591659789018,-3.775296856068166,0.19564835419362178,0.14613299154404097
7.734733352,-0.9840544484686161,1.2069595120530199,3.4532094821620123,-3.530615684865219,0.19699921832803724,0.15311876634987556
7.8347292060000004,-1.299984405277608,1.29910397923815,3.3190018582318257,-3.321169856360431,0.21635013913959203,0.16006641782673875
7.934752978,-1.6134426831233595,1.3422385485092292,3.1781222467588246,-3.083823610702271,0.2599988733568805,0.1665914495976145
8.034730623,-1.9107120233145036,1.3054417982730326,3.0925752953198837,-2.8481471979727804,0.32458544844539183,0.17631285276442948
8.134729509,-2.1965545906614565,1.1845555257890534,3.0653250105946674,-2.6272858217571797,0.3680131882205747,0.18186111875123454
8.23473187,-2.451711100010688,1.0578497556221536,3.073220252994103,-2.3859339520324006,0.3972019060330215,0.18640996697806367
8.334729173,-2.6674848297518468,0.8062968022039203,3.1051569269601758,-2.166407804796316,0.42157099749651206,0.19532080032116672
8.434731126,-2.8458463577418756,0.5174661511648561,3.150072384534813,-1.9401882906083543,0.4446290207970266,0.1939399318167063
8.53473369,-2.9058518648237777,0.22133921776436025,3.152139475827316,-1.7060380656182583,0.43005778598818256,0.19169938650499277
8.634731869,-2.905918907224482,-0.09733399690997252,3.1682259622489166,-1.475275702813676,0.4301200922385162,0.18548137074200827
8.73474557,-2.8625798428316416,-0.3924146334098365,3.1976679277106554,-1.2421802834925375,0.45002769755430366,0.18773299161580587
8.834752791,-2.721318434024819,-0.720055541673821,3.217768663345343,-0.9997306873557765,0.4352686684010198,0.1977862358303947
8.934732499,-2.5826718812295537,-0.9490359688098697,3.2191377460423705,-0.7658218577324166,0.43034824895042534,0.19367190369125284
9.034732622,-2.3094134440030234,-1.1628728250889986,3.202850240200917,-0.5723420952313286,0.46498008083539033,0.20302442969989734
9.134858932,-1.9925694744798468,-1.343214955696891,3.215280259598126,-0.3092256530661413,0.43684277633225393,0.19498124927996038
9.234728893,-1.7299331090227308,-1.4158675584139935,3.262918990757126,-0.0968656687542627,0.437937188180393,0.19542197976612227
9.334734023,-1.400133909758675,-1.416369113404051,3.265470361578177,0.11909179607701086,0.4575230130442104,0.1991031563636031
9.434733958,-1.065320021880672,-1.3543772429886043,3.2945789025896723,0.36699862905160735,0.4294149035406449,0.1950273725199919
9.53481246,-0.7558212867275466,-1.2111543659952602,3.2428237863729077,0.6026724168904456,0.4098973842632111,0.1901013993079207
9.634730125,-0.5036436244973008,-1.0193605651421944,3.2681085410865953,0.787179160728003,0.41327170042297434,0.180693781710691
9.734734319,-0.3027821367261536,-0.7858218283356374,3.287753115405842,1.0259167530995066,0.4292978323237724,0.15884682672902223
9.834737977,-0.1342164409059786,-0.46031600183823423,3.343587595973145,1.222800369937902,0.47528896265991716,0.09308251548697605
9.93474856,-0.03209063915888754,-0.17666425304007172,3.4712506372922056,1.26635291636384,0.5592452144423443,-0.024943745988628408
10.03473013,0.05784481847890411,0.1764619629726238,3.597884928364903,1.2188185972961316,0.47518737302346564,-0.09096766154747124
10.134745645,0.23054364659806742,0.4893157184492783,3.660086357729484,1.1077404559803168,0.40802364091231963,-0.13986623092216993
10.234732084000001,0.39714602097543744,0.797070558488195,3.675239688043185,0.9469255935828036,0.38134044762882935,-0.16626847702502254
10.334738146,0.6222120953333625,1.0990084689084467,3.632215743227105,0.7577514617293631,0.32800500921427994,-0.17712159992168772
10.434790696,0.9221057492141126,1.3219637406563853,3.5241089285547478,0.5413966126298486,0.3092269214057308,-0.1916108393509737
10.534731063,1.2164935666272458,1.4855641705550278,3.4452743270323474,0.30523779368549164,0.34412539676871917,-0.19823306184905748
10.634733532,1.5219111278695994,1.5890478722320556,3.353127431613288,0.0910989689767064,0.33930728692399864,-0.2050577926059725
10.734725722,1.8683297131580159,1.5779772731015678,3.2991861394717996,-0.1311126443570248,0.36029248390516183,-0.21691722858828863
10.834734882,2.1794283651940427,1.501137946136053,3.267355542127727,-0.3618758238558884,0.3993061979746407,-0.23233424113080597
10.934728295,2.5068183601743295,1.3368681907161293,3.2453719205237275,-0.6219995025146727,0.4343710268489431,-0.2329796485991499
11.034730266,2.7171745872363218,1.1658951149493666,3.246870831243562,-0.8369675503517855,0.4550471479654859,-0.2228785762424592
11.13473665,2.9296877348472625,0.8997261934697778,3.2843392154982896,-1.043906310458801,0.5247621984586979,-0.23849184427699052
11.234731255,3.0799185864975986,0.5968877608552138,3.366903594932131,-1.290473944983517,0.49119664490629394,-0.2384445358896028
11.334725632,3.1348097946851547,0.2668288640736447,3.362805257761926,-1.5233946214925487,0.47653348966706316,-0.22956105410902153
11.434726819,3.118879495608839,-0.09192927336566285,3.3821412990908333,-1.7709321135332659,0.4942151634081659,-0.22742600417560543
11.534732962,3.0436659434109865,-0.4053853983483529,3.4335085055320387,-1.96930473440266,0.4916711173189852,-0.21669850400137738
11.634735659,2.9073383597671696,-0.701555618638667,3.446666278830832,-2.174028346126198,0.47671305204255077,-0.21853122719328086
11.734729329,2.6699143410306876,-0.9606905671354877,3.439301352468887,-2.403656013123255,0.46107647756972603,-0.2006467376490111
11.834818033,2.388001073226311,-1.2130925050717278,3.4373948736317144,-2.646087454645012,0.44394131973773676,-0.19712706507200023
11.934734858,2.1109569083807314,-1.3371696583637225,3.463421208651587,-2.816208980043178,0.4071773751139884,-0.2006749658534446
12.034728584,1.7576468002990846,-1.4497222524242164,3.408123006715889,-3.0462305980883073,0.3703189028621923,-0.20603083431391575
12.134740762,1.4395416595362556,-1.432557941420184,3.3915033275328783,-3.255488363377918,0.36999440269196965,-0.209203111505902
12.234730982,1.1222142817019973,-1.3989493294864745,3.3160357981295685,-3.473846255687595,0.3420462123935614,-0.2073860618937569
12.334729728,0.7939877156157839,-1.2540167577162722,3.281474645226213,-3.717130087815275,0.34176822463588613,-0.20758112258862718
12.434745706,0.5577162229094509,-1.0470380947658686,3.2513670715430583,-3.927004481427606,0.37319860965934326,-0.21982715000884623
12.534729749,0.3255818639816515,-0.835890061195343,3.291972711827449,-4.106397059815791,0.45915920908514624,-0.16500192345496748
12.634742746,0.1384425153027563,-0.5595204658526255,3.4049992469299943,-4.253780523450534,0.5025076133976333,-0.09248235917642503
12.734729604,-0.03522192730711169,-0.20060670772486783,3.6440870080426024,-4.25905144105371,0.5206982655123811,-0.0013744997692265925
12.834746884,-0.18600879776792012,0.09079414835849642,3.7302828581566416,-4.19484697142942,0.40358870511891126,0.053703612717074786
12.934730287,-0.3699314070857824,0.4328041673502731,3.7685243063869476,-4.112994183221025,0.3131262731437362,0.08521601589699518
13.034729357,-0.6163868781418433,0.714384344457453,3.733956307140069,-3.9810089378027405,0.255688619640485,0.11817072896936258
13.134774631,-0.9103194794404847,0.9921208792200137,3.675193101973145,-3.794103465554817,0.18345639110367068,0.14538020252340056
13.234735779,-1.1657884516651362,1.1650417762128695,3.551462165425673,-3.5849735439415555,0.1489414899873816,0.16192205722443145
13.334730797,-1.5284076242900695,1.3131861303594101,3.350909574860317,-3.3266765065030524,0.17572608690666155,0.16621628331796318
13.434736685,-1.811138673139762,1.3528810150870332,3.1626378954582544,-3.082330892802278,0.19859263831852775,0.17031005255719614
13.534735499,-2.115134379893375,1.3242075672014404,3.0222795691936035,-2.852755822920825,0.2753764123594641,0.16638504808691795
13.6347346,-2.4111198315555282,1.214500941504441,2.9966739782956426,-2.641966638929913,0.37364756765199764,0.18611795047226606
13.734743683,-2.6609569553472077,1.0393032848167236,3.00759665537936,-2.411909452010935,0.40343430913217376,0.19938827320899552
13.834855428000001,-2.8685012727142767,0.7836934579180203,3.0206400983545687,-2.152457079476017,0.4271724515818177,0.20549566074806816
13.93475813,-2.982766696280314,0.5176818421392668,3.092037394908722,-1.9164847907025662,0.45534472454145025,0.20424613060662028
14.034730197,-3.072528519325318,0.23408236507404526,3.141891693497116,-1.7040514853594724,0.46764243963945284,0.20029416038682207
14.134731463,-3.085040587432501,-0.06046780840037197,3.19076166479844,-1.479433361147354,0.4518713753213726,0.19894941494511414
14.234732128,-3.01675776459873,-0.37389870279608184,3.180546771471831,-1.230796375187445,0.45321794836883544,0.20128748659269508
14.334728751,-2.884604759337052,-0.6778358980954496,3.2466138702239284,-1.014680383151475,0.45589014342260853,0.197187302705542
14.434725264,-2.6943010753089,-0.9528889045138484,3.2838284091949848,-0.7729309759342234,0.4538342775748556,0.19773663031407507
14.534742199,-2.4520082399766325,-1.1464523483520577,3.2986368075353836,-0.545769174673214,0.4632882597967229,0.19556651116759155
14.634730844,-2.1490534040851164,-1.3269045408961961,3.3142809152917785,-0.3322588453658215,0.46131471449432576,0.19390539154527317
14.734736526,-1.8084638707149163,-1.3867075926034875,3.3135866169754715,-0.08529919883680041,0.4425686289723892,0.19901392359934716
14.834727391,-1.4960769524186386,-1.3967755608983072,3.339432026531615,0.137232075510199,0.43330378584220725,0.19173801905988164
14.934762376,-1.1732765965896852,-1.3623623168498218,3.3150000976773275,0.3383495364461712,0.4250342232644472,0.19146665603099716
15.034730926,-0.8760198533523537,-1.1816758596222108,3.2936449492825233,0.5722409729578868,0.3998136652652866,0.18569241153730237
15.134741974,-0.6189735978418002,-1.0056417473604207,3.3007734237218918,0.7998596222855651,0.40513919438689433,0.17654134678913924
15.234755989,-0.41278011204554366,-0.7616656970251261,3.2647311860123684,1.0181547678735723,0.40350647259339845,0.1722478870640727
15.334729013,-0.23057474111145881,-0.42883754573498845,3.294529525582481,1.223697410092925,0.4707190252483564,0.08352560745694855
15.43473131,-0.13453799489501297,-0.11269376245747696,3.4846857958057003,1.2668383919927169,0.5810219224829163,-0.038252542553503764
15.534741891,-0.03170076937828436,0.1973411841118757,3.636978356494661,1.2515514848849185,0.5096415186630999,-0.1045627961654016
15.634728621,0.0952684968642694,0.5659128867961996,3.684337710956588,1.1006692987621658,0.41410868444831156,-0.1506987687969326
15.734736927,0.284927706721649,0.8543914852951334,3.6702640425770237,0.9732299574804707,0.3583926588867737,-0.176314402827143
15.834733443,0.5021415145279865,1.155180854962853,3.64377635590079,0.7695224390235985,0.3533303854681472,-0.18912506740632756
15.934734289,0.7922615842988276,1.3502237664016077,3.5727829507215243,0.5383249035610702,0.32000276664201727,-0.2026980939768778
16.034735754,1.0900172990778392,1.5459639826538762,3.4823549481492573,0.3226831722258683,0.3253341068604159,-0.2116344494670694
16.134812233,1.4656670062787154,1.642391902161324,3.4163530454202453,0.08389161829537578,0.3604727368876043,-0.21376572131338548
16.234737574,1.7286079301721704,1.630544249658414,3.3737914431264033,-0.11627566168124315,0.36857872312920487,-0.22285272698264977
