time (sec),x position (m),y position (m),forward velocity (m/s),"heading angle (rad), from x-axis, positive is CCW",throttle (unitless; -1 to 1),steering angle (unitless; -1 to 1)
1.02616601,0.2150777857461043,-0.16179685797030643,3.2508545000078826,2.018033036195347,0.3735607726301787,0.031726457518763095
1.126076887,0.04085258407180845,0.1165042180675119,3.3019296126475988,2.1104916015885222,0.34195166583009695,0.09852371234282971
1.226090264,-0.1613375307877408,0.42587153621563195,3.298306184483372,2.2451529414611495,0.2836046708812272,0.13661980492441847
1.326076402,-0.35708622655316774,0.6416371072644262,3.272777539113832,2.3996174298178787,0.26459258947628367,0.17625252051043971
1.426095642,-0.6149127665339703,0.846129472462565,3.1991295016010857,2.6241591088334895,0.26611441784622136,0.20814251890963298
1.5260728270000001,-0.9003965669085205,0.9948617100434558,3.087266508322386,2.8542888955873233,0.26039717820501007,0.20094403830353685
1.6260914990000002,-1.18874038195032,1.0628939365194094,3.010923828129598,3.1024182118276875,0.2825695874420102,0.195145190832091
1.726077816,-1.4957837562131697,1.058215708884237,2.948295560347038,3.3067827098927554,0.31752020207847614,0.19986781264059908
1.826079499,-1.7793149513909878,1.0215262091173716,2.9141827398739757,3.509721361590421,0.31249100198614027,0.20254767934611986
1.926096007,-2.0355549824712798,0.8837570784016359,2.874105105812543,3.724396091242472,0.31798235840322486,0.2096761325334622
2.026082955,-2.2510978772387236,0.7062212341067966,2.891046249376808,3.903879017584889,0.33937722346448507,0.2211122089062037
2.126073842,-2.44312972049369,0.4785391420784524,2.842305874409199,4.161207449780425,0.3217250417473072,0.2266014176589809
2.226075257,-2.56681319931997,0.22002269929882087,2.8133386550927733,4.385921365553111,0.317778969762744,0.23191423549649198
2.326073762,-2.6464383701144607,-0.04536864396581014,2.7805576515712915,4.611534655999982,0.3396921879516994,0.22644019546549404
2.42607374,-2.646728767987392,-0.31352021839791566,2.8032126132661386,4.827355723958273,0.3459709259330273,0.23538177368837276
2.526073202,-2.573059507311667,-0.5960472625447935,2.7880156296617535,5.065978820535532,0.3435418735756465,0.2359018991843572
2.62608333,-2.471900273218528,-0.8342264802640804,2.7967353068070038,5.273265911528175,0.3584431355742563,0.22960561190283232
2.726074375,-2.2792064905098597,-1.0767751470062537,2.790886187538858,5.520288858482648,0.36238945167356346,0.23678768662566577
2.826073145,-2.0808612466555942,-1.2377153262145588,2.7949387915882817,5.733124332783355,0.3545709554909037,0.23454446908103405
2.9260756480000003,-1.8296893737436108,-1.3652229099983695,2.7969264657872284,5.982639083312636,0.363649668352444,0.23472085362713987
3.026073755,-1.5380704011257988,-1.4227871377409624,2.8155194353671305,6.180871784326819,0.3680795938897542,0.24254417751746188
3.126077823,-1.2548592285671896,-1.4106282717048826,2.8122578437995673,6.445180694148369,0.36448448559144375,0.23677055526572177
3.226081125,-0.9367003379396789,-1.3430752192008724,2.8172776197373066,6.721731342924992,0.3746215956769691,0.23071678635380988
3.326077568,-0.7223906339765894,-1.2095919961232817,2.834520105955977,6.920178922243996,0.38512838571774,0.23070724856441727
3.426077009,-0.5234738750214322,-1.018452136128057,2.8387532921955043,7.12919964495983,0.38135229867737114,0.2272593402641816
3.526074973,-0.35204998605067034,-0.7671676227838121,2.8697054126521464,7.350339938306346,0.41105302929438176,0.19150635138717303
3.626119847,-0.22954585530608343,-0.5427071233502332,2.9808131190543437,7.5021056305996945,0.42451281123449214,0.10109085818290321
3.7260785160000003,-0.11025486376353665,-0.2663678833363811,3.0729787570684888,7.521769739259234,0.4061690135906427,-0.013403331686413288
3.826086198,-0.010082767505525966,0.04064831054445179,3.1893237341170346,7.513674682527217,0.35867796010460185,-0.09480158829231661
3.926089196,0.13106708289969032,0.3470579103645381,3.210662939952378,7.391731795791535,0.3404169919394859,-0.1682561865726979
4.026096193,0.26591267757812487,0.6020842055881275,3.1980615512791997,7.222220849615352,0.2910831467720062,-0.20658251332726252
4.126073256,0.4828772335390394,0.8449981936160977,3.09857869503036,7.018637074783514,0.2806852509565299,-0.21668194669628965
4.226111809,0.7203160935139373,1.0402095299309988,3.0550923913427352,6.797917297791289,0.3049681594459714,-0.2312615024296401
4.326072923,1.0267403140831932,1.1771855466442065,2.986660746603268,6.511827125356825,0.31633161264087184,-0.23899991327278602
4.426072967,1.292640523264698,1.1890084488859436,2.9301137046624146,6.342201908749707,0.32394091806956715,-0.22654565909440605
4.526085008,1.6050096400953535,1.179267666916222,2.9123261195757735,6.1026286229415,0.3490630105746567,-0.23349090831811092
4.626102237,1.8323996497801396,1.1248482615573636,2.898538430373633,5.906129343920006,0.3336988255723678,-0.24304762696620888
4.72607178,2.1164110408089303,0.9650182216724998,2.8919060216076247,5.669484910686526,0.32697748384959235,-0.23938221253971592
4.826091856,2.3538958791496385,0.7446957562135558,2.8574776676558997,5.417328699474268,0.35002678341906673,-0.23693399469534007
4.926072908,2.5232510507393866,0.5350741074143642,2.8471984405715394,5.228288579105863,0.3362520773684996,-0.2427213327827968
5.026073629,2.5893525172929435,0.2979881734837359,2.81618965886681,4.9700657356028275,0.3307573516235266,-0.2425404851616644
5.126086826,2.6434904571644213,-0.02028305125003138,2.852584100105318,4.744446666394204,0.3314362247740271,-0.2480720553738174
5.226172668,2.60530230366832,-0.3031332571282774,2.8183117194829856,4.53048352387879,0.33905954368595437,-0.2517224881047605
5.326076883,2.524784605015211,-0.5675173526012832,2.7979427230345593,4.299761551352955,0.337497130683712,-0.2459781690530373
5.426080943,2.3794310751924748,-0.7950115755243894,2.833866037209299,4.064380512609925,0.34499944235598834,-0.23927518461970196
5.526118403,2.181867180229557,-0.9993242212775759,2.817272846847746,3.838791502120668,0.3433650145297434,-0.2552949199131347
5.62607317,1.9525155376338297,-1.1422728208134825,2.823864576571249,3.602379114853992,0.33923217012393314,-0.25921312647123157
5.726074568,1.6861238360855029,-1.2442254490044637,2.7984102770415875,3.350838626023679,0.3477760883295318,-0.2535130903660812
5.826076062,1.4464502495523313,-1.2929147613516077,2.815527633869875,3.172385085300754,0.36511212607271315,-0.2521953078318804
5.926073161,1.1370386186522958,-1.2563358603141699,2.833461949131303,2.91311267566191,0.364526057108407,-0.25563316589824286
6.026135075,0.8367816646383032,-1.1432756313552288,2.8348108372743233,2.6834874584977157,0.37102344868815484,-0.2513991980847297
6.126092022,0.643270640129222,-1.0043419242738794,2.837036378890919,2.460853677282578,0.38084685242113475,-0.24595688931595464
6.226072645,0.41766394587262623,-0.7767075626129822,2.827798924215446,2.197614000215368,0.37557157822859166,-0.24636397189000137
6.326075001,0.2877534312223828,-0.5266564747400141,2.8888351102600964,1.9907472810200004,0.3961160075940815,-0.18008194232897054
6.426177437,0.16850388815479939,-0.26772104936870045,3.0667924509026423,1.9262028755562814,0.437261591632617,-0.03546912497214334
6.52607353,0.0697894912391619,0.027940938342600433,3.1532120041917597,1.9778242693133963,0.35244597128446914,0.05558105135402821
6.626074576,-0.060808873555920476,0.3295993808840114,3.2165112910434517,2.0639402683873054,0.3034720867400718,0.11258192417204974
6.726087738,-0.23163561209240005,0.610130251158147,3.2095229061479618,2.2024446905708595,0.2984684692058677,0.16325388240415564
6.826071768,-0.4479188687934198,0.854403762315292,3.1957134566472307,2.4066639123751017,0.26758862533918576,0.18991155950059826
6.926076421,-0.689248486779017,1.054697802542818,3.08902356065106,2.598475892869535,0.26700717519258294,0.20583847516128453
7.0260798,-0.9465329021600078,1.1601805967334378,3.0282997222510066,2.847167214427145,0.28929124301807363,0.20667251538489184
7.126071737,-1.2424131951971842,1.2757249431668019,2.9307002246658187,3.0809299494880436,0.30688224823867605,0.2089056334454101
7.226075563,-1.5330074436890206,1.2448902206901504,2.93441254901368,3.2954039389968535,0.329854473621415,0.1978619040712647
7.326077456,-1.8337521349255714,1.1964455636572957,2.906523355768775,3.5235122491656696,0.35436527996948614,0.21380990801082744
7.426074015,-2.0930803188381524,1.0467851422210457,2.9023851650632295,3.7510061195257736,0.3336549591370901,0.21700091866565765
7.526073821,-2.336723633589861,0.8876540900952513,2.8900100131006585,3.970919758600991,0.34194236275844886,0.21513861088622502
7.626074312,-2.50576212085644,0.6415148086230676,2.8842120266881737,4.193747690970542,0.3534879606994733,0.22546478621822308
7.726089783,-2.617881043666514,0.3925023195037148,2.8693643704661373,4.405567550337837,0.3401615941157833,0.22625746746054612
7.82607473,-2.6856662734487844,0.11654959107895012,2.868626265077145,4.619470999529677,0.33976525752266956,0.21983757298110487
7.926076727,-2.6917458274714527,-0.16414339040355105,2.8739404671290174,4.836934780675864,0.3620319564951979,0.23247752803515545
8.026106271,-2.6168087467210017,-0.4845369198455296,2.840420718439896,5.095781069793723,0.34497996503470435,0.23447672933724123
8.126074769,-2.494686747730657,-0.7004676157402439,2.8345015747452362,5.312247915548917,0.34983958309215646,0.22504327666749324
8.226075092,-2.3247218661761773,-0.9205435993271361,2.8509537813291055,5.524637471607859,0.37221550561105,0.23174652945206797
8.326078216,-2.105095030099589,-1.0865549243721018,2.8519004676919297,5.737613114238401,0.3577115351252368,0.23226095367319385
8.426087335,-1.8221113178144792,-1.2531551425551666,2.841150424472356,5.982983575358129,0.3502261131792854,0.2244899965310807
8.526146191,-1.5982236819909617,-1.3043158736378402,2.8626067075647317,6.170045655044992,0.3734563667483812,0.24195893997193116
8.626079738,-1.2452374969387765,-1.2860662869100252,2.831902982386596,6.4519043473266455,0.3468172408244552,0.23669769119049683
8.726073373,-1.0221285017887578,-1.2202117353290922,2.816568282217934,6.691103178905133,0.3521112612069451,0.23078462457200014
8.826073904,-0.7231253562075247,-1.081730762582172,2.8317719254188556,6.913133941491549,0.38513629596342386,0.2296745276737206
8.926097461,-0.5616126867030928,-0.9472415723267292,2.8573612534140613,7.084651076448732,0.3717301630639813,0.22639497813860635
9.026074183,-0.35909321117929033,-0.693070958815158,2.8669630547121936,7.3295144862910995,0.3959186884161085,0.1899610921631161
9.126086551,-0.2553970011274686,-0.43598615882137415,2.9489457893250015,7.509883169012007,0.4008580499157314,0.11325979581252817
9.226075412,-0.12655268460305935,-0.1403629213836547,3.0741980469546153,7.531739775635295,0.4017025614356948,-0.017693042442867506
9.3260758,-0.04837221269680168,0.16770329015159086,3.158111251277743,7.516702571520434,0.3515700103529339,-0.10017132593249785
9.426076068,0.08882609604201121,0.43518748409572217,3.1790680199754164,7.399824869296745,0.343387942019154,-0.1732260601469206
9.526075457,0.26184455268364937,0.7180000314278222,3.1424049726390684,7.217779165026729,0.2965364490029035,-0.21124835000992698
9.626076009,0.44239299252703435,0.9303072024121466,3.0834211198619723,6.9633564999168875,0.2889380107185857,-0.2256235576074627
9.726073325,0.7076171620320775,1.1175825263132975,3.0297621693412142,6.762897533516182,0.2990322347948383,-0.22850376766520308
9.826131778,0.9977090849562704,1.2303085301151908,2.9877492379176434,6.543066195767313,0.3191624414288948,-0.23010001937197327
9.926073715,1.2898897578110646,1.2685582179799118,2.968501905116713,6.347528242769411,0.3228643221561566,-0.23101815738759696
10.026075373,1.558223951794851,1.2496185514322098,2.950706487298872,6.150806019668005,0.3321407227771029,-0.2329768093457402
10.126155244,1.8569331238797335,1.1806651489832827,2.9311957542145204,5.906829126140295,0.3437567522894478,-0.24391384223310317
10.226130031,2.0933150905083666,1.0358219326769276,2.9406339780465287,5.671580986984258,0.33014880431072274,-0.2385192442247945
10.32607621,2.321382770614508,0.8371046986402843,2.905318042542264,5.4371177574418255,0.3353194212110721,-0.24594624018506217
10.426108473,2.480665559377727,0.6168045285298464,2.894078713742704,5.215958004290342,0.3400023694440394,-0.24949185081679653
10.526076745,2.61527714498599,0.3353393229603438,2.869160811941016,4.99132785305294,0.32619591241521334,-0.24870906681959215
10.626097619,2.6535681993740283,0.05091513673748203,2.8831318033034963,4.7747953355146775,0.3325577502518056,-0.25104376908436205
10.72612741,2.6233265109160397,-0.24032400035192786,2.869818386295473,4.529238094725548,0.3469497788310505,-0.25367634473268746
10.826072611,2.542017545047929,-0.5124176756260059,2.8490190625734115,4.2817916940267144,0.33175650277091245,-0.25414813221864485
10.926072087,2.3647694640644636,-0.7261799119304839,2.8442956991807353,4.065933405815766,0.33782223153109225,-0.24936836025773443
11.026167457,2.1917932370777886,-0.9451225939048176,2.8355349399020437,3.8283467204851767,0.3580507876138182,-0.2548597315939043
11.126076008,1.958135556692504,-1.0762542920027316,2.8310559454510256,3.5891446625205212,0.3399988176430808,-0.25685364136714356
11.22617067,1.6926634059357104,-1.2018287405032588,2.805733352773915,3.342355057738194,0.3397772312202488,-0.2571078787688057
11.326080798,1.4079882536602637,-1.2107220765207298,2.8378453833562376,3.1328932754118837,0.35546983294958745,-0.2554638503977195
11.426196639,1.1685672383440109,-1.1687141353224424,2.8241336415929053,2.9257098948598563,0.366645367433911,-0.24642793783240688
11.526076378,0.8849829787943723,-1.0639218766449272,2.8652128632014913,2.67219195552208,0.36072829947144325,-0.24702602759037123
11.626077354,0.6353845895702747,-0.9456345644174634,2.855843568733704,2.4514892313499064,0.37275880968243885,-0.23652564965826003
11.726093351,0.4861794274847481,-0.7841605968367243,2.888353806618198,2.2875444927489936,0.36593208851150794,-0.24325977732857337
11.826077572,0.28817962797937746,-0.43461193525784575,2.87370441501225,2.0112452620304353,0.38892327352292577,-0.17287829081794362
11.926077192,0.21437239191281554,-0.19332007779635027,3.0061837570205294,1.9196824993073438,0.39296889135117097,-0.054815328264338846
12.02609681,0.06079591423260456,0.12637808137100592,3.1438724719504703,1.9519453900053012,0.3722751429546074,0.0642509360842782
12.126072636,-0.06274025754086658,0.4051490232561622,3.218613184455634,2.060091234621614,0.30879057957154155,0.1260243761556462
12.226124002,-0.25013918472096713,0.7072839452064206,3.2320595588536993,2.2258535181610712,0.2802394800336683,0.1620332656669658
12.326074571,-0.4328745444784576,0.9331784089575965,3.1609741016446207,2.387694627530741,0.2745088759117125,0.1940871008408718
12.426077254,-0.7075320497720748,1.1291906826615499,3.083104508445668,2.639931134836032,0.2718267293149905,0.21088436274635763
12.526078564,-0.9587147236516418,1.261550928446658,2.9827091066421816,2.857653289721905,0.28714367110323924,0.210008258193655
12.626080049,-1.2359777659111089,1.3301999379696,2.9692508092594996,3.0991790442563807,0.3283293792912944,0.2063684116011185
12.726174237,-1.5313367075486972,1.3031341516124741,2.9526875841003988,3.305186141421541,0.33539462305572104,0.2072109215682175
12.826116689,-1.8324851055944202,1.2388023213046373,2.935291902031405,3.507353346631914,0.33527076686241053,0.21244355073622442
12.926103979,-2.0718159568731704,1.1212035396158297,2.94794997464538,3.739453719117763,0.3674294792021741,0.21648686331275555
13.02619656,-2.3070001520125345,0.9344371620464184,2.93027715507816,3.9746681189772755,0.34215503919202345,0.21617866053887042
13.126075482,-2.4819402549571428,0.7215648582304974,2.8819325011074315,4.172909909752596,0.3282504663901335,0.21863223998249603
13.226159362,-2.5938358278753153,0.4214205022444764,2.902137472809664,4.438028224175929,0.34073373951243596,0.2227729765036098
13.326074297,-2.6657199225958164,0.17453345653350025,2.8579588729268446,4.642071172685955,0.3503743906261065,0.2250411561693405
13.426087004,-2.665455379591354,-0.11779840530069725,2.8620356846766897,4.840587151418402,0.35430648657681313,0.22677479406979145
13.526073526,-2.6089810611251876,-0.41348142357701867,2.8586524073528623,5.0836061770985435,0.36078001424391204,0.21746559847981684
13.626092341,-2.4795482859107847,-0.6357246990667487,2.8526620391511024,5.304835226239554,0.3544272461586508,0.22733125556184203
13.726157121,-2.306970635856058,-0.88010945472979,2.828117800701642,5.51998135272087,0.34892203946304506,0.23117094118217607
13.826154005,-2.0930516980326437,-1.045253039566411,2.8507328792218845,5.758105652432854,0.3496451474206843,0.2231037950744878
13.92611955,-1.8266615656941512,-1.1773301847006898,2.828878064645491,5.984915739302214,0.35904657068473445,0.2304767761665594
14.026107155,-1.5632032076835287,-1.2468452913516352,2.829460559655612,6.218062326401036,0.34238000654006984,0.2330967788434497
14.126074366,-1.262071622520105,-1.2337309408988086,2.824816701936521,6.441099473995604,0.34891295393181465,0.22876316490978557
14.22608157,-0.9787471737045235,-1.1626924719241392,2.8298327434272053,6.670080638055839,0.36660504265308264,0.23252519080485973
14.326074628,-0.7362048474686242,-1.0289541295757547,2.800755713165268,6.900214893967934,0.35671894437614976,0.2250268930699196
14.426076667,-0.5069637094316232,-0.8129469517963018,2.814048571266186,7.156718277861223,0.3621450359679886,0.22579495148100454
14.526072815,-0.36203183749813783,-0.6177052519103758,2.816645985474921,7.360514121857134,0.373342101107787,0.22930785633978065
14.626072977,-0.23424325124678716,-0.3508377949602189,2.8910100317816507,7.522830772224249,0.40408713441628363,0.09605530118871326
14.726081539,-0.1485952055176378,-0.08520280762973101,3.026239250175094,7.56048457507532,0.4000614556150464,-0.031588401481369245
14.826093827,-0.06367005512117922,0.17357499949309613,3.109550307336742,7.541254535074055,0.38643476836817825,-0.11341070927078772
14.926077818,0.07501114763806058,0.5080769889051879,3.1550022096379013,7.442012146188604,0.3225948720875874,-0.17503935968925088
15.026072343,0.24337460281291037,0.7770061464421806,3.149677251826203,7.269313201043298,0.2954317258668272,-0.21625950341741215
15.126077014,0.42143444761393883,0.9792758554087205,3.0954596656403166,7.0550466292301675,0.29704839400048677,-0.23983592594678635
15.226077135,0.6834521020773652,1.2021546552582378,3.032983455769507,6.795485322264321,0.3068822038751923,-0.25286868614929925
15.326085608,0.9671884950371921,1.2904736986013459,2.941490863539959,6.5805840203306305,0.32310133853465256,-0.2412227632040641
15.426088999,1.253427359264065,1.3672888835241959,2.927422090876732,6.355546945033756,0.3481071394218706,-0.2417925741076103
15.526158611,1.5391609950485943,1.3396511315772697,2.943194969065022,6.133789773629159,0.35488009270000054,-0.24242438035491834
15.626177205,1.8078568233150172,1.248804362317476,2.941224098493328,5.929445067112543,0.3468006640530311,-0.24382887566589623
15.72618172,2.078914238834917,1.1105780274685244,2.9052290623168093,5.706974433245075,0.34286409215117336,-0.2513600799222145
15.826135151,2.3070513657939715,0.9280049632516543,2.923104644634614,5.4387644045028125,0.3514427143364635,-0.25294884994773237
15.926125666,2.478490541257711,0.6797886190857665,2.910982111677729,5.22820105352981,0.34118948025765,-0.25049319995533925
16.026078982,2.576371531437014,0.4073334234669087,2.91272985859776,5.016039468688273,0.3407229098928768,-0.2502838257986734
16.126075124,2.6215069039331484,0.14248703717995384,2.8778904172466624,4.8076398582168975,0.3494390950439312,-0.25786345772477165
16.226087301,2.6115487389860514,-0.14762576019756174,2.8605894114524615,4.566167298762693,0.3254746120232432,-0.2510172652282816
16.326084518000002,2.5201832997164497,-0.41516287983475914,2.8612917097954904,4.328065632313213,0.33158548681479905,-0.2626821011249665
16.426094191,2.398289578408343,-0.6311449451983534,2.8496598799337005,4.120668013971087,0.35575777706918005,-0.26488759301709286
