time (sec),x position (m),y position (m),forward velocity (m/s),"heading angle (rad), from x-axis, positive is CCW",throttle (unitless; -1 to 1),steering angle (unitless; -1 to 1)
1.029691934,-0.1638453794989582,0.4248355109751071,3.442668274514218,0.9992256373911929,0.5682185007999923,-0.15727255371497126
1.12969955,0.0528237855584008,0.723024587226214,3.5077678184935515,0.8512397275015008,0.4334747452117904,-0.18636818719364434
1.229689055,0.32127554565511524,0.9431253056948051,3.514626022014979,0.6428638967386457,0.34534934453246424,-0.2011697320774693
1.329689994,0.642353936389049,1.1344028239028778,3.398503469554111,0.426834448289806,0.31494257809510295,-0.21522624955089362
1.429704305,0.8999961408234862,1.2522933098305626,3.3493886933413,0.22825799417867487,0.29415171042469873,-0.22220585479754767
1.5296900070000001,1.2800061793448068,1.283397499163608,3.248516090712962,-0.04127731474556577,0.34001133115659365,-0.2341086163221543
1.629688737,1.5753952084502316,1.2563053531186599,3.168593892056876,-0.2730438792386467,0.42255070503482595,-0.2446634690103685
1.729694571,1.8615746818395094,1.1439362810255742,3.2035309335626363,-0.49786393079610175,0.45740949982634643,-0.25412960154860054
1.829684506,2.154390657717377,0.9555913172687811,3.1990293673037775,-0.7392121836013386,0.48930522381911573,-0.25536895996647363
1.929693285,2.348920164523667,0.7481727928579948,3.2183752887349555,-0.9696462336503405,0.518750961179734,-0.24690200431764175
2.029688487,2.5116513638434466,0.420550878155316,3.256809372750008,-1.208914035556672,0.5067520456074476,-0.24319769179537293
2.129685886,2.6020766527298145,0.1176045135214787,3.2679181114849096,-1.4505100422430766,0.46794236889248664,-0.2352703871429807
2.229693739,2.6137398484019694,-0.18769746895971604,3.251346105497607,-1.665389775613981,0.4408308282226337,-0.2326070710376982
2.329685951,2.5695025459327225,-0.5160367187024318,3.227322304839212,-1.8797910912807811,0.42203970139268976,-0.23515701756965432
2.429689976,2.4604220641050425,-0.8171837837213384,3.229348398484687,-2.0985596442522505,0.36705545189620253,-0.23423836014212546
2.5297858939999998,2.25261384771802,-1.0924318053809285,3.200096405654957,-2.325027456373093,0.35701337818864054,-0.23799375109024704
2.62981538,2.021678715591989,-1.2798395679543897,3.14537149490104,-2.5246498886813784,0.3341425547174722,-0.24792914271922048
2.729689238,1.7309027517311588,-1.4436591057377124,3.0782775928280643,-2.7658553041971494,0.3153467616445909,-0.2631482681447477
2.829804511,1.4474054827042322,-1.4945005689279467,3.0026680611603913,-3.009348047630421,0.34823047613948305,-0.2722286303630121
2.929691418,1.152258008314052,-1.5241650997993985,3.0018259249800856,-3.2630500675365037,0.4190401811892035,-0.27677642710343314
3.029687476,0.850843854021668,-1.4532002210932795,3.0148449722740396,-3.5038872592800256,0.4754062228503214,-0.27423299755277125
3.129689194,0.5800713632337264,-1.3209248145260923,3.0634915076767406,-3.7538189116049754,0.5399931465137905,-0.26882359370031633
3.229690549,0.3565542149153657,-1.1357772508930104,3.087731462572688,-4.055064787292913,0.6029026932895714,-0.2636553239406048
3.329698708,0.16760133960354004,-0.8625109475769361,3.236954950716273,-4.294554699738936,0.6416474230595035,-0.1497738379034699
3.429768406,0.01820809244081606,-0.5551895951466723,3.4518554286899508,-4.396410973368562,0.629503029153367,-0.04226405681875026
3.529685932,-0.09051088525132045,-0.22309853506318866,3.651847338519398,-4.331146366683958,0.5900637662184428,0.055240552414893625
3.629699244,-0.21926616472875413,0.12882827643090025,3.7761026117617997,-4.263975111737713,0.433708409436793,0.08826319914019778
3.7296837590000003,-0.41209676598606654,0.46757987109539206,3.7973048738115764,-4.137765822358246,0.330999144511639,0.11876223800435654
3.829685687,-0.624374044288383,0.7428769857788351,3.7521984792560126,-3.981187772764645,0.27934973425856585,0.1504138517314249
3.929686175,-0.8672226579811424,1.00172672348497,3.6301329318322946,-3.799036689609819,0.21286410596175276,0.17212666532915896
4.029689886,-1.1818251852586346,1.227890396172847,3.459441266717573,-3.5501576583928283,0.19317913781138293,0.17811469570367663
4.129686627,-1.4735619755639648,1.3518782816535617,3.29122883082422,-3.3175855495652233,0.22792847644807473,0.18369158926595475
4.22968648,-1.8052174439356992,1.3903615092427442,3.1454096144931896,-3.1059745480130663,0.2455667426631134,0.19282743297905397
4.329689246,-2.092504284202888,1.3790441668434827,3.0378024568418134,-2.8718457015074312,0.29287770077877895,0.20359363980133421
4.429701085,-2.3899471840022386,1.2603432218866266,2.99074175723426,-2.6636615869718834,0.3707355929310108,0.22207984593023747
4.529739494,-2.6348669253999115,1.1154589141908036,3.0001077500290236,-2.440558055227531,0.3871808347201929,0.2366310632422349
4.629696566,-2.8627430298980125,0.922008150828252,3.023032461177297,-2.200857692774686,0.44283446627023426,0.23490864601890407
4.7296978460000005,-3.013862973950845,0.6469712300897288,3.0521880875911602,-1.9372842263376182,0.5216843694976676,0.2434480062538301
4.829687428,-3.1013131120342705,0.34959509694392926,3.1171485435554405,-1.7069034202881403,0.5297672070061523,0.22300676956404317
4.929784992,-3.148243988387412,0.060820118846739546,3.1793286675998282,-1.5032253939535838,0.5375690831463529,0.21532564908627658
5.029704339,-3.1216068691157908,-0.2695040355775421,3.2485854447209,-1.2287837905670422,0.5557070114249524,0.20699889636508262
5.129697111,-2.991831772361402,-0.5767297789246758,3.299973946346967,-1.0363657824707173,0.546249075215997,0.2043504302144719
5.229697058,-2.8255837018798213,-0.8595759043643915,3.310655596992045,-0.81310122985148,0.5018868343133659,0.18845698149592027
5.329704794,-2.5702679400519877,-1.098340745973243,3.336307283243861,-0.6248877173199884,0.46661696235550415,0.18773910784125172
5.429685097,-2.3043631336278594,-1.2745634531883572,3.32096769803819,-0.387877238772013,0.43278424881799094,0.19071133397275666
5.529686511,-2.0049638916287154,-1.4005119231158152,3.308310078758881,-0.20236455908675435,0.3817066869443332,0.19373230357568744
5.629708394,-1.7024502104420205,-1.4465696686455087,3.2292439846074616,0.01527756940951032,0.3620239739062767,0.1929908135402412
5.729691526,-1.3568960560849745,-1.42391806636096,3.189876268688671,0.2552668443629148,0.34405822546921894,0.19963026330558592
5.8296835940000005,-1.0466284558020604,-1.3138663754020408,3.1055326850112213,0.4753868861040771,0.34692873050805206,0.2041202688794873
5.929688905,-0.8059593217837443,-1.172488845244531,3.0567745716556067,0.7134355965924167,0.3922817231460876,0.20350511404029806
6.029692542,-0.5727546712088311,-0.9676195717975197,3.0917950289187606,0.9313262765699989,0.462796543827569,0.19170631259147894
6.129685264,-0.36848672244513353,-0.7137507945288025,3.2218500220510737,1.110860922630644,0.5814097969249092,0.10195790488459217
6.229688638,-0.22541418441222477,-0.43161518461570425,3.4328741342422133,1.1718839061108826,0.5954394445963602,0.012209781785119441
6.32969809,-0.07030771320337785,-0.09121828080203583,3.6636576760731945,1.1449475425268416,0.5405166520142688,-0.07615113630707526
6.429687876,0.07286585142995777,0.26792996513810646,3.738046468388163,1.1016126802419306,0.43987647950582814,-0.11387979772633317
6.529687341,0.2943063694629038,0.5762839179652024,3.7426875656556318,0.9866070233724343,0.328640427371375,-0.15042824252877668
6.629686005,0.4838723406409037,0.8797694978298275,3.6687868935502923,0.7792753905719566,0.26708400590513376,-0.18138565943569374
6.729746337,0.782178316251356,1.0846649956530228,3.545335643035222,0.5736003469316497,0.23118754301065683,-0.19122588495980855
6.829701922,1.0603988074569723,1.2698314444248988,3.393686285043433,0.376658437657228,0.22488461430976503,-0.2058223883097773
6.929686018,1.3952423312527886,1.3828302259831293,3.275941153205738,0.13398947396456948,0.2746667814966854,-0.2180948808636164
7.029688935,1.7092349184265365,1.3814045413193894,3.1751115973381823,-0.07159203375327844,0.34577209480639104,-0.23784726113196197
7.129686494,2.0186215006479236,1.3216577140859378,3.1287964682196723,-0.33180881164091297,0.39428927322543017,-0.2525132567559897
7.229685666,2.30840311320285,1.2034997692130331,3.1422112199881536,-0.5627068398933542,0.4721497856915731,-0.25181441527107923
7.329745938,2.5401384212377756,1.0086712779819873,3.164939286148736,-0.8164359299434041,0.5320838294894544,-0.25221274952885453
7.429777388,2.7490127934916067,0.7717468908595093,3.1818133408506157,-1.0222456098857369,0.527834910667601,-0.24567695716241708
7.529692619,2.87195126366687,0.4746210323430737,3.244727497957899,-1.2671304180566119,0.5205997970327834,-0.23929241273080162
7.629762517,2.9425927889931196,0.16038722569717354,3.2554765775475096,-1.5302127470991145,0.5270329106151878,-0.2303223470480469
7.72976348,2.929036915786666,-0.1685325395917077,3.2354249305044065,-1.7424555431129338,0.4983610756811861,-0.2181238045332175
7.829688629,2.8650812224363804,-0.48970350710410643,3.281562637124398,-1.9352545842371058,0.4592617582614409,-0.21943736114392068
7.929688567,2.729560542732276,-0.7817698417834857,3.293348013707861,-2.1646556956918075,0.43951569107099037,-0.22464615425044443
8.029709311,2.525561120799404,-0.9963350164456548,3.2587622861045498,-2.355685315983834,0.379745183532508,-0.22722296357394672
8.129690563,2.279376544148393,-1.2327467492639872,3.2106044538002845,-2.613194437913269,0.35590179144322864,-0.2374826385287601
8.22969392,1.9842522040200348,-1.3782344454775346,3.1834869724746366,-2.828770851050306,0.3710870540391091,-0.23817608437771723
8.329684726,1.6729387953176478,-1.4594759441287157,3.1575523199582025,-3.054085406104482,0.3569006136681859,-0.24654906734785126
8.42970741,1.3507250618788151,-1.438188528353401,3.1401784955295327,-3.292608048136429,0.3943934098820166,-0.25571947663081646
8.529791301,1.0579261654215117,-1.3646408018512755,3.1151474092969176,-3.523437758299785,0.4653828331482847,-0.25859933739299434
8.629692821999999,0.7876982827636511,-1.2422117923674967,3.1234111930599333,-3.7403145316330457,0.5198056537924829,-0.2597080556089821
8.729686088,0.5370822562412806,-1.018566635222326,3.176615346177045,-4.0336983652596485,0.5695888094833234,-0.2245251793244248
8.829687691,0.34580246280503424,-0.7502589679811161,3.293448483344457,-4.238859544612999,0.6182495562427244,-0.16725588017726412
8.929686002,0.17729496816355161,-0.46880229327543244,3.548753806218574,-4.34441576874201,0.6043053900722707,-0.04646697826946787
9.029687406,0.05985300269105452,-0.11102140778245341,3.7285611034259407,-4.2978548834115,0.5203992094022518,0.03699945844642099
9.129687967,-0.09666845781946408,0.22925892185494964,3.8461621040312037,-4.221191032208693,0.4418863199559402,0.0793157287266728
9.229685439,-0.29227041078903215,0.555201331042072,3.833915066754463,-4.109139727684503,0.33005188114129363,0.11445532963737494
9.329785118,-0.5161886146534582,0.8657956277226178,3.7781183009935533,-3.9584593845706717,0.25351438429109846,0.14787609301081395
9.42974345,-0.7924246247739655,1.12066197730941,3.6917274122476087,-3.75202793580718,0.21673286439750175,0.1690807617837832
9.529689233,-1.1028515665026954,1.313817713178052,3.5073287147071706,-3.521247461333455,0.19861950977273218,0.17400765989696165
9.629691041000001,-1.42265902685265,1.4533400851770184,3.340493482391692,-3.2955320202440603,0.2113352234530659,0.18050489877772635
9.729715281,-1.7167964117986916,1.4978985920492773,3.1951924399183556,-3.0871659894202885,0.26352678474862545,0.18099716583735764
9.829687687,-2.035932126898255,1.4440811704712864,3.0767919737282328,-2.821052503938556,0.28993210450178564,0.19604129943691734
9.929687167,-2.3385186472833737,1.3543609496014706,3.030691480104521,-2.6283959340277527,0.35294608806429234,0.21288722078047703
10.029690618,-2.5819385390141725,1.1650906308990394,3.044900248287977,-2.415200556986958,0.41951536710855264,0.2205908248756007
10.12969071,-2.79695772283595,0.9398639519512415,3.0824956100034147,-2.1988006305927272,0.45470659640626804,0.2290636995228988
10.229692145,-2.9481930603177693,0.681045281236925,3.1044675993332596,-1.9544909781682143,0.4796338021276079,0.22586312541080072
10.329702634,-3.0419402697216076,0.394461516969095,3.15679037677643,-1.7019784835278393,0.5179402330903038,0.21353581297344795
10.429699325,-3.094243678092838,0.060945300891591475,3.2315289307666704,-1.5040859804631463,0.5274345223149687,0.21240316591516095
10.529691306,-3.052057690825901,-0.2500241005665215,3.2791810672561565,-1.2732723810016364,0.521063088340481,0.210855131759692
10.629703668,-2.9402292030646864,-0.5489081621063414,3.336212875326399,-1.0494427472544934,0.5084830635569911,0.19845164394473228
10.72970613,-2.7776987027666107,-0.8493910618083794,3.3235083442266142,-0.8331010402847937,0.4893036091130501,0.19444995730749648
10.82968566,-2.535118076462978,-1.0891849142598822,3.3124823977076407,-0.6292062477890635,0.4599035479929804,0.1927370829149132
10.929685501,-2.2617205816479364,-1.2829881691268286,3.321358817345218,-0.41917220251925474,0.41733286914063256,0.1890735757451967
11.029801066,-1.9436263416403283,-1.4126513732415409,3.3076976159742633,-0.21547062460163655,0.37995690400126,0.19695764999056964
11.12969005,-1.6343947842108792,-1.4617125490509404,3.225648736919509,-0.0020760528862436792,0.34458438185223195,0.20283361661600058
11.229687957,-1.3139131804789699,-1.4481521969741047,3.1697155918131865,0.21431066598774548,0.3289751225092884,0.20484701215005952
11.32968543,-0.9995707181447496,-1.349757338008765,3.1077857146358423,0.4500315988936482,0.3508486747293199,0.20960692940630427
11.429687626,-0.7317496421324573,-1.2061701816240578,3.0414962072476825,0.6845096413632374,0.3730134644738425,0.21710267540620307
11.529723517,-0.5088031085751742,-0.9956861731545845,3.0755468911396746,0.9068511001705394,0.4846011055157307,0.1845986754737288
11.629691132,-0.3207170174629013,-0.7472880683107566,3.244853472551377,1.0567908131908696,0.5851348854168573,0.11996596538368366
11.729686641,-0.16764308050680132,-0.5140048224066057,3.4477961113470346,1.1373991355454132,0.6198766705967785,0.013800746370394657
11.829684523000001,0.01693223426274924,-0.11865218777064115,3.686723663780343,1.1245034452098173,0.5539218866980768,-0.04710030004642136
11.929687018,0.19461621324682812,0.20219749715981722,3.7803258355236746,1.0910209399345603,0.42283872192847205,-0.09739566350112451
12.029690691,0.3609217853226813,0.5463104551561023,3.7953674587526613,0.9701660407601523,0.32887215200897385,-0.14476559600191097
12.129687969,0.5984350289084834,0.8296561243079941,3.7113978273587027,0.7806394621637699,0.2466756385382959,-0.181253403218967
12.229686262,0.8597602230689776,1.069529699215703,3.6037874290011924,0.5808532381674434,0.19951529739648946,-0.19077646034738224
12.329690222,1.1726145502599936,1.2410161022467359,3.4122143546301626,0.3536819711695773,0.20304718992511864,-0.20128801569335528
12.429708953,1.4872869037902392,1.3416334829629666,3.27627053471165,0.14252837571107535,0.23678986453102696,-0.21752976663048787
12.529688038,1.8126251840059966,1.3631614709855455,3.130751374949606,-0.09019367094936,0.31553156844065716,-0.2390629172128801
12.629691734,2.146374232332665,1.3031164829112603,3.077772506912842,-0.3510395866405123,0.41490524168553045,-0.24838163385082637
12.729685756,2.3891898839085455,1.1591739923554496,3.1050748836289817,-0.5849624436701333,0.4690457946832219,-0.2530272792687111
12.829685096,2.6212927319086883,0.9868018524622226,3.125681742483281,-0.8045355885492028,0.5069895626286257,-0.24854290362197712
12.929689218,2.8383141993517484,0.7209092778169927,3.18898079389034,-1.0436039935735142,0.5650727255935646,-0.25109924059605393
13.02969217,2.974390321504815,0.41259097541509016,3.218370205268994,-1.3216104107772244,0.5262413852300227,-0.23598764309682535
13.129688172,3.010951146363497,0.11045748131776911,3.235114904743042,-1.5500254507963402,0.5046416676370568,-0.2279599208064146
13.229688926,3.0229010422470988,-0.15892193313590172,3.2596138039796463,-1.7767862259327185,0.5166878290141239,-0.2113278447803657
13.329690259,2.9065869455785336,-0.5236929595086567,3.286502261411007,-2.0121488362136515,0.47125436528615966,-0.20488134536783265
13.429775804,2.763632888414066,-0.8057939934470844,3.256230049533072,-2.2180165011191924,0.42647126857488504,-0.20576020475708165
13.529756935,2.55318135492522,-1.0519030283006738,3.283038854381643,-2.421916991931622,0.42689799589748,-0.21388578946327566
13.629756469,2.2898452843575314,-1.25114388411696,3.292293516599832,-2.632787337981368,0.3611529686978258,-0.21795240984663095
13.729777825,1.990960992680464,-1.3537070732543117,3.2086907494990116,-2.848838561336394,0.34321276455342,-0.23112433006042848
13.829687753,1.6824722027944403,-1.4556934033109632,3.1638924107416893,-3.0768204374673624,0.36171136760015504,-0.23942048973774968
13.929685826,1.346827780508877,-1.4271267211644332,3.1374569105924235,-3.307256112343285,0.4005315269063074,-0.25180631718805263
14.02968942,1.0539252561328425,-1.3560550459795142,3.1164952200768066,-3.55102223280574,0.4551563242772605,-0.2510640167578269
14.129695554,0.7822271373407317,-1.19295496495282,3.1613979727671477,-3.814146866453481,0.5167735684991696,-0.24308096247256158
14.229701279,0.5335002429989473,-0.9886167510210442,3.179874218525567,-4.068601297344718,0.5358561287096001,-0.23242343397289728
14.329685405,0.35152555616893205,-0.7377048788445578,3.2734473175141283,-4.285711449183294,0.5880400087018539,-0.15137951299617844
14.429691758,0.22301115939336938,-0.41706605060847474,3.471312162934924,-4.3762812177818455,0.6092862692704304,-0.028777146161973178
14.529707943,0.09637840769440605,-0.07981407868000402,3.7127043315566026,-4.325767064168408,0.5390163791574261,0.058132682340700376
14.629685495,-0.04379603879959787,0.28500275789491947,3.8131058961740267,-4.2431277764398585,0.402160353218117,0.08907925621827487
14.729686015,-0.24192180649385023,0.6124625184563521,3.845613061449852,-4.098437707239225,0.31274165347635013,0.12226732046120393
14.829754515,-0.47389959816081784,0.9259682608364209,3.7418566063760825,-3.953430984792007,0.2708428256094993,0.15111569215660936
14.929686696000001,-0.7194507322222906,1.1675671283286553,3.656226795660828,-3.7569978476242816,0.22159066082492157,0.16784847300524813
15.029770803,-1.0102524110407922,1.3896773677607848,3.5197159015233175,-3.543842106785562,0.22859396785764372,0.17491425214446202
15.129686703,-1.3412589695187829,1.50928965263905,3.367174887837025,-3.3122366128745138,0.22444225321091718,0.1845961399531054
15.229691956,-1.673164504256022,1.532334039922211,3.229659484079226,-3.0885903686196525,0.24649691326482007,0.206641040291791
15.329738717,-1.9628474743133066,1.5145768189317828,3.129529772093855,-2.882106601437611,0.3055005227240421,0.20846937682024352
15.429689525,-2.2707778449360565,1.430327339665167,3.076626865604782,-2.6724182531443432,0.33997455186540887,0.22262794346631698
15.529696819,-2.5504588665501995,1.2663488436262835,3.0678989240563848,-2.4655727272698003,0.39110177777008315,0.2352767798105464
15.629767676,-2.75196580120612,1.054408493797586,3.107358017376722,-2.2403143882135708,0.44289391378504284,0.24370312229073854
15.729705651,-2.9001492544901972,0.8418197570886867,3.1124671866785527,-2.0218068809754253,0.4850986594622297,0.24137036339270151
15.829695187,-3.0292948485079405,0.505108595135123,3.1791833393516336,-1.749132054706722,0.5041661754719576,0.2319722796759764
15.929704216,-3.076909707829296,0.17831707532694105,3.209083555104605,-1.5319301438715822,0.5310912976884189,0.22005248955305456
16.029687266,-3.048390818515125,-0.12247732376663911,3.2851984146139954,-1.3053813821688889,0.5309793916830499,0.2186819000559602
16.129690386,-2.951551049794947,-0.4331916067478897,3.311167879841326,-1.061485082012988,0.5089379678464169,0.20722520632862929
16.229689713,-2.7765881532486087,-0.7320584841233733,3.3246197108825464,-0.8792680776757741,0.49458287214800645,0.2022329986667229
