time (sec),x position (m),y position (m),forward velocity (m/s),"heading angle (rad), from x-axis, positive is CCW",throttle (unitless; -1 to 1),steering angle (unitless; -1 to 1)
1.032726904,-1.2291504150725316,1.063951535749595,2.9515766061430164,3.17470474590233,0.4100906407462303,0.2511544524311198
1.13268601,-1.515751524156232,1.0439529579712947,2.9183565544719476,3.4233810009071997,0.40344772567436016,0.24034730319272518
1.232650204,-1.7853133539416868,0.9384993485603748,2.958979177762933,3.647659970946772,0.38181123022527946,0.2248316757101262
1.332681341,-2.0472587115353424,0.763464581680397,2.9617102037132677,3.886779804373749,0.3855900766066723,0.22871597044898342
1.4326464840000002,-2.2195535070396373,0.5504073067417673,2.971595803371124,4.092049384632067,0.3359598430610037,0.22560396450799516
1.5326490270000002,-2.385108934855055,0.30589506768522007,2.938060015528894,4.329538934505577,0.30636104977467726,0.22546571982166594
1.6326441200000001,-2.4712173936093875,0.019475119099606874,2.892762472022946,4.58519213122673,0.2976744983802139,0.22717811147880634
1.732645604,-2.486877691430729,-0.3032332684965418,2.832789761835951,4.786025350491804,0.2832056126587513,0.23485755881762865
1.832646659,-2.436301527126904,-0.5547561238952123,2.7985679647293695,5.012826759045555,0.2728953437998135,0.2414512314159856
1.932643948,-2.3348958752932156,-0.799004696521253,2.7548133598750932,5.261442861496689,0.3156804563646283,0.2510679124175278
2.032651911,-2.1377557067474178,-1.0128570062791273,2.7408190632911418,5.50061475129229,0.3028058273715982,0.25501337021089215
2.132713159,-1.933752761190839,-1.1940657090830458,2.710396953898923,5.734348234140108,0.31788696808294625,0.2558044869252255
2.232642752,-1.6969484258425822,-1.291541087071731,2.709311581180147,5.976782986976239,0.3515649849737918,0.25986522730941075
2.332708063,-1.4055615735482327,-1.3425400307455129,2.7313224782278978,6.225215984763461,0.37719233877135316,0.2634618333789207
2.43265257,-1.1386594599905415,-1.3364687535340867,2.7744788098137123,6.4494453841184045,0.383922883627833,0.254974869093794
2.532690498,-0.8735528263069122,-1.2580967804752894,2.8124142874390623,6.715348856719651,0.4038006087104244,0.2469931154282987
2.632740674,-0.6387128099285384,-1.1070611346840085,2.87612574711931,6.94240793868289,0.41855313861403337,0.23900747934690902
2.73264161,-0.42865123316531223,-0.8862167009525052,2.9367661206819853,7.181443425583886,0.3920319220079134,0.23068404598759795
2.832639878,-0.27222969603602537,-0.6494505234615363,2.9405326756727925,7.397353782104801,0.409580624886252,0.18066580865076837
2.932702009,-0.14299206504217304,-0.39887559592477767,3.047679545464442,7.505111338105478,0.43138860861020234,0.07223244403951098
3.032689478,-0.01856556041983895,-0.08013575657265867,3.1691074905406373,7.5011557156142405,0.39960112126681274,-0.03877324220010257
3.132715927,0.11622565477659098,0.18693520804791686,3.178598246255126,7.384260864707683,0.36686000023828086,-0.10923405754204185
3.232645481,0.277509937427149,0.4827031755688668,3.1792364635060255,7.2056007605592844,0.3501396740923364,-0.14658995436613068
3.332690826,0.4972834282684673,0.7085499590599852,3.1198709557252013,6.991198010957384,0.3351504592854548,-0.16086325664697615
3.432643783,0.7336126779319525,0.8944201481676992,3.0981668627016354,6.772346506885692,0.3454008328640319,-0.1591573320216188
3.532691543,1.0184656997571677,1.0055838719552017,3.0307544141854583,6.568000823568644,0.35536249983127444,-0.1578196077299535
3.632698848,1.3150948801838835,1.0887886905479722,2.984839430384353,6.339912408338716,0.3471042565829015,-0.16402395371917386
3.732725756,1.6080240188367287,1.062038417325877,2.92314739014558,6.147213028467157,0.33734028488136564,-0.16681832502566296
3.832685547,1.8793997945338958,1.007885788934676,2.8956069963102338,5.954218013958565,0.3416035613310303,-0.17211429989349172
3.9326459060000003,2.134755577296689,0.9053843822281903,2.84849083666054,5.735705908557968,0.3321145181060846,-0.181536080820626
4.032670511,2.3595974852563253,0.7184801568404224,2.812926155597207,5.5026089008780925,0.3329326073412056,-0.18418522148845562
4.132644151,2.5347173420080975,0.4897859290816184,2.7453151982112938,5.274671820451997,0.34467749523432967,-0.1839596960517272
4.232682848,2.6556530337356477,0.23149152750167298,2.745246216301282,5.041932938837404,0.34418018685049284,-0.19576679456313145
4.332643569,2.7203562858172443,-0.030358203482460645,2.7440906730921455,4.809678294541497,0.3491832256364667,-0.19586134215396844
4.432647105,2.7023262131644032,-0.3097219307950779,2.698113344372305,4.5851833650063005,0.35805043431574485,-0.2012202254782071
4.532641231,2.6279590660208956,-0.5595229628409218,2.7101681850568173,4.338267243917705,0.3678893248756348,-0.20574206735213107
4.632720956,2.512750988456965,-0.7993702424672812,2.6819095875540615,4.087647583675127,0.36805119942442854,-0.20223196377866365
4.732720502,2.330776126464007,-0.9922759733326046,2.6963655606744945,3.857603274212153,0.38855490765662865,-0.20268440323079576
4.832751274,2.122031514917164,-1.1547732502098613,2.744927397786997,3.623417406532343,0.3988681012563493,-0.20032926886294272
4.932737135,1.8338618526689976,-1.2739740908312347,2.7643187532873883,3.4065510709905484,0.3916701816060898,-0.19831274674736452
5.032752368,1.5576155643004244,-1.2966858345942263,2.7638875856320446,3.1566269330828947,0.3943295721125309,-0.1968272077722452
5.132713091,1.2860032478040766,-1.262317663861738,2.7886170507561765,2.9404989837304485,0.4107848048331642,-0.19287043925098593
5.232715874,1.020963581131161,-1.1821750307621757,2.7908499202630166,2.70000362293625,0.3895158439604721,-0.18745731135876906
5.332642572,0.7804681810170555,-1.0360554026011863,2.800163002081268,2.466941318163134,0.3846831170040378,-0.18300687897834395
5.432640134,0.5768952920011146,-0.8424958799455133,2.7960582921894024,2.2327495237986126,0.4025024479082694,-0.1882962568550039
5.5326479729999996,0.4393012167408444,-0.5908015229271945,2.7881385312486753,2.040037825373083,0.3931284372791328,-0.18003771458798196
5.632647573,0.3367117710878089,-0.3486375734783832,2.85621923961897,1.8403635451844007,0.4070312889200368,-0.10396021089181831
5.732648575,0.27191897040491453,-0.06869902640710901,3.0193070635285846,1.7765185837329684,0.4663111716483962,0.03504814668161622
5.832677929,0.18962027394020797,0.2542060381480618,3.129577644671624,1.825126891956851,0.380606064991802,0.12524680118904635
5.932649452,0.09192103879607341,0.5253783185521069,3.1559954649430955,1.9452407595788062,0.3286342416864928,0.1830754194739148
6.032646895,-0.043512642817054206,0.810772731226457,3.12742953795953,2.129209836566205,0.3134153483653146,0.2169574896612344
6.132651824,-0.2587886198608279,1.0514520163712535,3.0869709620439454,2.3747353166254173,0.32025894113359293,0.2329041894083912
6.232693518,-0.4863002574557437,1.2267231745469624,3.060503846086584,2.639417336576401,0.3401517712547253,0.2287220337907114
6.332648105,-0.7665306722425708,1.3766636331279547,3.0261671210489998,2.866508679644262,0.36793044155733023,0.2161975619680682
6.432683029,-1.0665134840919197,1.427228968786077,3.0290528285151566,3.0840886777256857,0.40520508084444123,0.2109822044019745
6.532698466,-1.3568664896066185,1.4220697282584105,3.0765954751992894,3.3056362887023445,0.3946063180372265,0.2040334117571908
6.632642177,-1.66196704834004,1.3387346168439802,3.0789674453524025,3.479846563380783,0.30918531973753033,0.22365092449589122
6.7327397730000005,-1.9511942622085312,1.2009626897192478,2.9894212321585902,3.7288660451788416,0.2519624156877485,0.2505070853226596
6.83269789,-2.1547001005125903,1.016011508462127,2.9651437123658413,3.976165863739254,0.3473790106673285,0.21568089137301522
6.932709464,-2.357503388775052,0.7811092588706727,2.9556112163948076,4.173251782224349,0.3777088036249224,0.19783890027356393
7.032643715,-2.491821389540617,0.5022966128926225,3.005578703855427,4.375630997368761,0.3583734080182062,0.20608342066751706
7.132734227,-2.549054202909396,0.23112415106760856,2.9909943391799687,4.576683283501683,0.30785991055230155,0.21655556566674403
7.232719138,-2.5490679108563667,-0.07321966376186129,2.9629312243086052,4.79752793690088,0.27701093355432194,0.22689692598944924
7.332724087,-2.5093788311744123,-0.3595893337737553,2.903373363950955,5.033195986057843,0.2760397914819423,0.23401753178281903
7.43263886,-2.386816575420342,-0.6263301223395003,2.810779045162457,5.293150844010263,0.2798426200656843,0.23840798789405085
7.5326940570000005,-2.225220755080334,-0.8278038286533668,2.7741804046239986,5.52974610091486,0.29715850275915534,0.2362817511644858
7.632744958,-1.9986706584424943,-0.998291815667009,2.7551437089652064,5.757927589816884,0.3228494434096024,0.25358766182496273
7.732743631,-1.7377209269635876,-1.1055080547519063,2.7389817007325257,5.997380280812582,0.3569147172657279,0.2484329791490002
7.83266952,-1.4668240563202057,-1.1362525025898103,2.777536910187717,6.23437121482566,0.36723248360414246,0.24635438021033348
7.932667498,-1.2141707153738626,-1.1289952797350757,2.820073745997994,6.456203747703391,0.3783040651538646,0.2408060275420982
8.032731868,-0.9211828406082293,-1.051621116637528,2.84286623906731,6.718846659197206,0.3947152128682921,0.23891685073480878
8.132691403,-0.6817728742135585,-0.9008803786635563,2.876293506095017,6.921845826273756,0.3817088513147757,0.23622597289535985
8.23269321,-0.4719614370498485,-0.7122379597417234,2.904159586656513,7.160413293595751,0.36042797692754125,0.23288210223155423
8.33272112,-0.29792008820770627,-0.4831851517765787,2.92477244223948,7.39900764583104,0.37171387617051527,0.20750248775768926
8.432696333,-0.19863353628469335,-0.1894761796284167,2.9611942081352227,7.517904784339901,0.4079344964857188,0.06357698887783836
8.53270001,-0.11884961478716191,0.09903476170068536,3.0599020120688176,7.505173109424718,0.4071251735996983,-0.05679111365702503
8.632649031,0.018073569980321683,0.36085132378741513,3.118146147657051,7.374244142812837,0.3752589437662809,-0.1210592078609625
8.732697517,0.19827955823387255,0.6248955880256801,3.1128400997681376,7.1776781992897645,0.3694838395087605,-0.15157775697646783
8.832641384,0.42921061862883847,0.8701013179941699,3.0661390862555247,6.963600946059861,0.352440835643524,-0.15821810541327766
8.932642613,0.6659559515694813,1.0367416007390502,3.038851363341127,6.748142870277196,0.37266636901292177,-0.15336551832272347
9.03264367,0.9515864332218453,1.1409805147141938,3.0068353044201848,6.522346670824884,0.37599201674835153,-0.15977655901811605
9.132643243,1.241538984232532,1.2118940901227653,2.974343730200028,6.33543283611309,0.3666771833241009,-0.1590264049010489
9.232734601,1.5294958855864802,1.1783359332392846,2.982080144944465,6.135085716940038,0.3643126526375068,-0.15232040825713208
9.332654013,1.8238774092575791,1.1224222218212891,2.928092184758911,5.902523134115306,0.36876809817007594,-0.1660238145409507
9.43265161,2.080281909890375,0.9663352975868927,2.8858420902150583,5.707211542043457,0.3449717634185018,-0.16629372716004445
9.532645374,2.313063268930972,0.8002264349344139,2.8660344110456255,5.469652489826563,0.3494868259106621,-0.17108178595398169
9.632711794,2.464267206776479,0.5676208675531487,2.8031014399086565,5.251524740206421,0.34158587514874056,-0.1844467705960775
9.732718273,2.5707576068899,0.3213853629792958,2.7467405436990986,5.024553111477479,0.33917705736703946,-0.19175704939242078
9.832685377,2.640672883208788,0.04834408751609636,2.7511458375494535,4.793338454503781,0.35981267621568613,-0.18082101165233777
9.93269991,2.6391583722651233,-0.21243661293844354,2.7310504993548683,4.559139639378303,0.36160123320622833,-0.1918433407869205
10.032749421,2.547615190620971,-0.47508185746305515,2.7174147607567,4.319812346911603,0.36240869603179826,-0.19280938267753844
10.132721886,2.4240591123862543,-0.6961168489097248,2.699882983320603,4.102432411949022,0.3698755862617357,-0.19707275025419616
10.23270059,2.2336290849799854,-0.9189754807811622,2.717799001398146,3.856652077485897,0.3923190783334725,-0.1977291774024707
10.332656188,2.0093087045883253,-1.0607659969009122,2.739494560216486,3.616594839300742,0.37919492012793693,-0.18904533149168648
10.432694987,1.775769060615084,-1.1878049772795944,2.7614684058626846,3.3819853619961417,0.39415315493506675,-0.19029915815967638
10.532709285,1.4829272408830079,-1.1954280752192579,2.744964811765188,3.136705883081264,0.39414939571899854,-0.19245258915547578
10.632732049,1.2148879253229392,-1.1832695397601396,2.7716867297734584,2.9169909218243006,0.3812045678574832,-0.18135648648768257
10.732647175,0.9515533333435588,-1.1130627793016978,2.7716440665222932,2.713509386808351,0.380668534440046,-0.18930907328377958
10.832697011,0.7095460372147395,-0.961522062668455,2.7589846549970116,2.4924521763588707,0.38574356530296144,-0.19259322759145797
10.93270276,0.5322059866746554,-0.7782482268649806,2.7417945266008217,2.2572725304804995,0.3765916061716515,-0.18820202446863887
11.032710927,0.3499644159640967,-0.5445593915916094,2.7119596479267405,2.0230389103267075,0.402077631115422,-0.1748442543600194
11.132685093,0.2742583265605,-0.2676435863414161,2.85529445895099,1.8372662583196846,0.4351500570476193,-0.09982512903955867
11.232698567,0.19104513055101768,-0.0026026087957518223,2.998417097105465,1.786333295395542,0.4126445751767242,0.020166718259974674
11.332652744,0.11877357241548557,0.3033896283346752,3.094746982980715,1.8100898195398945,0.37608949524416085,0.1188427481664812
11.432717307,0.006843594843589125,0.604930902467557,3.1286517753067042,1.9465888946207177,0.34089498576994454,0.1843927156488449
11.532649226,-0.11376145288511065,0.8797745488410026,3.151988636846675,2.1107862894078533,0.30458101819707595,0.22279483649981963
11.632646682,-0.3337857446792407,1.1097633463893897,3.071545145162116,2.366288395893215,0.3020514652407387,0.23717004775711584
11.732698047,-0.5551546046106939,1.3139831034515297,3.030125556864729,2.5972336744520703,0.34744234164154364,0.23834894010772908
11.832697892,-0.8257143168426662,1.4425249417538069,2.9756448716186865,2.8614272973535115,0.36685870863872805,0.22456450446094162
11.932689166,-1.1132929926147452,1.496098286391651,3.0152897059100368,3.077785352201948,0.39573565900627966,0.2143241035863909
12.032704746,-1.4364578721875014,1.4888555160550405,3.0318599030832223,3.2992418456264274,0.41586773182206727,0.20582064316232354
12.132688673,-1.7040029419961225,1.4156469441608217,3.0889043975824033,3.515686730902528,0.39899802950354574,0.20722825844917991
12.232705458,-1.9944565634278582,1.278310536228537,3.1401596952576045,3.694863535157185,0.3733840936519121,0.2072020717573184
12.332626071,-2.239241805739313,1.093123602956772,3.1042546166087917,3.9279955402865134,0.34589244011375914,0.21919364570512884
12.43270214,-2.451509720793511,0.8346264132634809,3.107834413237557,4.147660466788815,0.33157166484384587,0.22146661173163576
12.532672621,-2.576297852633706,0.5734314674975318,3.053516137462575,4.398630088789577,0.30321526355807554,0.21604062957222486
12.632712897,-2.6632478519442104,0.2735091179172732,3.0220528735830965,4.594214063318507,0.29702900041410335,0.2163095957309006
12.732726691,-2.6553436360089533,-0.0383201241827514,2.9840275628619386,4.806763066230699,0.2991697817543442,0.22231229305209899
12.832725734,-2.602151689544291,-0.3213068065940167,2.921769424645624,5.063600184631513,0.278213680485667,0.2290027909543693
12.932640371,-2.480337570208687,-0.5715033820626707,2.862815956265504,5.269047606570609,0.27679003888284004,0.2371954756163506
13.032701267,-2.31985944272365,-0.8044916116947193,2.8213845972899736,5.509354675565056,0.30233243085392403,0.24258433648643327
13.132735948,-2.083110254298587,-0.9778410966138329,2.7900977241848195,5.753718273183022,0.3128569482237162,0.24560915979590192
13.232736595,-1.8352445579829413,-1.088605255110649,2.8165851170075253,5.972972955776279,0.33572402421743996,0.24939548631209793
13.332640944,-1.5534127647200082,-1.1579855120917164,2.7852307571141455,6.209591484967892,0.3767042787051986,0.25301390865711293
13.432726482,-1.261317494977026,-1.1305018243562903,2.8297241526143955,6.445314175924945,0.38478291515535,0.2481089495300056
13.532710006,-0.998915773850936,-1.0654372835183223,2.8462949530497648,6.682135945792929,0.38739462796433966,0.24554243231941067
13.632709111,-0.7510917739301316,-0.9389218353557457,2.894128010393711,6.912569606952689,0.37929114852679136,0.23634704410162813
13.732668964,-0.5427964820405851,-0.7205529594110921,2.884583570143274,7.137254232070656,0.37745407031993766,0.23707789701097448
13.832699191,-0.3881381230015582,-0.5004316338578545,2.9507296394513634,7.353812595157786,0.39350912314126013,0.1732052584927405
13.932701305,-0.25258507481611353,-0.2316956945100026,3.0322349037264247,7.459646550826166,0.40090289120092487,0.08437515033831045
14.03273747,-0.1533404230381421,0.05699612974389116,3.141877698129675,7.463788405234606,0.4048623639483136,-0.03799600613853507
14.132726557,0.004804048277683244,0.36540759978091986,3.1748954260034044,7.354830564011666,0.3681535320853478,-0.10842356975207641
14.232686806,0.17382321086774274,0.6068606471177295,3.170965942757424,7.179360495403971,0.34866768902809114,-0.1472669918281503
14.332748698,0.3749890763803233,0.8581738872428943,3.1115380976903553,6.985478521415353,0.3552168159354961,-0.1627460372011661
14.432692039,0.6588803262141663,1.0333641019526347,3.0616127340587047,6.747744702466399,0.3494204615628449,-0.16186151050172587
14.532721444,0.9104362817615136,1.153972258151511,3.0576592081669864,6.562637048140569,0.3648159867268483,-0.15862997765284484
14.632723784,1.1981846717873048,1.1928085938054376,3.014048470618702,6.351399031686156,0.3780398490388041,-0.1652477821420814
14.732644931,1.5027915061139554,1.1990809406891356,2.9689298220415905,6.146299347959424,0.3589327834865826,-0.16133786120627733
14.832701123,1.7871258766490914,1.1155437270845194,2.918374228770634,5.9208422059511925,0.35281598370984263,-0.17268363104963036
14.932701525,2.0540827131813897,1.0042398998518558,2.885348295618882,5.714042347179036,0.3530908899146441,-0.17713944504372425
15.032697327,2.2904258106701096,0.8161346686754068,2.8477592857515943,5.504696139988234,0.3404811593720171,-0.1753601525435712
15.132640472,2.4505172201651315,0.5896319758981587,2.8126292388646017,5.279924890919187,0.34209626496543244,-0.1873421049724873
15.23273626,2.575520699578879,0.34099595345047434,2.8045432580662886,5.0567594220996375,0.3492587351037111,-0.19669583985862002
15.332680852,2.6480803255319048,0.07900546808048271,2.733417601522597,4.8278601937852,0.3461957200295453,-0.19415509209174373
15.432728266,2.6251461555996234,-0.1924293544603132,2.7290692696759975,4.609002630842477,0.3614679718133839,-0.20303942292144203
15.532723902,2.567260943149347,-0.46772015343089673,2.7224626806211223,4.348032696894455,0.3691742001626918,-0.2073173924453153
15.632715818,2.437496050607766,-0.7056489949879323,2.6935707118192815,4.111774366421841,0.3708144221088475,-0.20368770747357695
15.732700227,2.2671536836421455,-0.8994934617914119,2.697711837009047,3.890380332833029,0.3919728690480684,-0.19682767500351336
15.832707675,2.0433267497852134,-1.0576875587507466,2.731572678862967,3.655247716840879,0.3943339479165433,-0.20255734554298468
15.932692424,1.7970418598538824,-1.1802976943220354,2.744176169967672,3.449439538057725,0.3844516716730719,-0.2008010508668839
16.032645357,1.527546923624912,-1.206787946990946,2.7786116316514047,3.2015828151090955,0.39377939703717274,-0.1999869358979274
16.132727596,1.243645122799661,-1.1952345301975793,2.776849929730363,2.960486414218412,0.39612716155248184,-0.20098220062127245
16.232647151,0.9760044194198432,-1.1110649024114887,2.7503128406459436,2.7381361628224434,0.375103163643404,-0.1924866402390891
16.332724348,0.7598306075295553,-0.9673489640949056,2.7723554469216136,2.4970661692360303,0.38779091116194514,-0.18930220757179442
16.432739343,0.5513604906483643,-0.7959419801505973,2.742491948169051,2.274757365281165,0.3830570913441824,-0.19868660565939708
