time (sec),x position (m),y position (m),forward velocity (m/s),"heading angle (rad), from x-axis, positive is CCW",throttle (unitless; -1 to 1),steering angle (unitless; -1 to 1)
1.036481951,-0.30415061091559265,0.008110142048324245,3.556919884068443,1.2342596928212726,0.5137598795497823,-0.05648563188611596
1.1364855600000001,-0.18815070176696522,0.35957230777367,3.664479160215717,1.1817419160930682,0.4632769299795736,-0.11125558113072384
1.236480828,-0.050242270647608604,0.6958921762572097,3.7138339997501637,1.0838255494452278,0.35838328592183133,-0.1581332807086021
1.336488433,0.17131130392698843,1.0017176912202308,3.6397829641292785,0.8969498754620437,0.2966214784798845,-0.1885270019736991
1.436480103,0.4026326154455516,1.2552159939213683,3.550795973455446,0.6865375990106715,0.27506544158177654,-0.20197577696284902
1.536492798,0.6734456887871649,1.4672963749778776,3.4307889433816445,0.49410453878078153,0.26413937498297463,-0.20902844341328328
1.636496277,0.9761269403507367,1.5915419798558728,3.293107302027747,0.26092544187174177,0.29387203471454204,-0.23211889257670754
1.736488267,1.3073543551578013,1.6475853575491382,3.197460800247849,0.022249089118074637,0.3645585704636403,-0.23542965783201156
1.8364788810000001,1.6442651772963386,1.633127954495286,3.1951997099671847,-0.19470202064626393,0.4027550065078786,-0.24199201269630238
1.936479806,1.9214749843237426,1.5265302263689569,3.2105163199833164,-0.4263936988071305,0.44702098004564306,-0.24452729058329667
2.036480046,2.199367293296255,1.3781141616247596,3.2108909620941204,-0.6547188021013521,0.5184438894877477,-0.24983148157833496
2.136488681,2.443361764703709,1.1480213377837092,3.236307804526791,-0.8840131091774255,0.494844977665369,-0.2440183254540922
2.236477356,2.603391697094037,0.9063039217907711,3.2979561819610685,-1.1141556364366898,0.49210981623885064,-0.2467092380142126
2.336578818,2.7451315608292934,0.5888203488968636,3.285279210805388,-1.3230975067419641,0.49878901211008875,-0.24109496487344012
2.436477728,2.7951501371378025,0.2578445982877192,3.289377834047531,-1.57481467912801,0.4505552833864821,-0.24477504992788493
2.536478928,2.7990387824652436,-0.07467461328221325,3.2637483208811617,-1.7928191771234538,0.4152174666075764,-0.23060166416368327
2.636481653,2.686130266607867,-0.37518688796586896,3.271242534024526,-1.9974477759832583,0.4217035445499447,-0.229301614493736
2.736495051,2.55437763799573,-0.6314507409354794,3.2302690849058426,-2.183647625238459,0.37040197014718435,-0.2339041365587977
2.83648098,2.3185074207426464,-0.8992214326706447,3.189200872678901,-2.4159116616042193,0.34085026376109945,-0.2374563158206043
2.9365608,2.057858887543753,-1.0652257381188641,3.1526620821546545,-2.644300879074495,0.33565660472076114,-0.2407813857605045
3.036500173,1.7693731447326577,-1.1980508745786307,3.0929355027499157,-2.8772546204299316,0.3343396747602059,-0.2536120885567341
3.136479907,1.491474188265112,-1.267436632796586,3.053057275932234,-3.094485658525529,0.3508067176865187,-0.2616584801492191
3.236494027,1.1688144216922047,-1.2221823510107441,3.0018060597426026,-3.37691145649332,0.4038297188840204,-0.25996933383278664
3.336483636,0.8964800982653117,-1.12233485294291,3.0356781689002084,-3.6124340562306387,0.4646127133253252,-0.265164728088682
3.436476064,0.6236381373637427,-0.9764940511260217,3.0612329628316948,-3.870769473373421,0.496093712461898,-0.25199494356876206
3.53648232,0.417253284330088,-0.7363204144574885,3.092404116237729,-4.129643968882699,0.543754044737146,-0.22538614259262163
3.636477249,0.26601695102946304,-0.4786685120562356,3.253769067446935,-4.307698684337388,0.5941504301704819,-0.11115699981748556
3.736492568,0.12228890805790578,-0.17218051639972012,3.505119876091522,-4.346329939759892,0.5599752243876167,-0.0018064651879922868
3.836482803,-0.013313735467138214,0.1738060050785798,3.6665556992443458,-4.265388579674298,0.4708198167694096,0.06463943673215669
3.9365383510000003,-0.19914348232852713,0.47785174371619354,3.7274995589743942,-4.167712914162155,0.3805254433978018,0.10205145049127086
4.036579073,-0.35678698534724007,0.787813193993123,3.7351727980383505,-4.037766848614187,0.302940787087845,0.1312095692314647
4.136497519,-0.6483735209630668,1.087361923093474,3.6718625425418003,-3.8656837358603213,0.2584372017101507,0.1539175132695882
4.236480263,-0.922617141922773,1.2971847874586706,3.532441371499197,-3.636841362217126,0.23239956603158257,0.17270832239320127
4.3364809,-1.2370225747576715,1.4547805299032133,3.413060438730995,-3.422767810304709,0.2307110897275411,0.17833169315277128
4.436479383,-1.571167937446708,1.538123478061524,3.274485332425501,-3.201818225068875,0.25762403854832255,0.18748376451738763
4.536479038,-1.8750434759513013,1.5579210067002727,3.197757351777412,-2.973956150917929,0.29054925516783714,0.19678795573145602
4.636559268,-2.176091184141775,1.4779574336249932,3.0712752421095466,-2.7829160428497324,0.307229441594617,0.2067936147769647
4.736478881,-2.456102179555508,1.340841181187065,3.07709231425585,-2.5724293808718186,0.352339486124124,0.21939726420102126
4.836479936,-2.7048158071746506,1.1864351169901353,3.0844071659864265,-2.3411827017180062,0.3999542988907499,0.23822569547146635
4.936479177,-2.9102137731090667,0.9393571366346593,3.0690756204829537,-2.1041760211062677,0.41690599633314734,0.23376485746044945
5.036483877,-3.0372909508295214,0.6703652879691988,3.0906709068561797,-1.8777322924633415,0.4650056117144654,0.23187524555871564
5.136498311,-3.0886687935582837,0.3707933640361805,3.0918413252915835,-1.6221326983322129,0.4927473583415067,0.22580390857143753
5.236524599,-3.1183784908979395,0.04985353571729152,3.112296506992844,-1.4065960239101498,0.5045179628820473,0.2190279538594115
5.336487741,-3.0234715040203652,-0.25809129105907946,3.1782239307338256,-1.1815630501409522,0.5058528173310909,0.21033370220140063
5.436537467,-2.9040839921858272,-0.5442190727094528,3.2235789141899325,-0.953766596842109,0.5327554914994973,0.20301657909636975
5.536481303,-2.7067364473817315,-0.8031383261492575,3.253545757544276,-0.7321387349082504,0.4662183752922148,0.19576553270025418
5.636479571,-2.4543365519433977,-0.9905225744565223,3.262324078770633,-0.521079281830553,0.42904313017355156,0.193696292196744
5.736534795,-2.164767913946317,-1.1453373896823087,3.218414867021187,-0.3285366524723814,0.40924936971695763,0.20164998839342932
5.836479573,-1.8347227236868784,-1.2436969636918467,3.228739359334657,-0.11400596925081687,0.37285456294509595,0.206109684455194
5.936503377,-1.547559220555948,-1.263494079880206,3.137285003698777,0.14451920667794557,0.34247399498056263,0.20931391105035232
6.036477791,-1.2510529582839862,-1.2098942109130868,3.093013700293739,0.37226545489709023,0.34639451611274313,0.21941812058822405
6.136488968,-0.93973550930101,-1.0782698964463981,3.023531297151801,0.5600780509497618,0.3636797562997273,0.21519298913215068
6.236479498,-0.6889201984736155,-0.9010782704504777,3.019438810767952,0.7840475506192737,0.39945623855406126,0.20565028663878954
6.336582038,-0.5335838239616477,-0.6771930136982486,3.046441319773618,1.014973587724392,0.46945458419161656,0.17921357690103454
6.436570276,-0.34984063075356037,-0.4078575469027095,3.2457465854768546,1.1384611346752251,0.5771436063976907,0.05751716051258986
6.536480165,-0.20536080719853425,-0.09209220371772682,3.4434178651083047,1.1711308869001766,0.5485007743834945,-0.02921599075108749
6.636484682,-0.04866126723465754,0.23938123286715174,3.6164891378004755,1.126395796471312,0.47825324883713194,-0.08502149064142789
6.736562711,0.08505706903411817,0.5543835448487768,3.682563257139801,1.0592830932599788,0.3967716727389893,-0.139174223995632
6.836479741,0.3092876620657364,0.864115360291208,3.618339892467589,0.9005069296970412,0.295171425203612,-0.1792643301946566
6.936481795,0.5471481862892696,1.1212025981394182,3.5462750443572113,0.7015522215164289,0.2654141597259345,-0.19439297169118408
7.036479067,0.8270260057533768,1.3425228536694005,3.4173816558493533,0.4948526655129209,0.25302487747047336,-0.21333524377245153
7.136486689,1.1344840449341673,1.4478185730870732,3.2956765633587186,0.2635856685710295,0.26726156663640616,-0.22101945414785631
7.236481917,1.4503867668499206,1.5135642107917948,3.2279757106365543,0.048472811686363144,0.31720613991937563,-0.2380748547505212
7.336500152,1.7453378432679167,1.5011029886034628,3.1385967200282763,-0.17016494006034938,0.3827579612506922,-0.2486040353679779
7.436480285,2.088092712804476,1.4302451008986912,3.1412423929039828,-0.4524424437272193,0.42458673990018003,-0.2533100987309987
7.5364816359999995,2.338813436605401,1.2563716439582313,3.1462429395168856,-0.6498735965501051,0.46741422505999736,-0.24755011562344328
7.63648384,2.560875516725493,1.0739527202716332,3.2039219340553857,-0.867691453383615,0.49866627938315566,-0.24984877705908384
7.736478901,2.7805885626740383,0.7807940276374435,3.2223864867367484,-1.1076678284255035,0.4785687068915533,-0.24587891576085144
7.83648002,2.881094344237193,0.4780888091264432,3.261150381928261,-1.324711372132393,0.4655564391396134,-0.24690826011813446
7.936503337,2.92690808615081,0.1696639450476969,3.2754863862002193,-1.5345196264447911,0.4551262655692685,-0.23786106075422014
8.036484262,2.904911821873621,-0.1713583001885733,3.271352071447181,-1.7912940873420693,0.42423057999293307,-0.23291552087318243
8.136491312,2.804443549779684,-0.48948643962446103,3.271215757577264,-1.991976995300113,0.39981945393480384,-0.22624093414990148
8.236595822,2.654850052880086,-0.7666968276695465,3.259950587794152,-2.2100600265060137,0.38712316356505166,-0.24051418656610565
8.336491748,2.427267890427338,-1.0270835942521714,3.194573878796801,-2.451969675881231,0.34578251991843045,-0.24150702953820924
8.436494044,2.166341729886863,-1.1859445696409585,3.188661891268564,-2.645256353634076,0.33431164783003947,-0.24434261594737708
8.536629696,1.9106054220722577,-1.3140677120113697,3.114832435760477,-2.8698542965505522,0.35091111313286943,-0.2548632731971615
8.636599541,1.5815503244869125,-1.3601958120003075,3.0624827376525467,-3.1242254967509635,0.37344116576393477,-0.26178108711359216
8.736577082,1.262128988293273,-1.3449585070148382,3.05325834665475,-3.3570345931264813,0.40942637498628576,-0.25580910657599104
8.836478758,0.9791111902170345,-1.2551971438782796,3.0791433581496155,-3.607168787401668,0.5036531029047138,-0.2658951734454694
8.936479131,0.7063034020213512,-1.0710620295786448,3.094639643259471,-3.8592546451279213,0.49882009720439496,-0.25675560771534706
9.036481695,0.5055277035191272,-0.8590404894594109,3.1767714259163142,-4.1144974605216404,0.5537704357911969,-0.20291722333545278
9.136581835,0.3088754743565447,-0.5797603772011634,3.347907936238145,-4.276805911554314,0.5837955835972315,-0.12279318187845738
9.236477701,0.18209111300571743,-0.2500236694991518,3.5825587956930245,-4.303046411339578,0.581587156006966,-0.005593461942769172
9.336541681,0.034547849129149294,0.0685156785173158,3.7421817479668205,-4.262426654526096,0.46490352918449285,0.049469349297916056
9.436486192,-0.12956406509207347,0.41138767781326746,3.8065152221938274,-4.174173526914994,0.39048813646432207,0.09627936929623339
9.536478436,-0.3447786887757002,0.7286223929574913,3.763675704852923,-4.046205335848156,0.30523671789223067,0.1319576569126356
9.636481626,-0.5945032292526733,1.0091002414878392,3.6926775617178307,-3.8664259459413812,0.23783838045237868,0.15926420596009697
9.736547634,-0.8827514744319551,1.2375458357651201,3.5549855021861263,-3.6444379119106523,0.23208790766011855,0.17410898387928686
9.836531071,-1.19221149505483,1.3805177543788862,3.4026948688666963,-3.4244149778428916,0.22655846481105002,0.17661876182587447
9.936479021,-1.4939733886031585,1.4857893193472569,3.2691133593317967,-3.2218477319914576,0.25179359434168624,0.17954919055487023
10.036482049,-1.8321773219751492,1.4669078687108694,3.1482768288901046,-2.9828511983832677,0.2928257992626094,0.19368317042464295
10.136479573,-2.141395145691635,1.4313810739229915,3.1034187352689693,-2.7763659443494695,0.3146523192483551,0.20087920647194143
10.236481356,-2.4109663080328736,1.2908845363607484,3.056153111561374,-2.571987510741645,0.35189925743935563,0.2113411378914488
10.336477498,-2.650518291756887,1.1070234739705787,3.0049074985347404,-2.331542547206899,0.3960554644094532,0.21877141766152605
10.436493937,-2.8322794141064564,0.8772526268528529,3.0336356091006693,-2.106235997609446,0.432662252770317,0.23931662567030557
10.536482879,-2.9741548593665783,0.5868635329112039,3.040737798083192,-1.8474584430791112,0.43176996004242235,0.22386784786002642
10.636491334,-3.0273990675994282,0.32664561387302804,3.0566938061574986,-1.6438537296740179,0.4847444428541755,0.21146473164335242
10.736530334,-3.0287989617056756,-0.0427938369538292,3.123604307405904,-1.4094341855258283,0.5091646881609899,0.21517375848640863
10.836482686,-2.961673983933104,-0.3335538944067404,3.210570022443839,-1.1713819174255733,0.48988023026995925,0.21054945790387153
10.936480591,-2.817852356026493,-0.6245492186878159,3.2189195806650606,-0.9361951506201412,0.48290613871498483,0.2061679802476726
11.036483469,-2.616543741226216,-0.8603689205060864,3.221159348472343,-0.7362891902852104,0.46748426327912335,0.20220079549511805
11.136571576,-2.389032161005471,-1.0764079978687005,3.2053631548609425,-0.5266293150230735,0.4386454186275838,0.2043679813122588
11.236573663,-2.100093151037301,-1.231618957208656,3.205703333414861,-0.32358864408259486,0.40058509371949425,0.19897840327275124
11.336563581,-1.793996776511111,-1.3049449419848687,3.1773245986847414,-0.0922647495411462,0.3880547324957025,0.2144377340803967
11.436480397,-1.4860155896833944,-1.3323108403713386,3.1250150043935383,0.11512399534151244,0.3521953545618695,0.20921189626378703
11.53648734,-1.1559091481415615,-1.2649944786438843,3.0859407449256566,0.343122967337754,0.34423342491917525,0.2103114966115332
11.636481645,-0.8754379890966085,-1.1468722872875763,3.054035326507423,0.6033059365039056,0.3617312734213417,0.21696762592896884
11.736481924,-0.6404000342405104,-0.9545491794382432,3.0036436030225078,0.7908636543317488,0.394881442743848,0.21958618043704423
11.836492999,-0.44779098751652197,-0.7139495792764409,3.0768627125791728,1.0223693713811806,0.47905783575055105,0.17702669433255364
11.936482534,-0.31246559960911846,-0.4565322163662342,3.242427947481277,1.1553727633124384,0.6052286154509612,0.06333520954091425
12.036482166,-0.14904504817327818,-0.11641593762565618,3.432249001159204,1.1807217489342778,0.5622070822392095,-0.037469566300864024
12.136487064,-0.02790269839601235,0.17370311962704796,3.6065534134599218,1.1791649030092304,0.47653911949127586,-0.09341482478859331
12.236540179,0.13126556500973005,0.5190866395803573,3.6755402802732853,1.094976104374929,0.40062365277230166,-0.1437634955804
12.336486734,0.32315024180543905,0.8272548971996662,3.6361984450925093,0.8909506047658704,0.2991629306532198,-0.18261610609127352
12.436480673,0.5695671814364671,1.0898821539967627,3.538759945597689,0.7112318302716995,0.25615334516256794,-0.19641038303210068
12.536481653,0.8547545113277564,1.2627789238784677,3.4397353202118075,0.50016931533715,0.26171203687216554,-0.21280695322317666
12.636480499,1.1568269869903323,1.4247289391688276,3.296235983697184,0.30883910827883704,0.26166223296972857,-0.22144353625373647
12.736479254,1.4685778203621245,1.4864364872256697,3.1909158853988706,0.03663512519677753,0.3163533192031617,-0.2324671184022634
12.836496747,1.7713590000580277,1.4416152349527975,3.1549415849764038,-0.16768704354140082,0.39071888801061216,-0.2434522657902254
12.936482576,2.114609893715667,1.353212337782163,3.146333265543625,-0.4124293932898343,0.42857964164921164,-0.251801457844754
13.036476616,2.3748266988424027,1.2073704376787107,3.1717158987973266,-0.6311886949834333,0.45562340304758364,-0.2550446607206954
13.136475286,2.6071666920587564,0.9948651802856638,3.2011312587888305,-0.8481575998818298,0.4784211119880423,-0.2543930057458535
13.236519888,2.7786682741605566,0.7144026218844206,3.229309623452048,-1.0846899081730252,0.4791533207917811,-0.2513256541034808
13.336479352,2.899048099661399,0.4256043091402555,3.2178476929231694,-1.3425980798879755,0.4622296834185535,-0.24928327074528442
13.436480742,2.9488904261127735,0.10187374262954389,3.2422784640758935,-1.5426869708422364,0.452373848381199,-0.2413942029206062
13.536569848,2.9180593052114943,-0.222707896580993,3.263003354747233,-1.7786946108785848,0.43272712936245133,-0.2380676736859517
13.636479002,2.8274718232271003,-0.5106186672646628,3.2407803154399164,-1.9821897939683593,0.4028026586220674,-0.24056173607433923
13.736482999,2.700468789629188,-0.7639454355088106,3.195695023364821,-2.205848393950782,0.38261198930724294,-0.23961809011770038
13.836480679,2.4665413847796382,-1.033082368027955,3.1733723490936345,-2.4629168258900407,0.3788036338399905,-0.23973719626241496
13.936483411,2.197117997015166,-1.2071174642764162,3.186535198011755,-2.677197694498988,0.3563361704979433,-0.24276520801157378
14.036484646,1.9026274403990586,-1.3170369678293317,3.12728184553284,-2.889762319742907,0.3567552856112996,-0.24248167863808212
14.136499307,1.6135770555855413,-1.3679906943891562,3.0862746254394477,-3.1164286565759958,0.3916829212401273,-0.2592548123031875
14.236478718,1.2795504296620508,-1.3361053766723756,3.1050326408391298,-3.3434604487253328,0.4117078717900213,-0.25842603907615064
14.336483839,0.996477354794596,-1.252016878117098,3.108682292458395,-3.60241017024492,0.45329769878788145,-0.2582990356089344
14.436503633,0.7230937112923944,-1.081363069558575,3.118368365377111,-3.8506928260588227,0.517247652479266,-0.2600800796840345
14.536500599,0.4975178743921566,-0.8463628449973668,3.1802140664893788,-4.085204455846223,0.5448493006658425,-0.20843343924626206
14.636478863,0.3060365995384467,-0.5884338341046965,3.345527303587059,-4.279607146349188,0.5882442109573146,-0.1556812353428047
14.736550225,0.16516399349014127,-0.2717804324361564,3.543841321475164,-4.317631448129615,0.564616716960216,-0.021605118502364136
14.836486441,0.05462514475683919,0.05994612852952487,3.6997502001873452,-4.264321215461339,0.46896608889213987,0.05851347175425402
14.936491886,-0.14043306588495597,0.400907696175467,3.7631079801835834,-4.166611235616701,0.368643510532049,0.10062799375495146
15.036479578,-0.3293508535935385,0.7177294703580585,3.791483822995604,-4.025558119620583,0.32804561586653147,0.13071965094960442
15.136497666,-0.5880539650513229,1.0024899378118168,3.694742930219695,-3.85193320623136,0.2521476745949646,0.1527676049035638
15.236530318,-0.8617262710854894,1.2282950910822281,3.569513606014684,-3.6270913393823867,0.22616100260010683,0.16898549023349949
15.336497096,-1.1957515114411787,1.3664802420454956,3.4168408525688534,-3.3930749525228374,0.2445842991449312,0.1747951102721573
15.436585491,-1.4848348137966136,1.4504009480915672,3.287980493235622,-3.212894596276487,0.24771218148810492,0.17646433490304092
15.536481167,-1.8293905567056468,1.4626109277559756,3.143292218738107,-2.946480293547691,0.2774626328768338,0.18821663217239937
15.636530049,-2.1199730754091637,1.387706624114706,3.080188468709772,-2.7518204976820435,0.3326845407819395,0.18412356213318257
15.736572319,-2.4005996442064452,1.2447969563441836,3.050225258862982,-2.5252020423425363,0.3603547338356621,0.20095123065076295
15.836489873,-2.6250249743706164,1.0638824541208627,3.0501230506477626,-2.3073419671097986,0.3927916784645248,0.2139371379909121
15.93658433,-2.8067439065836344,0.8268227995263616,3.095197929808677,-2.0887560340263405,0.42856235124981273,0.22237478821458417
16.036486078,-2.976022328711434,0.5364962874298683,3.0995272521178427,-1.8624606000597033,0.4348909351395337,0.22457333123014347
16.136479188,-3.028858169314996,0.21536625740290413,3.1069727901052313,-1.648099458738877,0.4590116865737192,0.22191710324756805
16.23649128,-3.037338515974581,-0.041090685674641844,3.136279796856677,-1.4439939999860727,0.4811011933945168,0.21396265838259326
