time (sec),x position (m),y position (m),forward velocity (m/s),"heading angle (rad), from x-axis, positive is CCW",throttle (unitless; -1 to 1),steering angle (unitless; -1 to 1)
1.029358628,-2.776059650559158,0.09092993682338481,3.2238477372254346,-1.1408128453715118,0.4904395563588667,0.20898851184052533
1.129372217,-2.568571615181334,-0.21256799174864735,3.2584521289153265,-0.8918784098297137,0.4783372270402821,0.21427974366099165
1.229352901,-2.358325024209075,-0.45705680050154296,3.2869960303335484,-0.6395325878156631,0.4357819975146455,0.21345154547360545
1.32936386,-2.074746230112362,-0.6260718285661989,3.238800682173855,-0.38579350242129073,0.4184427356730301,0.21131870428567104
1.429356339,-1.776143492139609,-0.74474470652407,3.199923073124473,-0.15692421225973058,0.4222328107440152,0.2139767297696394
1.529566515,-1.46140017333254,-0.7802405766562549,3.214214811343288,0.06565021303778858,0.41002754736363894,0.20123578408746287
1.629352135,-1.141677975544306,-0.7244858120935055,3.187001990466896,0.30354962386524487,0.38618799214503685,0.1973951496518238
1.729384306,-0.8697855283906983,-0.6045333150582488,3.1828747075390305,0.5412302096310782,0.37124824743363505,0.20226166593836992
1.8293579000000002,-0.5933233182312321,-0.44032425037564005,3.1436191830467033,0.7700906521098938,0.35346173125111763,0.19805892449410628
1.929369832,-0.39098314596991635,-0.2036423689182375,3.13032446202075,0.9812905403584352,0.3863146868579786,0.16101570120569508
2.029502948,-0.24438384895151904,0.02498601293494563,3.166130384378759,1.1330254690027441,0.4254957485453427,0.09630172333988322
2.129418697,-0.09604974396759319,0.3579150301652471,3.325552515059491,1.2147326610636073,0.49138890007117775,-0.025181828360840854
2.229360692,0.0202477289865938,0.6672774778959834,3.445625394261633,1.1724926049871274,0.4518413422543572,-0.10023665362760482
2.329356346,0.18708680992046162,0.9886929197698151,3.523528275851975,1.035905259214027,0.3999972509025386,-0.14731842430644787
2.42936486,0.383088626662785,1.2857369291962755,3.512081303834232,0.8446075982878783,0.38561283730583695,-0.17338562802795318
2.529410109,0.6344035609498437,1.526406722522988,3.5143104548429003,0.6533687778159244,0.35079463643924075,-0.18803072743275082
2.6293503620000003,0.9209741621181512,1.6970153694672552,3.4660251728166953,0.44478096202827233,0.35394511734848266,-0.19367427219733643
2.729436853,1.2605307800334442,1.842971898517488,3.409944539519727,0.19367658978843272,0.38748310286270743,-0.19421791675028732
2.82935396,1.5943053577723925,1.8823791563282388,3.386965251463774,-0.003863841019188148,0.38972560865570366,-0.19574887420686735
2.929445603,1.9260675274694734,1.8409244386852006,3.3911865789185915,-0.19946682876451702,0.40025823170034985,-0.2035954267349726
3.029354597,2.253114340393076,1.754735702934546,3.3590689574637946,-0.41901355437234333,0.4331932894539476,-0.2114959066310017
3.12935317,2.5262487942673637,1.5903479547421393,3.3503860527561504,-0.6358906226703025,0.44716875503246467,-0.2157949173275723
3.229358539,2.786425521962194,1.3751122231068322,3.3881853897416745,-0.8678224978457373,0.4519273307851958,-0.21404557331761304
3.329437015,3.00300045991261,1.0675807343040578,3.384994305024908,-1.1374315157077388,0.4491843376199001,-0.20047749668068776
3.429412272,3.1307630124155303,0.7859830941124486,3.4155196726251615,-1.297183457043099,0.47779484794740135,-0.21574722221573683
3.529349093,3.160723989274607,0.44876349943969174,3.4245083444336757,-1.519099059032697,0.45733614353137664,-0.2126386743830534
3.62935436,3.1616619308777576,0.09559977524387656,3.460637511962881,-1.7565909142337641,0.4607509564125817,-0.20918761874176664
3.7295131,3.09206438621869,-0.2387682046991516,3.4369299008928396,-1.9793131831979385,0.45954033093994373,-0.21163040129895228
3.82937563,2.9505992689816343,-0.556165886015708,3.4707979385714416,-2.1717588215331154,0.43384939812871914,-0.2077805706125583
3.929350754,2.7213310187940416,-0.8190122310649536,3.447542223865545,-2.407150113030645,0.42351130401990594,-0.2063762974663137
4.02936008,2.4717309247358887,-1.0337864085418655,3.4309156531341753,-2.6064075331176375,0.43726469248000116,-0.2051218694928461
4.129361459,2.1642395191033397,-1.1754662709316182,3.466235173085948,-2.8109001691986775,0.4010057002895258,-0.19945056986493026
4.229354031,1.8290507901120523,-1.260690693013029,3.4254796974520354,-3.027941087132002,0.37360059224980136,-0.20090306354025295
4.329382086,1.4889093143535834,-1.2652172027856523,3.3921070594857556,-3.2316426313277513,0.36603930927049144,-0.20966431170915686
4.429354215,1.1678474135672887,-1.2268315456163472,3.324888629317335,-3.467882006478112,0.32757407632312746,-0.21069556362694344
4.529423738,0.8527913962486727,-1.0949988137039406,3.242307289094499,-3.703773046734025,0.32654172908377505,-0.21087074443560277
4.629460323,0.5714314653693022,-0.8950523892668792,3.182442576023451,-3.9430977917824634,0.35223874346191014,-0.21420265164206284
4.729441642,0.37896224416746865,-0.6546455308769037,3.248764591357584,-4.139078687127068,0.44050547559562336,-0.14785029785818346
4.829418191,0.22908984396880938,-0.37251400967693504,3.4084615225346337,-4.231643804752123,0.48567443225753665,-0.07924099849868295
4.929439201,0.04146896092531939,-0.05621938014961598,3.615808129228319,-4.205266886544532,0.509641555411652,0.008996031547126917
5.029359088,-0.12931349796298455,0.2440393643958933,3.7283079711747487,-4.158338094707463,0.39378041002896824,0.05968492202153779
5.129350182,-0.3585227801888275,0.5645623328844547,3.721449766156894,-4.080604199212186,0.31784404390832033,0.093668758301508
5.229412442,-0.580590300044724,0.8212133474825839,3.708118078797505,-3.942786566180141,0.2735064573625336,0.13458136165636717
5.329357003,-0.8463797200534928,1.0991716253996622,3.626789852077414,-3.738828830273094,0.2112835997094682,0.1595693927062675
5.429360492,-1.1848588069720885,1.2914643312789775,3.4706581423449188,-3.4539590512739013,0.20060811693914302,0.15628126400953354
5.529357753,-1.4717768577984418,1.3421977933283549,3.3213571007763174,-3.2570130399766803,0.24146900997883108,0.15734979657769338
5.629421124,-1.8087720498325197,1.3844082328357032,3.2092212329555307,-3.025200538888089,0.27089352705781333,0.16291083722005942
5.729357693,-2.1104217360560527,1.336312984677639,3.1380166634808973,-2.8321320017186276,0.3170938560046826,0.16908996902055148
5.829378459,-2.4064953655234733,1.2060779661605776,3.1273904114066537,-2.6213695515764095,0.37123288950171107,0.19238409964216518
5.9293723830000005,-2.654663075335312,1.0285255356936425,3.1179680331552238,-2.392691865163105,0.3555883076751166,0.1963676682081105
6.029365215,-2.8760090936015326,0.7886536497158507,3.107543244316575,-2.1380990490178995,0.3775724304483853,0.1926124162412037
6.12943161,-3.0371120521073944,0.4925410633659536,3.097426950613031,-1.90993209748666,0.4113838179077478,0.19769910986869685
6.229363787,-3.1006139143948737,0.23176899416392827,3.114132763613609,-1.7103788925621044,0.40607989823904145,0.19121782149935146
6.329363465,-3.1302342817968585,-0.0978050525340457,3.144945978175068,-1.4868751263460556,0.42501961255906967,0.19940748725007904
6.42935879,-3.044940340822226,-0.4140925133595629,3.196879639381761,-1.2370073665874586,0.46075815158248723,0.20455170287236082
6.529353794,-2.9416433101771617,-0.6904785683001138,3.1903079379798833,-1.0127169236258746,0.43195851590581463,0.20363408914447564
6.629366726,-2.744068223224672,-0.9561365664666455,3.1795469848357816,-0.7787432344727164,0.423598912019495,0.21180339174330318
6.729357265,-2.5065627023484973,-1.169130858911032,3.2418797876006717,-0.5506559852325261,0.4944332631201253,0.21079037184884303
6.829363142,-2.213780630538396,-1.334790436595617,3.2634469602257905,-0.31728166534989116,0.462181299219153,0.209311638198404
6.929404708,-1.90298239039398,-1.4117812672505596,3.2933313632511765,-0.10364022583410751,0.4596823464301068,0.20596212322702898
7.029365783,-1.5804293085165093,-1.4034545681105879,3.3153429175012548,0.10739820008330941,0.47448058803878385,0.20541454529678854
7.12940652,-1.2445796058417822,-1.3465434994197312,3.335912945391506,0.33419983245384743,0.4277202054969475,0.1993925041282677
7.229353678,-0.945361313185419,-1.226809822688733,3.321430918496164,0.5766456473204549,0.4053187682776976,0.199930239382549
7.329367447,-0.6696666065030399,-1.025839133406652,3.287774876295848,0.803778848120068,0.4010452922909509,0.18586630898612505
7.429367061,-0.46281683319577627,-0.7736934333798605,3.2800828776228763,0.9969339558868235,0.40865819077459786,0.17418063444954954
7.529358704,-0.31240200948491814,-0.4861533285595215,3.327072629802932,1.205680571898475,0.47384062458063914,0.08623589743007413
7.629367857,-0.17584537178936047,-0.17257827527845945,3.4648828066547996,1.2387990587291635,0.5097071400291213,-0.023634677310828394
7.729373737,-0.03939957035732464,0.18305000680079625,3.604183207875351,1.1999262341731578,0.4957397107947215,-0.10125964797510674
7.82935771,0.1082159090089588,0.5138705897185513,3.66837589905448,1.0689942711650338,0.413797091149022,-0.14474345631674385
7.929380804,0.3020325798929683,0.8097378428865872,3.627327439835749,0.8806269231570686,0.3663000313449383,-0.16693673289788774
8.029357418,0.5377561188641761,1.0635440657897475,3.6064913837684487,0.6839248695632799,0.3729274447690904,-0.17680469173781668
8.129368962,0.8428809261032352,1.2628041334382254,3.5421578643066964,0.47365480993606945,0.34894495184963753,-0.18373239352637383
8.229352379,1.205040259206077,1.414604987565586,3.478402740252276,0.20798783627915673,0.35183927695873246,-0.18563281895555142
8.32936647,1.5029798902498774,1.457633752262521,3.3993391791039618,0.03316667978839155,0.36042098412469337,-0.1858406922688227
8.429374781,1.835935908793423,1.4428864410935418,3.355295309978112,-0.18938391552886086,0.36839581578363106,-0.1988846076666245
8.529364339,2.1569005254727003,1.3709519976454023,3.3254700237013286,-0.38204382100571693,0.37603153683980944,-0.20571780648867022
8.629368901,2.461212391478982,1.2196221217160192,3.29770778335922,-0.6270737709352732,0.40210738862533035,-0.21467843833955713
8.72936753,2.706470396964987,1.0039719209047153,3.3036788588539645,-0.8330883433399492,0.41428386207156026,-0.2102709080448547
8.829359627,2.912837785981784,0.7603895981595897,3.3069949077642584,-1.0637839774182465,0.4213787367545618,-0.21876751425172675
8.929358683,3.0281993027164047,0.44950779830799303,3.3202521822066378,-1.2891304188098307,0.4294624422231828,-0.22202521532798447
9.029359449,3.115768776350233,0.1360731208373155,3.3056753491339617,-1.5209241292872775,0.45783696931467827,-0.22024513691742198
9.129360702,3.107850138490348,-0.2138097448284112,3.318241836465679,-1.71630616422923,0.44594274292763403,-0.21717904886274633
9.229361862,3.03244615984352,-0.5304964468363434,3.316531053799933,-1.9708739249159146,0.44360514522289746,-0.21368074580844337
9.329372532,2.8578253050220326,-0.8271544119937008,3.3404473962563035,-2.180824853251046,0.47348699675374056,-0.21768970613685149
9.429362406,2.6450363517715076,-1.0855148206249374,3.397496649095605,-2.393912594313991,0.4470385710616782,-0.200153453938316
9.529405013,2.3787629140965665,-1.301900297885772,3.4151254958159445,-2.6046466183015275,0.4255687590144366,-0.2108381671051274
9.629375454,2.070972436366733,-1.4299249505889897,3.4033543021562633,-2.834731159051799,0.436968676123184,-0.20906619983873642
9.729360848,1.7583172927913657,-1.5221799258915294,3.362631651739075,-3.0507795088604324,0.39000841126324237,-0.20677898552891474
9.82935263,1.4066841807941375,-1.5057360588728068,3.318182131838448,-3.2977619911996228,0.3751264761822957,-0.20889837566725208
9.929363787,1.092881368868401,-1.4467579404317854,3.299841415610504,-3.506713865022164,0.3736790837679443,-0.20934734294091187
10.029370608,0.8037082586955956,-1.301370745863784,3.2698943096299935,-3.7452084927100415,0.38032476327542536,-0.20965413371783345
10.129365735,0.5548265691626506,-1.1209116116137858,3.241527950368407,-3.931172532968631,0.37803291055987415,-0.20875806847147693
10.229364595,0.3417529328082172,-0.8620826575792522,3.2550432429566376,-4.1532987497489655,0.42574980849345645,-0.18763531093767882
10.329416182,0.1712171517268909,-0.5487900531836805,3.4517425014023484,-4.257004144169408,0.5314855054652271,-0.05880380658476364
10.429362237,0.01773926453857397,-0.2503638350612882,3.633867143586921,-4.250103236201566,0.4917699494452281,0.018658812095003363
10.529353318,-0.1537939346761646,0.07706146163575854,3.7565831108684375,-4.1943562689026495,0.39675866598343246,0.06227540375917109
10.629505582,-0.3507131150784695,0.39332900210059984,3.7747988055783015,-4.0738415678126065,0.32319706525104874,0.10274600834653094
10.729375147,-0.5848806416523485,0.6942009066173843,3.7473797861483096,-3.9177753365803762,0.24053183776116435,0.13326144661792133
10.829358949,-0.881895140332703,0.9345837778158044,3.622277602059626,-3.7170182468308446,0.20300027860955125,0.15018618091460093
10.929367152,-1.2118721539319566,1.1210720030807382,3.472424926180011,-3.462387482949136,0.2086616258624583,0.1552395877299526
11.029358634,-1.5165159380033526,1.215444491676481,3.304059634561282,-3.2404089598499493,0.2191714936482826,0.15675354969629704
11.129362673,-1.8410082091306041,1.2247866727973624,3.1931179230052047,-3.0323192227761373,0.2652305484945009,0.15684259387109742
11.229359062,-2.1424275281569405,1.1824325798767896,3.090719676932866,-2.8153977437387656,0.3250561941326039,0.1670158834439117
11.329352185,-2.4245003076695384,1.0701696696058784,3.0354850113874146,-2.5918444688412547,0.3386390816463015,0.1726560640402694
11.429355333,-2.708764253113762,0.8513010072772987,3.049070232368305,-2.3447605482800116,0.3713350740023596,0.1791963788011456
11.529356405,-2.8712388825047017,0.6417493833537862,3.0817905533129974,-2.1703791492193365,0.3981104669985439,0.1946205716986139
11.629361633,-3.0013800500441095,0.37593420613868056,3.0524364439103073,-1.9403920779428572,0.3976759859694722,0.19708965763135922
11.72935769,-3.0974569704533392,0.04878376072596452,3.0680539983522923,-1.6687979924189016,0.39221866747955186,0.192488792025417
11.829418581,-3.1025089319732655,-0.24249216726348496,3.1100696503493035,-1.429700392438869,0.4121991395898925,0.19879539051053496
11.929361364,-3.0402532256023567,-0.5242398171663151,3.1260249474016826,-1.2140441935464008,0.40150958924465563,0.20046033230089863
12.02943764,-2.9270371742582437,-0.7841277934186834,3.1133591559391736,-0.9981468097823619,0.43250341431454975,0.20544475494697323
12.129396791,-2.741694625471642,-1.0763691162200435,3.153792268824165,-0.7714018430634432,0.4635738331795652,0.20625095892925221
12.229366283,-2.4835490237444717,-1.2560611120151186,3.2285699104906267,-0.5621765666397347,0.48515319730793427,0.21036562540528303
12.329358326,-2.1736540996776026,-1.4113464741529647,3.270892622763221,-0.32683482991468665,0.47386760473198664,0.2129211928941893
12.42941331,-1.8792052786265616,-1.4871502077709982,3.3020683783090825,-0.07477710913628972,0.4572672638530133,0.20616739901184813
12.529361201,-1.5538312462263506,-1.5005199778316864,3.307115554151954,0.12934142483632144,0.4679293915964267,0.2021185439760069
12.629355848,-1.223257514661172,-1.4239628535668738,3.331675069130595,0.36372213384081586,0.43432259643955395,0.19594682618404904
12.729384579,-0.8764867615215745,-1.2768895285586497,3.328062665307988,0.6178171291507762,0.42258915310034295,0.18666804124888925
12.829365745,-0.6577586857089037,-1.0863126564486374,3.310758292980553,0.8175556191556346,0.42166819176888565,0.1851668647911714
12.929364139,-0.4389763978321274,-0.8238174727679687,3.3123445859383756,1.0354043765729144,0.42713406618765987,0.15835220859838722
13.029379794,-0.273858073635966,-0.5407653970076848,3.352786738250982,1.217465932240553,0.47008176567487786,0.08189286204135438
13.129363227,-0.1704680200135073,-0.21542181495478716,3.5016504112656524,1.2562020893939991,0.5112864762714566,-0.02608423817485348
13.229368959,-0.0563332471554152,0.12813022751453848,3.621497390320995,1.2059685906074205,0.4804713870773852,-0.10389011531352169
13.329359268,0.0833321128599247,0.47920049526331787,3.6651168909519902,1.104324772547945,0.40625470439857314,-0.15551203662499524
13.429372878,0.28883744297545233,0.7684885335945193,3.656473916882489,0.8959907501513028,0.36734935085814424,-0.1728722472906115
13.529367647,0.5137210828084792,1.0561992656312489,3.5987636434213988,0.687644001822669,0.3525990026925072,-0.17766630675673062
13.629364641,0.8205776554779874,1.2836093793439076,3.5509045829355452,0.4766517557039993,0.34214060587774886,-0.18343391770361167
13.729359119,1.127401563758702,1.4315355324139794,3.450376514234741,0.271514443133107,0.34459494094226145,-0.20259097994307765
13.829357909,1.4518329403257288,1.4804522228688797,3.3988162327316638,0.0345161253823343,0.36323923951303766,-0.19647189163109494
13.929354789,1.8561775801617422,1.4600672894670637,3.369690084617714,-0.21209917936146427,0.3711564146389434,-0.19948902224862647
14.029403234,2.134167811611672,1.3811199689304623,3.3066445538661147,-0.4353875307489129,0.39333701011763145,-0.20142559420491812
14.129359725,2.4193570117436716,1.2360972985574075,3.291370981241269,-0.6089555364811046,0.4179914442802371,-0.21077060054560107
14.229354202,2.6810603681007947,1.009666601432166,3.3078398787500203,-0.8622435470559646,0.421390581456545,-0.2162518153078674
14.329351525,2.8890124523373997,0.7404148859728885,3.3090692314788788,-1.0711295789281754,0.44298422595824855,-0.21522525257649436
14.429361872,3.0245461747001356,0.47210384338218453,3.320437694987477,-1.2717279847010505,0.45787001952755435,-0.2258362972727172
14.529372396,3.068010475260402,0.13841231380188115,3.3012359408208964,-1.5231715206285845,0.4327957543495524,-0.2235722111789435
14.629360137,3.0677892876976913,-0.17475292436924972,3.3483583532759296,-1.725558513158871,0.4402772022036531,-0.2172789169726472
14.729367183,2.991052205266273,-0.5263671405424089,3.3473456560526587,-1.9500389309965473,0.4505865248310728,-0.20971675936173995
14.829365624,2.8342376173563903,-0.8226672446310903,3.348852850774483,-2.181841686180427,0.4438264405000464,-0.21924655623618514
14.929366049,2.633514859043435,-1.0605593524172527,3.3834586898341876,-2.3878584056278283,0.4316900800683596,-0.20172412834101278
15.029366411,2.3928666486150245,-1.263818987127601,3.3872393620779473,-2.6175857167746694,0.4479909194942776,-0.21259349993098486
15.129358264,2.058924776747708,-1.416675721211638,3.4045514551010383,-2.821021323357113,0.41747585214329475,-0.21569929559472234
15.229366257,1.7606398652060327,-1.521188364899395,3.3576840467959834,-3.052359776137232,0.3848926406342173,-0.21368809332197347
15.329366571,1.4030837783568093,-1.5008513910584411,3.32245751345946,-3.2883091922075374,0.378214511754391,-0.20980832922200165
15.429365335,1.0879613961211467,-1.4597203065896844,3.2768205468361904,-3.522603908692664,0.37989166832609367,-0.2061058460343769
15.529423132,0.8137042371057932,-1.3035067193151904,3.2586657408005477,-3.736703906578744,0.37092557958518035,-0.20783839190317707
15.62936168,0.5466666028731938,-1.0917672065133532,3.225328573630133,-3.952448128494301,0.4006439936462035,-0.20333389303973334
15.729365933,0.34379452315732206,-0.8451318585358206,3.279962215370659,-4.1670184520334725,0.44425040732792065,-0.17676538439199457
15.829343945,0.14816767865391012,-0.5346135564360838,3.460276057184074,-4.293555369278636,0.5080115115609918,-0.06969709071864735
15.929414701,0.0003299495304892996,-0.20142540218147925,3.648152051056534,-4.268886865101391,0.4809499679678741,0.01902232353027333
16.029360418,-0.1735878975966297,0.11427775334736856,3.7411230191782163,-4.189687583989152,0.42245981609635885,0.07411879187842342
16.129363518,-0.33319085046536295,0.4057749089878835,3.752799689418082,-4.089152404724222,0.31694545370701815,0.10560326457669028
16.229354700000002,-0.6123384254748873,0.7226623994724226,3.739066362118551,-3.9170584993911324,0.246624848804824,0.14091856756192706
