time (sec),x position (m),y position (m),forward velocity (m/s),"heading angle (rad), from x-axis, positive is CCW",throttle (unitless; -1 to 1),steering angle (unitless; -1 to 1)
1.039691528,1.5553240250175424,-1.2976379195204821,3.097698835137743,-2.9908750331283365,0.34423095744778825,-0.24712566407386405
1.139668729,1.2386897971274555,-1.299558117791275,3.064481696923444,-3.2356425664772237,0.37142153013470386,-0.2541891613214943
1.239667793,0.9476332919659478,-1.2538547465612975,3.0572047830949423,-3.46202235788458,0.41527070095312235,-0.25727507653926196
1.339671127,0.6562157486827885,-1.1190930997273925,3.1131828785650906,-3.7000664031746973,0.48099210547379095,-0.252640262664561
1.439666571,0.4040818523329307,-0.9198858272591318,3.132703940407789,-3.9711042400009133,0.5210869542755182,-0.24711574098321454
1.5396680520000001,0.21095982097943825,-0.6638363535762266,3.239282675676453,-4.189344930521931,0.5644255665023837,-0.1799563457724693
1.639672761,0.0753414835247603,-0.41142541575394037,3.4346000664458365,-4.305331363595749,0.5681938222901423,-0.08523968426558712
1.7396713890000002,-0.06175526444511731,-0.043757167148660965,3.625586603895665,-4.276710645905321,0.537622229614917,0.011783509016917866
1.839669237,-0.23472287664932115,0.29715064511106426,3.7444744895622737,-4.242232126917865,0.4071601875443278,0.06182175816910899
1.939664038,-0.3934477578141653,0.6058096368969796,3.753379775191818,-4.132507675239087,0.32440106568111826,0.10263251276615865
2.039659491,-0.6430169416108137,0.9071182776757664,3.7363383992206116,-3.988028679767144,0.2588091106844358,0.1377916694096593
2.13971614,-0.850841462674612,1.1167654491190402,3.660166567670828,-3.8272559867333493,0.21196487696098051,0.1601438741269284
2.23967099,-1.1795820031898256,1.3861830284413783,3.4878871035992463,-3.548371565959847,0.20256004352114315,0.17613232173255502
2.339664079,-1.510261310626258,1.5026795154690813,3.3045477572603588,-3.309251484601478,0.211754118511777,0.178613996551062
2.439665913,-1.8441393047751122,1.5718682927703123,3.159222385072964,-3.082339658976642,0.24853970848551396,0.18378140202808702
2.539668333,-2.1039370211504873,1.539866058342757,3.0641797310607215,-2.864251719774742,0.31026449718704374,0.18808530596455886
2.639692805,-2.3870283104497023,1.4590070730781848,3.0043319549878165,-2.6637855217696345,0.3585776083531826,0.19994807711438853
2.7396669080000002,-2.678870019187004,1.2672710999640104,2.988866322510604,-2.435055554537002,0.4049428923396262,0.21468752961868487
2.8396682980000003,-2.8758118322172628,1.0544415510123601,3.0602173701245157,-2.206138804489958,0.4474014391451868,0.220787786559782
2.939671719,-3.059631796595702,0.801023680325663,3.0740347337913767,-1.951830075602518,0.46687039832305116,0.22331138291618197
3.039667651,-3.1534753004633056,0.5021613041121681,3.096430538573651,-1.7256260052933599,0.48427974096216747,0.21658498306868376
3.139683589,-3.177298472294874,0.18642132439724976,3.175532350795111,-1.5039101917377287,0.5246834812646805,0.20288294409521965
3.239672068,-3.133899052527053,-0.1135584165465151,3.2406421921474524,-1.2790111328710771,0.5373574075013527,0.20297492342014634
3.339664484,-3.0367164120413186,-0.42341163453738007,3.2615813932483406,-1.0716183151511813,0.5140080517909988,0.19744042663567288
3.439666051,-2.868383663854822,-0.7049109266430695,3.276441797432478,-0.8619308171627431,0.47878847385835266,0.19191511632252428
3.53966898,-2.632129315967996,-0.944558140987321,3.2914584761356176,-0.6073896820412398,0.4755184754400273,0.18901329042192228
3.639668486,-2.3721809404222713,-1.1198731161320747,3.288753613696474,-0.43808030774364537,0.42649368457020675,0.18407777502745296
3.739665541,-2.0680180463913387,-1.2570709980910806,3.2753416645011724,-0.23581994416124588,0.38676846126541703,0.19017779769997198
3.839758218,-1.75052048045698,-1.3271916393658991,3.2403899962634024,0.00730025917401654,0.36348297890302694,0.1966390911318068
3.939667288,-1.410207461154537,-1.3126834501573117,3.174574430632846,0.22027801708887984,0.34061341163834397,0.20001910740801776
4.039670424,-1.1338060342433094,-1.2161163905983923,3.1082619198716537,0.44263286948472097,0.3244055130797846,0.19939408313368134
4.13967163,-0.8575202376166758,-1.0589785145486954,3.0559085461502287,0.6563188242448398,0.3693342558149262,0.20716833679142907
4.239666,-0.6362328328115435,-0.8661701503741972,3.0661448994304066,0.8860894413559091,0.40750369656837526,0.21017542889008123
4.339668816,-0.45308442585824915,-0.6160349744862,3.1190718727707774,1.087958927595138,0.5184706020715817,0.13008147637192707
4.43966994,-0.29310438390906096,-0.32728662309923,3.333869176742125,1.1659240898576102,0.58607570661016,0.019690001571703888
4.539669713,-0.16284015961985437,0.0007262874517534445,3.540052685068911,1.1504264771089812,0.5681709054542639,-0.062036814316047025
4.639666118,-0.012311052541108682,0.31985823367898897,3.67668012821135,1.1421649151126407,0.4469849065873627,-0.10680002207264717
4.739671793,0.17561444153358893,0.6468373377907232,3.701322204259177,1.0195324771884617,0.3575905291128991,-0.14441782744719123
4.839671584,0.35927372201425795,0.9156972071716677,3.6536724425033853,0.8869614426686655,0.2900617965048829,-0.1855923626797968
4.939714761,0.6364555284856491,1.2161232503580335,3.591882269653795,0.6516250818341109,0.23179370523952586,-0.20578744381488595
5.039669799,0.9334920524479022,1.398145456395469,3.3742498209668788,0.4164734511722607,0.24797580753422324,-0.21446909610759726
5.139673252,1.2326501817911242,1.5019453371958569,3.2602327031606655,0.20426068800630748,0.270574118247544,-0.22564266057717297
5.239665939,1.5438580031533624,1.535807084983534,3.154166711756202,-0.02743638583416282,0.3365964162385923,-0.24479482707905756
5.33969209,1.8727840546544958,1.513484411931079,3.1132440197677815,-0.2652910731815376,0.4119667462880587,-0.2552739253923537
5.439668332,2.1722873163010257,1.4119798527501077,3.114440088848143,-0.5025220835055704,0.4789892530633019,-0.2560555437459775
5.539670742,2.4077396159162543,1.2227918277989624,3.1447451816492555,-0.7221144306194284,0.49704194847054656,-0.2522152771706469
5.639813758,2.625439456549618,0.9838468316493509,3.2039319907289117,-0.9701887346280716,0.5255320401623828,-0.24893409883895354
5.739765019,2.7850829221352726,0.7002759324725134,3.239775343058022,-1.2069070655830911,0.5241421659579377,-0.24216785350048003
5.839690494,2.871579220331195,0.42570274968637734,3.2823708976171884,-1.4099269203201275,0.4820949230607124,-0.2368782835990606
5.939666475,2.8941057234529417,0.07016647064786165,3.2547746445775974,-1.6543335736752227,0.46408081100640186,-0.22341633864113394
6.039672529,2.8400351828619725,-0.24797686361552967,3.269319953999458,-1.8941156946884938,0.4724670980359214,-0.220061193993959
6.139664662,2.69483824358111,-0.5633823044683615,3.2742808590947265,-2.107659179901283,0.42127536325321774,-0.22290118157381475
6.23969055,2.5658530489338123,-0.7796788317288071,3.262013068848327,-2.2768765937418007,0.37945955672029313,-0.22566766189209522
6.339665481,2.2965283723150196,-1.0196388731773687,3.2111077273725424,-2.5372215626193806,0.36721890363637066,-0.23231404561721847
6.439686502,2.010602320455764,-1.1938275873982223,3.183927671119666,-2.7287598582613315,0.3240752686340834,-0.2275622824995428
6.539666935,1.692598884129773,-1.2851500339076,3.1141574782594375,-2.991208566556087,0.33327047356535466,-0.2597434766916401
6.639681496,1.3988420219112523,-1.300818010872745,3.063000928109428,-3.2263678770729856,0.3924527661147654,-0.2559171520555265
6.739663319,1.0852491733120115,-1.2341242083887405,3.040184822791485,-3.458838463551206,0.433060043503486,-0.2565216989316906
6.839673658,0.8146584177928934,-1.1342423422545833,3.065444209836508,-3.7116473298463006,0.4843113414288681,-0.24971879848288572
6.939667963,0.5997824276119841,-0.9506605146092628,3.1074857067793706,-3.9427499995684308,0.5579717714865615,-0.24487649630877317
7.039667791,0.3822850826579231,-0.6878439781612835,3.2121445675198967,-4.172998176292466,0.5922105745573484,-0.17149680439062398
7.139673504,0.23594291582334329,-0.4015165158563465,3.4271552417818913,-4.3061601062308785,0.5762204337921636,-0.08304914715743308
7.239669861,0.0740554711713654,-0.06454348334700284,3.639265184348235,-4.2622701535404195,0.557346259623204,0.02092382558369517
7.339666651,-0.07205628408228894,0.27692115842567716,3.7579007094373655,-4.21342474951711,0.41854688728938233,0.06253962301581914
7.439670124,-0.22053614958743883,0.5612575722925915,3.7803326309149416,-4.1159133245637065,0.32871338778272585,0.10369778028011482
7.539668187,-0.516831862164478,0.8970241121989787,3.7640051356489934,-3.9739106721838975,0.29979111894671534,0.1357244476826609
7.6396684740000005,-0.7906558760753579,1.1783161247590481,3.6569065738223934,-3.7763397690295104,0.2312298923707549,0.15608460361684556
7.739670953,-1.0596249522853378,1.362149611621761,3.535557964272808,-3.551011321579828,0.21096317740682083,0.17334357329280842
7.83967323,-1.4009064527245332,1.49705899221164,3.3589670823320983,-3.323803149979729,0.2331205395821143,0.17797084092188165
7.939668038,-1.7185817427906795,1.5408560761094903,3.231581539573247,-3.1061283630928904,0.2521398458103071,0.18447948772193629
8.039667106,-2.007010619822556,1.5219348530322963,3.119235280684748,-2.8737634797172014,0.2994607354325691,0.1889908598324447
8.139767548,-2.306735293450464,1.4377534613355616,3.054637006720455,-2.6797925427726144,0.3572932326740989,0.19859895399703958
8.239683828,-2.5686626923627918,1.2605659633223953,3.0474028844001793,-2.4659560335619117,0.394822756081327,0.21452083298485086
8.33966739,-2.8041804813421587,1.0700671019230754,3.0882246065791406,-2.225459929273217,0.41916621049077435,0.22285612755610207
8.439667035,-2.9307043748567567,0.8023551194255093,3.1084257166401486,-1.9858405240883181,0.47621683448526736,0.21696675176261973
8.539666904,-3.0645871637501934,0.536217044370258,3.1101165408659472,-1.7562273729968445,0.4900226164904721,0.2195873505808884
8.639663034,-3.084974328746343,0.2274480069494518,3.1515519780545467,-1.5435642100056284,0.5007498053401701,0.21680736698583017
8.73966683,-3.0571596446071014,-0.08863180061734423,3.1867822999997997,-1.2940191955552984,0.5112117701693526,0.20692621274733652
8.839677868,-2.9884479415144245,-0.3877795732601641,3.2736428576525576,-1.098180255560796,0.5084971861573987,0.20285884464266815
8.939663719,-2.8225145725418104,-0.7041056805651077,3.257059282066123,-0.8633350980899093,0.48274057286401273,0.19245215039604846
9.039674875,-2.5787308181493764,-0.9471232790176595,3.2905021598795186,-0.6417206874664901,0.5106750482938601,0.19393196508626065
9.139727027,-2.33204684110723,-1.1333354260693425,3.3072090486006824,-0.45428369438308774,0.4422365934804315,0.19031887694198538
9.2397303,-2.041934811241412,-1.266572684333252,3.2317556091984088,-0.23336986822270486,0.3797757122678573,0.1955094927675593
9.339692425,-1.717192723526685,-1.335707007779127,3.2161874603878235,-0.019780274328903395,0.3960715154195576,0.20067913831625603
9.43967817,-1.3821310992994997,-1.3086037281476322,3.1577387454002346,0.22020506338175977,0.3609376198766399,0.20395883405908904
9.539673597,-1.1098718073341818,-1.2489958714325953,3.075739919593371,0.4383814556809307,0.33994643029261845,0.20456354117617742
9.639682068,-0.8451839127825481,-1.0797202856293024,3.021441869219527,0.6795073031340662,0.36840381065193223,0.21125055636902526
9.739667711,-0.60346189336846,-0.8840247468983747,3.021301710421989,0.9135263763700677,0.41900951665294806,0.21292861473625616
9.839667615,-0.4431186295724493,-0.6277952038377466,3.1275819720193407,1.0860206797573506,0.550955709999362,0.11567454999238504
9.939668216,-0.270955585520989,-0.34408310408470605,3.3482571653611277,1.143665616855547,0.58999752219342,0.02198339302779721
10.039683601,-0.13514302091591993,0.001721456098237685,3.5522933943673345,1.1548606041140506,0.5768120125353543,-0.05631506426437735
10.139677181,0.023701568481489858,0.29995939954644296,3.6980450018029187,1.1016712462946752,0.44154981512363856,-0.1007498306492866
10.239667276,0.2311503839965859,0.6248383185481496,3.7305198176353445,0.9973248390454782,0.34126594184619374,-0.14598292812556848
10.339668065,0.4272942597087431,0.9164944954563139,3.6567289654680035,0.8274951736346947,0.29670571626709313,-0.1830573262338812
10.439688832,0.6541688971594375,1.1471727598659884,3.567571056411593,0.6365458139713569,0.24242015543523057,-0.2007254532671762
10.539711617,0.9874708579035731,1.3564956958857095,3.4076808074465497,0.40472184542687223,0.22961575443415522,-0.21600112921058184
10.639684773,1.275919280971134,1.4693559359963302,3.233496053572035,0.16038362784749247,0.28191513089554243,-0.21092959496513228
10.739682457,1.602501283657104,1.4773367907963844,3.146319793924119,-0.07814886837997893,0.34761936349110206,-0.22245189945331414
10.839668163,1.945530254573787,1.4312167174268564,3.106994347577264,-0.3271814276548991,0.41586495693583875,-0.2335586264730557
10.939738336,2.2001838751095733,1.3088272862205896,3.1057026998898674,-0.5326839675340534,0.5063583980685634,-0.24240954349901125
11.03966878,2.4398744914462953,1.1250325191189674,3.1763040865091146,-0.7449114461756781,0.4967118262786757,-0.2421960976860331
11.139691694,2.644298781939559,0.8730218742257692,3.231531477320612,-0.9932088629800686,0.5057380669237945,-0.2352508198040805
11.239694834,2.8251453543855116,0.5946270309292894,3.2528220232265492,-1.2357361027033942,0.5035852888321957,-0.2336752887623808
11.339672461,2.887473070217281,0.27676164332306863,3.2469948851425694,-1.4945625171755919,0.48005205290553615,-0.22619909635536792
11.439665873,2.913039667340372,-0.04037992802372189,3.2493331004055057,-1.7125818685743641,0.45604321902927697,-0.21523101748013318
11.539718252,2.825007874670071,-0.351592898624717,3.28343438809563,-1.9095411987853181,0.4505527130471027,-0.20497599448969922
11.63968736,2.7063129495608513,-0.6450652630151851,3.272824216422518,-2.1131670021377684,0.41039939827962296,-0.21644820947696009
11.739667094,2.5027775834745176,-0.9295859960440548,3.2393850870419074,-2.3264717912619384,0.36233335417064316,-0.22310547136054926
11.839670163000001,2.2666346317254935,-1.1441790688093956,3.205599410821628,-2.573107002893306,0.3634760801142149,-0.2235170204618857
11.939671213,1.980160831556018,-1.2677395846775004,3.1575578167650553,-2.7776336348723234,0.3372426960841084,-0.23282107458881557
12.039667543,1.6765777203618468,-1.3780170638194162,3.1161530027465143,-3.0025032764460655,0.35184563333258767,-0.25034533127953146
12.139745443,1.3800247763801914,-1.3658625739350998,3.099367370500025,-3.255212699896573,0.3907012010777093,-0.25063653576351114
12.239675363,1.0693603160540597,-1.331761791770428,3.069954485059706,-3.4986945186982754,0.45282934624795246,-0.2545617062595237
12.339674074,0.8055940510634614,-1.1611713950420912,3.080795930371029,-3.7547720369556687,0.48963958401787055,-0.2427059651658345
12.439766369,0.609610707665743,-1.0109545344961484,3.0967370365223887,-3.962813995512616,0.5425365126126056,-0.2243222002492269
12.539676539,0.36993481464501055,-0.7477513510109889,3.1975019467367294,-4.237822463451469,0.6024439213044378,-0.1774232655907278
12.639668417,0.23912070035440153,-0.44386734344581885,3.3958757792352996,-4.338049512023903,0.5887891055062882,-0.06398663648370273
12.739795167,0.08484523342082032,-0.09656686598980711,3.6619233455081135,-4.345456571190605,0.5357877306461725,0.02850174842293262
12.839665478,-0.04991765557423599,0.22298134089545787,3.7486780175682726,-4.268946139986637,0.4310694439975354,0.08137409859600438
12.939666806,-0.2096961516907545,0.5740067204177492,3.7926884233300715,-4.163710181370603,0.33677864282764597,0.11954579955799155
13.039666914,-0.41756592331069536,0.8739135237437489,3.743357805736375,-3.974756303192247,0.2822495639412418,0.148226599028964
13.139706658,-0.6495240247703348,1.114541438744712,3.667033984521788,-3.821830809603819,0.24645833075003948,0.17116311439821497
13.239743577,-0.9652241448767109,1.349995217423904,3.4855198525677626,-3.5650117654222964,0.2174821122892383,0.18207215966212226
13.339670206,-1.3055155258028666,1.5016525428958916,3.3029029966472616,-3.3379127860884115,0.24509745574315908,0.18095338161717556
13.439671313,-1.6095491108638074,1.5493957902741362,3.175426660807091,-3.1186781556003016,0.2751811413885545,0.18970646074892347
13.53966674,-1.906683420325323,1.5227688673926305,3.1187993977352204,-2.9220542365571904,0.30816931027597005,0.2003827679010146
13.639664018,-2.1899006325209864,1.4584247814098004,3.0765970173862836,-2.711647030690564,0.35267588245335973,0.21418490416359404
13.739792281,-2.4588310072189468,1.2887051895627442,3.0695445480556343,-2.510706454507008,0.3823799165427126,0.22426897354809888
13.839666861,-2.706752198665808,1.093746489372659,3.0601308289756415,-2.29562070272889,0.4019934176136347,0.23329198949484026
13.93966711,-2.885520043417316,0.8578552513711146,3.0737541563286306,-2.0576705248876483,0.44543058756451526,0.23568472780177036
14.039670477,-3.014154230072854,0.5707035516088412,3.0919164336458778,-1.7994457109119442,0.4829272567525962,0.23691474044742647
14.139666784,-3.062728329070846,0.2617305490350695,3.122540431561447,-1.5872342347937867,0.49665647935591695,0.23261004000482824
14.239669223,-3.0545757331016135,-0.07408453768204436,3.156585419445243,-1.3469536104589028,0.5182455245012517,0.2202209430551942
14.339669347,-2.987016322970894,-0.3690368524774967,3.226268839866922,-1.0991249164917187,0.5178249780918434,0.2168549007806545
14.439669488,-2.814397958198376,-0.6424690150649688,3.232938807334132,-0.8968219692084176,0.49586968210937454,0.21015003549116454
14.539674192,-2.5874582471542364,-0.8856337571054032,3.2410950475436597,-0.7050599338115318,0.46968484034669145,0.21771468855781867
14.639669526,-2.3685969298289233,-1.078168112927865,3.2542848783580194,-0.529659561321251,0.45219253816803967,0.204424613631609
14.739668328,-2.0725345673022924,-1.2410754698551387,3.2224403515396305,-0.3029090816757014,0.3993240120127718,0.21391599062237293
14.839666922,-1.7431719337184022,-1.3037618750937263,3.209870147425229,-0.07627995197562323,0.3632998980292356,0.2161040406800191
14.939669351,-1.4461382547867005,-1.306130139289598,3.1380426783198727,0.1425809455705565,0.3425914247305094,0.22150598360874377
15.039749367,-1.1259037555303624,-1.2579379196354616,3.0861530044623997,0.3917193258052926,0.3416493212540834,0.22527215155545566
15.13970008,-0.8801805165490592,-1.1218960438959804,3.009314583271365,0.6146620779489533,0.35774884303395205,0.22438673514289542
15.23977708,-0.626803795357569,-0.9369672145468172,2.9854375826285517,0.8174560524993199,0.4293419065546337,0.22142983653478202
15.339793294,-0.43458312443079467,-0.7089245887850555,3.1168543773802577,0.9955566390211331,0.5524262561589982,0.13455166270809218
15.439709834,-0.2601538504956992,-0.4243761069320308,3.322439980550466,1.090785532929869,0.5900687980969124,0.044782396301906946
15.539734287,-0.11847896229817328,-0.11538797298107664,3.5670661301202653,1.117834528559158,0.5467552470837853,-0.03251702855168325
15.639771901,0.050617882306092515,0.21673469973272436,3.7030927684062283,1.0919058052082837,0.4663878552700094,-0.0913348765792876
15.739669142,0.24694576861726567,0.5334443230579734,3.742341370641968,1.0347377109596125,0.3584810468513409,-0.13407536902665432
15.83966786,0.4301824006028509,0.8009982188966627,3.6893856119429924,0.8856086641834707,0.27210065189357857,-0.18616963621779511
15.939678089000001,0.7142122218306366,1.0913097647246106,3.5859491583274785,0.6361027695137756,0.2301024519418489,-0.20977524819643342
16.039687992,0.9874194647163287,1.2752797474797135,3.380934066638797,0.40789400400897435,0.22133118601191487,-0.20933381606006501
16.139687874,1.274352653805896,1.4094017317291843,3.2750094784306554,0.20048761355374276,0.2705602878070791,-0.21760704199986491
16.239669262,1.630267374119137,1.4431423045817475,3.171315041720931,-0.041076748024161475,0.3318778438115778,-0.2339700722348636
