time (sec),x position (m),y position (m),forward velocity (m/s),"heading angle (rad), from x-axis, positive is CCW",throttle (unitless; -1 to 1),steering angle (unitless; -1 to 1)
1.034828973,-2.364007223229733,1.0777491018672878,3.0529368694408014,4.315118971878171,0.39496728812405935,0.20518018229623913
1.134818931,-2.451630130763798,0.7931657434992896,3.0614498775079637,4.560323440639888,0.36815799832026963,0.2027521613347981
1.234908062,-2.5015650622693033,0.4927638133764811,3.0338414427560645,4.784189367487178,0.3431560041537613,0.1969627856190319
1.33480851,-2.4335962224995558,0.19214121455648123,2.9897838709721047,5.014441981335353,0.3154594804568801,0.1893271449529164
1.434806183,-2.308893696966794,-0.0870866779953723,2.9709098146294006,5.24077355613407,0.3190723637963942,0.19250590933732598
1.534826929,-2.1459633846957806,-0.3169432772752648,2.9628225082822115,5.460472679999107,0.31332728223695605,0.1926951245679773
1.634824752,-1.946235739948042,-0.5235472568259922,2.913545712175768,5.710987859903197,0.3040628023448581,0.20268713330874558
1.7348194860000001,-1.6629752487605023,-0.6452858632196559,2.860902245092203,5.93675521454865,0.3120192188028453,0.20123865109845152
1.8348090240000001,-1.3851686354966635,-0.7042671598802462,2.8601839294400024,6.188692965537154,0.3320283205884491,0.20410828104725898
1.934830615,-1.1072171688005723,-0.7151188435882617,2.862751644691529,6.406103317665666,0.32048979831822577,0.19451514409132822
2.034815843,-0.821530934428036,-0.6550784607697939,2.867904689013104,6.6352900922199725,0.3203023383104089,0.19525481929929883
2.134813516,-0.560413796451207,-0.5132059202370185,2.857411381296642,6.871858782335723,0.31933664958935626,0.20672764893276932
2.234811072,-0.33362068363892905,-0.2812085297830245,2.866941614386227,7.121282830837936,0.2944429013029158,0.20822913007755192
2.334809851,-0.15964090067750714,-0.09423176957411612,2.8616436337347477,7.339341156923596,0.317243642287131,0.18124536341683517
2.434839431,-0.044696056346782684,0.17401460232017388,2.8608930338000516,7.542039984662259,0.3381352748584386,0.12474735877233153
2.534808106,0.03186621419843983,0.4611379631501953,2.930498456283566,7.603089299503182,0.3413171930531773,-0.015901639695389318
2.634809478,0.10617286227560907,0.7205436627243292,3.0362799837942744,7.547323693224238,0.3370974469892501,-0.10339879176491389
2.734817948,0.21141205160121437,1.0120040359941456,3.0348970129491826,7.405615226539632,0.3246080679505431,-0.17690815215936043
2.834912929,0.39581325515687715,1.2993385290860604,3.009968577345994,7.174230405109829,0.30876997240587184,-0.2069695489720736
2.934809174,0.5671133139172717,1.492753726427896,2.990891061574518,6.972000820939839,0.33673390129791325,-0.21365430044858605
3.034814377,0.8081765291945388,1.6322065531843193,2.9506795608028407,6.7126083428506975,0.37620746783815173,-0.21650288988415087
3.134808602,1.0843174318335431,1.748788223379204,3.009528294630414,6.489678034724711,0.39500172725959726,-0.2062744088168298
3.234810023,1.4085189749313602,1.7637866983074308,3.0550661511148416,6.260203654766522,0.4011852439114082,-0.19745288253902205
3.334811094,1.6898957887330892,1.7330315030459351,3.0694713451913014,6.054626446112016,0.4191545242487904,-0.19312434276008233
3.434840658,1.995015649050708,1.643081489223853,3.0946607016613883,5.847193095771137,0.3862890187805092,-0.1915032405810072
3.534862383,2.2736779932204545,1.4822962855752646,3.1305354953992044,5.622561782092582,0.35629503829251824,-0.1850837102172618
3.634807994,2.483642250567031,1.27614215190983,3.1375413166595907,5.3972453236448805,0.35215631669516256,-0.1888601395380592
3.734810488,2.6546825859751055,1.0079478531587165,3.1130382035892987,5.179702637334751,0.3428845765370216,-0.19559911093435928
3.834823305,2.7800744627898557,0.7189690607832359,3.093046019969459,4.954955913154984,0.3315376263436778,-0.19408691716393325
3.934820929,2.832169150175054,0.4443252333946332,3.0854507422481645,4.744385027927598,0.3276287600947857,-0.20219629032071237
4.034893938,2.8121302752644484,0.06355656192936135,3.0470324980213896,4.521201998764221,0.3381090866226311,-0.20449303693793602
4.134822102,2.7310031088471316,-0.17225729998544875,3.035188351701765,4.303903663533507,0.3247234596266373,-0.20595306716851133
4.234808055,2.5824381367620264,-0.450495530331242,3.0037114707296464,4.0702953172524925,0.3743735376055328,-0.20817392189553438
4.334834559,2.389533559801162,-0.6771891785745962,3.000367897655434,3.8316392062548834,0.3533766686120402,-0.20893848212454535
4.434812613,2.118295152781952,-0.8383660820945549,3.0120641397882504,3.5788063787725743,0.33618370227930566,-0.20276733705896366
4.534813264,1.8676964964027412,-0.9619003258436695,3.01392794757441,3.389752100432079,0.32892313736106593,-0.205246131601205
4.634817939,1.5620026798766617,-0.999504355382446,2.9769796309653294,3.145901891262181,0.35247086174277875,-0.20423826389725672
4.734844141,1.2532192347775093,-0.9483025912440852,2.9709258236130682,2.881877471696357,0.3171906371168719,-0.2003530693211991
4.834810447,0.9614082681562433,-0.8720636284892658,2.956367680605061,2.6840944980785744,0.31197821256851843,-0.19152498859830805
4.934931307,0.7284982744988047,-0.7308801017813922,2.9338291594586554,2.490969949453535,0.3049314523714935,-0.2063436205006881
5.034822426,0.5035438255999648,-0.5293656851836398,2.9194332099100904,2.2725310968328145,0.28313061190766076,-0.2148588145421247
5.13481517,0.3652613209102125,-0.2806763693550176,2.8714801546822324,2.009039428627135,0.32464894672210304,-0.1677732481391768
5.234819717,0.2501781633837351,-0.014890660069924027,3.020860081506123,1.9178067180877458,0.36811970748261696,-0.06619319656170648
5.334922465,0.1195957608930261,0.30454600537899246,3.1496301680592302,1.8849611000314872,0.3591418287491983,0.05284047713888096
5.43480913,0.01544027999116083,0.5909972579968111,3.2279894270246796,1.9930349643692187,0.31175519817784564,0.13296574826671326
5.534922838,-0.12367816741415256,0.8620487114099575,3.2300503005521137,2.1555434387235004,0.2893837223483009,0.17202695439409135
5.634814556,-0.3462070320518468,1.1051761145557957,3.2141618171383453,2.380944153414216,0.2782421070909332,0.19800777108115425
5.73481706,-0.5922324992782868,1.2821054441296986,3.114357854944483,2.6541491212390063,0.28429735645988236,0.19931605734874158
5.834878494,-0.894312580031558,1.4341942357091924,3.034134797907473,2.9180937001897536,0.3264870562634298,0.17888968499104987
5.934813719,-1.1598480350834985,1.4768268989904207,3.0347899179401074,3.1013266358182956,0.36895403307809144,0.16980741457005508
6.034820083,-1.4625601430427324,1.4712912508474354,3.0629055756525823,3.2965553426139382,0.37368369091642706,0.15684912811848514
6.134810543,-1.7657583737591218,1.3537882374918686,3.0833676157611443,3.5204301421475845,0.37236937828178923,0.1652729150277648
6.234830259,-2.030288491159001,1.2324792816480459,3.0957488655471055,3.6994534387405107,0.3442386430511042,0.1780546134457703
6.334810675,-2.2830232828685926,1.037958349594423,3.08797905500515,3.940409080222126,0.31756471492245547,0.18570243664172276
6.434803148,-2.4956054771787977,0.762370141013643,3.0351250869629047,4.191961345431492,0.30797538827396365,0.18194533798491036
6.534893747,-2.609934185562603,0.5446800898209614,3.0089254952275977,4.409468696841617,0.30268292238812766,0.17376592598430174
6.634815241,-2.653003723637698,0.2521547253271633,2.957424039363276,4.626074764320536,0.30477840604349726,0.17970252887421603
6.734809993,-2.6762569207026456,-0.05708465572494906,2.944982522540402,4.850092903074165,0.3136575316776477,0.17327823465269787
6.834813206,-2.612011485104604,-0.334003671546555,2.9179298716919764,5.0661921235799685,0.3126070746537679,0.19314068584287705
6.93491637,-2.458749259282238,-0.608442606350957,2.8730449105589786,5.29424898805766,0.30777498484668936,0.20436430241091272
7.034823848,-2.294092978992562,-0.8322301678626071,2.8654721012318025,5.537795029921842,0.3238483415290321,0.20139311970763865
7.134818985,-2.0653382010256,-0.9874665952463196,2.8366393640683647,5.783304029698073,0.3487132633894594,0.20014407535646206
7.234873142,-1.8096057703098543,-1.0959630281332058,2.8754375132588343,6.004197306106836,0.36985392912839377,0.2004949104450226
7.334830118,-1.530577649570846,-1.139789478002582,2.9008128997244707,6.241355269913107,0.36380553134545734,0.19491403569936658
7.434841055,-1.2112561151388836,-1.1347896354884024,2.944142287932946,6.481833283815089,0.3915570783505246,0.1989675370405347
7.534819289,-0.9541510162000422,-1.0363173183476846,2.942422000147954,6.72611055416138,0.35040296515829006,0.190569597236739
7.634926744,-0.698457717516129,-0.8829144174488263,2.946631587259028,6.952055859476501,0.3372158835759222,0.18678824141469805
7.734819009,-0.47612049416677493,-0.708099157548711,2.9465484348946935,7.165652787939633,0.33283420736378067,0.17898298404145718
7.834882017,-0.3160803302308395,-0.4395748022147217,2.9188958926196213,7.391882823885112,0.33914869310757384,0.18633087285322977
7.934808534,-0.19628209226589766,-0.18359562667362808,2.9482934158194207,7.582581985563546,0.36195213809025817,0.09081314109679964
8.034889739,-0.12408461812210522,0.1119794203584552,3.0462405304167506,7.628427141448154,0.36702608346489846,-0.027450803269578824
8.134832797,-0.07277559731401348,0.41227883712444735,3.110256378501482,7.53981342852528,0.36672877526103864,-0.12065907440576126
8.234894231,0.04610632843189158,0.7092633866190108,3.130634131543771,7.425571958196212,0.3164870366340623,-0.1786392553686594
8.334819149,0.22142305283792077,0.9653162372638404,3.125015339818201,7.192179782514751,0.31190888909560144,-0.20434339691744408
8.434896884,0.41420719738492234,1.2042772486918756,3.077036794069359,6.978903003651368,0.33630396815463276,-0.2111853975501107
8.534905508,0.6613235330570519,1.396264896840938,3.0716417056569587,6.755314378775993,0.34987458636423613,-0.20584515318078309
8.634814003,0.9607089850875117,1.520237737946646,3.068405108110029,6.549595710288064,0.3642006913931875,-0.19940553780861522
8.734821264,1.246064176426158,1.558903732123431,3.1077630121621427,6.3165556840731805,0.38145747789746276,-0.20147946662126548
8.834810333,1.57867281661085,1.544913553915829,3.0893872192247276,6.083625584718905,0.37791835567698767,-0.19783299726531017
8.934825761,1.8618829252951545,1.4464459292782204,3.1042589720535063,5.894331267809765,0.3639951004582185,-0.19219055551958658
9.034831057,2.143107776135765,1.2897801027360263,3.1103107529014866,5.678240193946183,0.34244295332348157,-0.2009387531165146
9.134816266,2.375334884978412,1.095243840812992,3.1154582508913458,5.460625397938326,0.3473983905773751,-0.20595997546589104
9.234811217,2.560765058908851,0.8404725641147976,3.0668030712372434,5.232114726938251,0.3153319978900346,-0.20587801114855966
9.334807915,2.6775117664115977,0.5568539266314557,3.0562395569438383,5.014800181866485,0.31486709221719544,-0.20150796859998235
9.43480244,2.755815110652012,0.23955134758788976,3.021066216145607,4.770702103232502,0.32798685677777006,-0.2177539392677269
9.534914102,2.768879352396509,-0.023714946227714452,3.0211692737089266,4.5901290571541615,0.3139995909148548,-0.21328561231291507
9.634822197,2.691847063896297,-0.3203663217930201,2.9999751205243816,4.355748604033282,0.3125889307753776,-0.21434732584382782
9.734891077,2.553844751198489,-0.5716063236511573,2.9670163080338634,4.131818273573731,0.3295357641700494,-0.22384971390349423
9.834818438,2.370796314356072,-0.8375169546311682,2.9443023713021996,3.8988149818031377,0.33254190617942614,-0.23065811418907914
9.934835238,2.108927334741174,-0.981594982770371,2.9455927342717194,3.6468461507811556,0.34306023106706124,-0.22338322054482912
10.034846957,1.8451973442643035,-1.0931370620968455,2.9644212675524177,3.4227526959947756,0.34823524425096536,-0.21559880399140097
10.134871859,1.555210300682113,-1.1597317315815967,2.99253066930217,3.1836931483768662,0.3533513903274558,-0.22336573501167767
10.234821646,1.2659487527792774,-1.1539349537568513,2.964311870912832,2.953832125303055,0.3308664345107307,-0.21841210544319986
10.334822608,0.9782706663446361,-1.0434884698823845,2.9574585529263553,2.7227307932286187,0.3375421204782082,-0.2164254860586311
10.434860961,0.7222320123090689,-0.9193587124916459,2.926704175124961,2.512894863351389,0.32037885205501027,-0.22135625099313552
10.534919309,0.5142788786326604,-0.738994864903782,2.919503304081548,2.2810167871298215,0.3098797530227752,-0.21589285636187752
10.634826086,0.32722475640885595,-0.486702811779214,2.8994479849159833,2.037455556497991,0.3392484229939912,-0.18209862490285708
10.734832734,0.21188869844236677,-0.2153079841097773,3.0333663847024575,1.9240292835853223,0.3920449060101538,-0.07032900658519757
10.834870242000001,0.11194919137700486,0.06315911679584078,3.2187637338566817,1.9049352595328777,0.36764185451989645,0.049090409741955096
10.934830337,-0.024243542860807786,0.36732158891529865,3.3017593071380307,2.008213031353573,0.31897449792077553,0.11702236715705285
11.034902937,-0.18150283821129903,0.6665256863182616,3.2911515828261733,2.155452939147583,0.29790669202488357,0.16268500286800838
11.134815174,-0.39829306884057225,0.912048602560025,3.2713874676657113,2.360374321969523,0.26196979831142464,0.18712083616643882
11.234816425,-0.6411782719498317,1.122841822162389,3.1776317444421136,2.618473442124592,0.31910925308504384,0.19694633124134717
11.334835274,-0.9176252009079497,1.2601161375252148,3.0967954846362753,2.86838222191732,0.3102101102379986,0.18990746500860697
11.434802211000001,-1.2099939951388345,1.3123962696459304,3.025336399230735,3.106074947590341,0.32788510540607346,0.17472260110936289
11.534897284,-1.523131291974813,1.3269232966325646,3.0435543220672545,3.299974790464194,0.3432311789616409,0.16399630003138194
11.634815906,-1.821567424158069,1.2325562403861887,3.0475234821389505,3.5122169483370183,0.36377121704334675,0.1676535829952153
11.734816159,-2.0892337824919784,1.096912418265301,3.0421317760045303,3.7451280923760506,0.3274228859677315,0.17459690948303783
11.834837629999999,-2.321255444711574,0.9003370481890766,3.016287485556403,3.9726958579350886,0.30889285997688326,0.17631388705461387
11.934820179,-2.513087461368503,0.6839779151988042,3.0383303715937475,4.155076520987482,0.32878958651118173,0.1798894654813852
12.034809182,-2.6465581421137725,0.40879895072468686,3.0185455090120645,4.367175718456525,0.2938001657540097,0.18267751241341135
12.134812187,-2.708492773048654,0.0953375566326288,2.9840231527227496,4.600763653945992,0.27681449643214967,0.18649015653279796
12.234809134,-2.7282997580013157,-0.18224427950575642,2.9467821480123066,4.833709004269859,0.3086263895035346,0.1986191912381842
12.334817912,-2.6309609083700085,-0.5036723500310343,2.9065340474269212,5.070933335402551,0.2919607806465183,0.20076301484295972
12.434810332,-2.5396931868059007,-0.72845588358694,2.864347649709287,5.313944908352029,0.3037325537076054,0.20127114785906033
12.534814896,-2.3358464232651235,-0.918723818071166,2.8451805994834363,5.541529508384927,0.32463453325440156,0.19165019287178464
12.634921551,-2.1040219615481734,-1.1154604818754392,2.84738744906983,5.765071513912724,0.3528265285537749,0.20459614882235067
12.734814248,-1.8413661459642738,-1.2386201454957289,2.898576995949975,5.990513315064886,0.36995010374464576,0.20325283130795335
12.834814249,-1.5759666740263267,-1.2695333047926096,2.932374615362037,6.232607208329205,0.40757323026846787,0.2106211856189638
12.934815965,-1.2756508942586129,-1.2682136806828042,2.938034332314774,6.466996322117335,0.37185852292145655,0.2014641630674902
13.034919716,-0.975156188676827,-1.1969415542730724,2.947745959243082,6.700980176217,0.3533411883821558,0.19675503182989146
13.134819227,-0.7040222566461236,-1.0369089561568323,2.992078526895418,6.941032626230604,0.39042853426737895,0.19491711357468403
13.234808636,-0.49441911911594744,-0.8286688419975,2.988675957223327,7.137495126545492,0.3572715569338168,0.19160755815733588
13.334860161,-0.3404142455334619,-0.6028249900075909,2.998563675230713,7.382417890165587,0.34857534565511733,0.17521879529135817
13.434805467,-0.2309155325188265,-0.29560212195823554,3.012595271517827,7.5979189668528315,0.35862530240469415,0.11069726840423566
13.534815567,-0.14103309569156322,-0.03364005349655644,3.0798339511486046,7.656394095773691,0.38789807486581096,-0.034365797738289475
13.634809128,-0.07928301550613988,0.29293460802860527,3.1992971175509353,7.609881198065363,0.35744879723291845,-0.12978507648666815
13.734808503,0.010742312355096545,0.6134124457735792,3.1994450068189257,7.4701707454087005,0.3143818099740927,-0.18328570853296042
13.834821299,0.1533476477286599,0.8751183986956463,3.168584446931138,7.28079320037183,0.31905737158854475,-0.222459143626183
13.934810861,0.37503984933712387,1.1556871873895398,3.122321718515902,7.004363584514612,0.3217148274617591,-0.2273203339185033
14.034816065,0.6149292811223204,1.3131316360470995,3.118150542155574,6.790547607439898,0.34836949355987684,-0.2237238483603425
14.134822306,0.8921125815745634,1.4258178228661438,3.0968059144997655,6.56822859287659,0.3717361287297962,-0.21895711171980728
14.23489146,1.181873154674855,1.5038247938600187,3.0954266870584046,6.345772080645256,0.3759525132196727,-0.21064383882582693
14.334813081,1.4886445905565169,1.4906254730121307,3.113382617110713,6.10573612604745,0.38287236487196286,-0.19091403621614536
14.434803021,1.8157958194258514,1.3957585416870693,3.1140910010711376,5.914869955988318,0.3755320724832477,-0.20356896536175675
14.534811071,2.0658157418345886,1.2729128839528812,3.1105481935025057,5.707942675076893,0.33523120238348464,-0.20508514274424214
14.634808959,2.317330336485596,1.072313738845948,3.0955530243507123,5.491421208325032,0.321777053816919,-0.209500182207203
14.73493569,2.517202636681153,0.8187645647651102,3.0649562964623476,5.267325207637293,0.3377870332479848,-0.21871965134069393
14.834832448,2.668426318274267,0.5561575512209461,3.066742288347142,5.06221195851575,0.31085617446428865,-0.22038448150179193
14.934844876,2.7095473410374455,0.26195052792243845,3.01554810559187,4.830248299801457,0.3095343483034704,-0.2233209941379521
15.034817673,2.734168611293379,-0.035695860333074134,2.9945122181997927,4.615575190849799,0.32633451543387815,-0.231125738838637
15.13491258,2.6592648662358296,-0.3627004635908378,2.9722555112041906,4.353617951151373,0.32627735567474303,-0.23496610371242135
15.234811389,2.5368508029701493,-0.581488515642285,2.976913939605736,4.135311044909183,0.3324311703493075,-0.23404906040726242
15.334825827,2.3541949743401442,-0.804519468630404,2.9680381507556093,3.904703188631055,0.36754588474527544,-0.23662219482985428
15.43480745,2.0873612759023654,-1.0052443925950885,2.9656761843438852,3.6437160354297706,0.3456162891877411,-0.23157397035224284
15.534815958,1.8029036396858544,-1.1277705006280183,2.9564240342579655,3.42625655895784,0.33598941016449463,-0.22303123880266534
15.634902223,1.558581410914989,-1.212152237220423,2.972849538913229,3.224339184413048,0.371049295373553,-0.2336750752970961
15.73481029,1.2241550883189507,-1.1630710741995214,2.9570996096804225,2.9483386142163046,0.34372614305630106,-0.2284655427556131
15.834809816,0.9632194773961696,-1.080322579439023,2.9256984813783746,2.7543069006014083,0.32876889189785286,-0.2278955554607723
15.934811669,0.7072002255781102,-0.9397416720303388,2.93967383704175,2.5045572108364715,0.3303807791516833,-0.2241260685302726
16.034818061,0.5025865668785404,-0.7454221346342187,2.9179253102608547,2.2706435937330816,0.32241157445522656,-0.2259213695926126
16.13481298,0.32653813455098163,-0.5062242889444005,2.957909245599392,2.0913671056277625,0.353426491889847,-0.17777414181282897
16.234810814,0.2089194057888766,-0.24487107505044206,3.073503033910293,1.9550768486733987,0.35780223879506523,-0.08984655666523331
16.334818845,0.08705342537484187,0.04279366656368752,3.1861183831809026,1.9508351541981328,0.3795332004240164,0.036539212662040875
