time (sec),x position (m),y position (m),forward velocity (m/s),"heading angle (rad), from x-axis, positive is CCW",throttle (unitless; -1 to 1),steering angle (unitless; -1 to 1)
0.127498158,-1.4644355235286277,1.5214571299469564,0.0005295442609735681,-2.60364999993614,0.65,0.4975254405244699
0.147485997,-1.464448126138233,1.5214360196365826,0.0018120153836346565,-2.6034493510433294,0.27525635057787934,-0.08447224251600102
0.16756816900000002,-1.4644423157788191,1.5214271109998052,0.0010635980714028422,-2.603402690690102,0.45698402691765105,-0.07198752991062465
0.187568428,-1.4644531078745038,1.5214143712476322,0.0006600842303203441,-2.6036737633695646,0.6412565219224208,-0.06677650584088063
0.20751487600000001,-1.4645270066314378,1.5213539188634089,0.008710699095887436,-2.6030301952531465,0.65,-0.06390934916918915
0.22749000000000003,-1.467817471723302,1.51931726090621,0.12749030989830892,-2.6046122567577314,0.65,-0.062071724190597165
0.24748936400000002,-1.467817471723302,1.51931726090621,0.18683868008697932,-2.6046122567577314,0.65,-0.06081307598224778
0.267480536,-1.4751371534150939,1.5148899781950642,0.33248212272682837,-2.6060279273166715,0.65,-0.0599600514049038
0.28749826700000003,-1.48214400726792,1.5105485396171905,0.4453835667266943,-2.6076596467284165,0.65,-0.043034465334946564
0.30748772700000004,-1.4909480401671584,1.505134437549057,0.556020746621615,-2.610205890024683,0.65,-0.02871546061399598
0.327478038,-1.507964346381238,1.4948660889542593,0.6606013944772904,-2.6143308968361474,0.65,-0.014747600428060509
0.34747898000000005,-1.521534811516242,1.4866230599974182,0.8116275429844891,-2.6159168732160922,0.65,-3.157173857256659e-5
0.367606457,-1.5289722281360796,1.4821144610494297,0.8697277186041638,-2.6165352797655763,0.65,0.014074800074064002
0.387610473,-1.5455151370790554,1.4721140548337188,0.9973863046121441,-2.616301762224033,0.65,0.02856050153514721
0.407479813,-1.563989136833406,1.460791292994882,1.1009985623370466,-2.613594810029249,0.65,0.04298745895203133
0.427604686,-1.5840838732244589,1.448338750439965,1.2038743960392844,-2.6091519192123753,0.65,0.05753672712521819
0.44748634800000003,-1.5948097579232008,1.4415459712798504,1.269592262455914,-2.6057413793785984,0.65,0.06048106796840211
0.46750632000000003,-1.629801169473657,1.4192295202875183,1.4505500583671367,-2.592894506896711,0.65,0.07692814957140284
0.487506743,-1.6552609187481335,1.4024142108817852,1.554025343160628,-2.579021498731461,0.65,0.093197027504248
0.5074808150000001,-1.6820230659443205,1.3841501306082233,1.6422013290630113,-2.5605846406948856,0.65,0.1092311522537039
0.527587041,-1.7104655505985542,1.3640011288237017,1.7733885266001832,-2.538206297893524,0.65,0.12432958251576458
0.547481404,-1.740559128878567,1.3418373843657734,1.8840185608145548,-2.510337233536581,0.65,0.13899477992237852
0.5674813870000001,-1.7715097340276749,1.3177168577529468,1.984093489873613,-2.4796559772711935,0.65,0.1535299325587121
0.587486272,-1.8031596901997513,1.2915785186310331,2.070505181338642,-2.444942019627558,0.65,0.1619844969491258
0.6075440390000001,-1.8516250398415688,1.2477845119568323,2.2409077766914476,-2.389425275881326,0.65,0.17115450650394248
0.6274852310000001,-1.8845250767854216,1.2154685915439158,2.2797675799533277,-2.349923216832476,0.65,0.17889565919748376
0.647479372,-1.9172302456738766,1.1812522319381307,2.385091583357701,-2.3092548542037354,0.65,0.18550359622443507
0.667480064,-1.933536847942488,1.163230440238538,2.4304120095370383,-2.288701936172446,0.65,0.19016474168961708
0.687480843,-1.982428189864733,1.1048898219869303,2.5773946922881894,-2.233138199664522,0.65,0.19396389126620348
0.707485153,-1.998549120319277,1.0842026148664607,2.6226798073067377,-2.2143439671680105,0.65,0.19636063942511708
0.727484886,-2.045648874104644,1.019491284351384,2.704971002558326,-2.1579384810327498,0.65,0.19194503905901833
0.7474796330000001,-2.075982049698139,0.9737908574864342,2.7619572915824078,-2.121992906000984,0.6257850412880687,0.18815971732001385
0.7674787240000001,-2.0901797774337947,0.9499577084255197,2.7741565691495707,-2.1039572771208452,0.5819279530482271,0.18955426894974572
0.7875010830000001,-2.1183864792958866,0.9013399844780595,2.817480593642538,-2.0683418894304704,0.5652174012416411,0.19767285915317429
0.8075084090000001,-2.145100771123981,0.8511791157851128,2.843722038512249,-2.033567295162465,0.5080311516734549,0.1947960309286545
0.827478777,-2.1820302212603373,0.7729367848815868,2.894179511687852,-1.9829913423366432,0.4965900532097998,0.20376239186811163
0.847483121,-2.1934286269560768,0.7461679850006723,2.9094540715899178,-1.9654932395064404,0.4676596739508473,0.2007909875408067
0.8674800410000001,-2.2247816133732266,0.6644902238224774,2.928589448067423,-1.912306957431492,0.4460180470009988,0.20188785144241234
0.887498008,-2.234338363703392,0.6366511562744359,2.943374184193256,-1.894146945695968,0.43593889490309207,0.21044358475546593
0.9075066940000001,-2.2519599111566757,0.5800819134455576,2.9724894024847024,-1.855530080971358,0.4135516422020826,0.21375802490959472
0.9274776090000001,-2.273876672971105,0.4938472774747577,2.963998239978399,-1.7943037743676014,0.3998373336973534,0.21755725856362276
0.9474969470000001,-2.273876672971105,0.4938472774747577,2.963998239978399,-1.7943037743676014,0.3763079891209587,0.21663257830360438
0.967499426,-2.2958782451274695,0.37657863404903213,2.9857991835260265,-1.7076716169296804,0.3755920071195949,0.22600835106745792
0.9875643940000001,-2.29986017457079,0.34697401145460527,2.987121425469733,-1.68475792644869,0.36877623766132067,0.22430499927211986
1.007613775,-2.3061685810715526,0.2876603515857261,2.9731003212843636,-1.6390586183629727,0.36400926977184356,0.23276090505086866
1.027593587,-2.3099026056814598,0.22803984823346135,2.9804529909884367,-1.5952989569101794,0.34384459936477774,0.23488826028359447
1.047564169,-2.310587970934378,0.16852515440064494,2.976715207743174,-1.546656020521367,0.3358808028896325,0.23006479356367895
1.067524256,-2.306992429714149,0.0797187258643683,2.963431621008942,-1.4726811986458168,0.3386850713060415,0.2446117732408506
1.087481918,-2.304627632029109,0.050188193736149266,2.9625067018775613,-1.448456387171849,0.32147763446246463,0.23207035404452883
1.10750184,-2.2977851715127713,-0.008531891680014045,2.9521669498631256,-1.400279104733394,0.32550013310470144,0.2396011125274761
1.127488615,-2.293276007939134,-0.037706204671111514,2.9520723138777223,-1.376486288028206,0.3340820530015231,0.23993067240995058
1.1474819059999999,-2.2692542812356233,-0.1521237499792035,2.9278631093107435,-1.2788334714217264,0.33771772002413514,0.24082329767327995
1.167484012,-2.2692542812356233,-0.1521237499792035,2.9278631093107435,-1.2788334714217264,0.32605052262293976,0.233260721055376
1.1874790960000001,-2.2439433898683854,-0.23581187276872154,2.9028310412731924,-1.2077312936135305,0.31796000870846275,0.2251515478578266
1.207482959,-2.2246405698424927,-0.29038449543725126,2.883757675646671,-1.1625865777785347,0.31582656965900674,0.2331193852654389
1.22749537,-2.202708026379454,-0.3438393441705893,2.8920866506016893,-1.1212831147834632,0.3164219422273601,0.2337075409179279
1.24748794,-2.164720772748069,-0.4214451683026046,2.8640957374296367,-1.0531024717466728,0.32003533574577436,0.242070495501936
1.267488559,-2.1511107946307346,-0.4466513049192968,2.864578201923755,-1.0310467668454049,0.3247669774559176,0.22702657030888132
1.287502715,-2.1219344708556256,-0.4958518345377476,2.855035113731052,-0.9860110164691177,0.33831980821299895,0.24287243986709428
1.3074852510000001,-2.106705950197484,-0.5199591890792332,2.8514424146812596,-0.9614165039850721,0.3381222148499725,0.22657773644459553
1.327539727,-2.0576623316145897,-0.5900885946574814,2.8479307211613105,-0.8925898774769554,0.3342997629226396,0.22802320410899724
1.347481595,-2.0039215170010967,-0.6565272511866389,2.8427683631792484,-0.8256213458169974,0.3236086568023965,0.2310886944791053
1.367490509,-1.9851185092150054,-0.6778247371962897,2.841013924878013,-0.802265430239328,0.32541688135083363,0.2257351389154195
1.387480878,-1.9459118503084558,-0.7187133931174075,2.828998748793397,-0.7546770725906988,0.32744364126361164,0.23506668825464325
1.407496145,-1.9047128241366078,-0.7577509780908681,2.8450502632549934,-0.7091319495142178,0.3327106753330539,0.23720952382334295
1.427483582,-1.8621469581155363,-0.7948955450244599,2.824009405017749,-0.66268378559465,0.3426151473388835,0.24563419726186106
1.447503556,-1.8402046846174402,-0.8126803257225826,2.8244677210858122,-0.6383405956747397,0.34888861583076575,0.24016972720289162
1.4674838590000001,-1.7488331658399816,-0.8784672880409948,2.8036268182780066,-0.5460174612840663,0.32958337230954576,0.22714757859516152
1.487480111,-1.7251470926405825,-0.8934610606593779,2.8032896406526846,-0.5226053000333889,0.32580903572694553,0.23550533912792326
1.5074774450000001,-1.6767511330085292,-0.9220375108471671,2.8082350810847694,-0.4762291082457534,0.3251352715715362,0.23640245354014294
1.527481017,-1.6272137661211457,-0.9479085415985358,2.794417173237472,-0.4279997623987551,0.3174197247628413,0.2381772788384041
1.547545944,-1.5509298055082952,-0.9821528124605712,2.7891332439388834,-0.35945532243800604,0.3262199979413456,0.23968777241271427
1.567484649,-1.4988840364188873,-1.0021569576287783,2.7828378904685525,-0.3110322442273879,0.33389465769789484,0.2480886242123284
1.5874979150000001,-1.4988840364188873,-1.0021569576287783,2.7828378904685525,-0.3110322442273879,0.33459325634130577,0.23596722574576667
1.6074996810000002,-1.4192920730909306,-1.02699542334725,2.7799281580383783,-0.24399159682927088,0.3305302401965989,0.24307782233503158
1.6276022010000002,-1.3654629877168407,-1.0405300870637875,2.771980248614148,-0.1981681471118991,0.32365598385063704,0.24323104391041128
1.647531002,-1.311236539711387,-1.051598196704372,2.7603075117630698,-0.15029088398213875,0.3261090088482779,0.24287306541094764
1.6674792260000002,-1.2840439647142352,-1.0561546090295713,2.7571670755559086,-0.12744824402279714,0.3247555768863743,0.23638668880461602
1.687504916,-1.2017601920740646,-1.06581904921103,2.760956481707996,-0.061498523586578015,0.32983627183606606,0.236010603030788
1.70748084,-1.1191524935642265,-1.070119425380251,2.7575757983254454,0.0032371215838630464,0.3421453579255119,0.2508165697349859
1.7274937989999999,-1.091548024009311,-1.0701629842233915,2.7604503922024697,0.02492589100745629,0.34808336949970337,0.24465347621038666
1.747487022,-1.0640853160437507,-1.0694871534201615,2.7471022479628275,0.047488187665864906,0.3434625778881247,0.2376061288281194
1.767530609,-0.9816951331293324,-1.0642354620005756,2.753105679253457,0.11272149760873075,0.34130079553021714,0.23855431665188068
1.787583357,-0.9270531661609461,-1.0575234908841604,2.753720021623058,0.15731416887759317,0.3425247381006607,0.24755657790650504
1.807593667,-0.8727429540545066,-1.048320047309815,2.7642277065750314,0.20261914921781365,0.3377878748535947,0.24343284619173153
1.8274772760000002,-0.792281468229424,-1.0300911223216118,2.7421048553988223,0.26841247227191883,0.3388739494711183,0.23971655813753698
1.847477314,-0.7657452775708444,-1.0228877587470069,2.749650635001531,0.29058310025096395,0.3476894434612237,0.24926141800623414
1.867479387,-0.7130701843102745,-1.0065305240489584,2.767568794172287,0.33584123393551996,0.36548968571166895,0.25832381003142957
1.887565431,-0.6611121460665063,-0.9878296431761666,2.7599619909758903,0.37886094797527003,0.37319014465792566,0.2540724376325439
1.907508025,-0.6098749153957813,-0.9669244647265682,2.761872306580458,0.42141864511001453,0.35235777882811975,0.24668269217611624
1.927572326,-0.5599870239124543,-0.943606429032431,2.7610212027932093,0.4659500888187008,0.34463743710011163,0.24858326835957212
1.947480327,-0.5109809771737803,-0.9181887969033465,2.76388862883858,0.511753919300598,0.34839441161190104,0.2442475943200503
1.967487963,-0.4396666725028335,-0.8759016110945729,2.7671959528272776,0.5810754463504055,0.3513789541868892,0.2535204998354
1.987480007,-0.41660027483501777,-0.8606160139745549,2.767143257378114,0.6057057822504904,0.35057219066391077,0.2556027678834535
2.007481124,-0.37151611683734115,-0.8286367678798664,2.766588990398036,0.653022695126341,0.3622020762891482,0.2584123852914014
2.027480534,-0.3278956810203285,-0.7945219066574727,2.7795575390367975,0.7025489057700702,0.37355374967305993,0.2610811061932812
2.047482779,-0.28556238750768076,-0.7588918322369591,2.766659027166843,0.7505854012142319,0.3688295577015267,0.2518660681497222
2.067491222,-0.24504104221399167,-0.7210407611662658,2.7717589661181696,0.7986831825589056,0.36682012967740196,0.2505705220055108
2.087493128,-0.20656407157058307,-0.6811264215976961,2.7698736380988294,0.8473555739718457,0.3634553706595939,0.24206965210397935
2.107494578,-0.1698754199845416,-0.6396455324755544,2.7663611603356726,0.8951064101971958,0.37002650051820596,0.24738572537764367
2.127503096,-0.1347504995910676,-0.5965336477945727,2.7883004589718885,0.9406842759341564,0.3756148146713088,0.24562961171895537
2.147479407,-0.10190221041122487,-0.5517014672191477,2.787032240433405,0.9853151959765086,0.37851713260317693,0.24302382754677918
2.167480091,-0.07107561473262528,-0.5049729744567991,2.8050241731419385,1.0296938199443304,0.39284383703156,0.2408108770395293
2.187478382,-0.04235306462267919,-0.4571905718808442,2.79301985945292,1.071651884522901,0.39708236447911005,0.22415958540003297
2.20747813,-0.015464863244179826,-0.4078751288097959,2.808485925289666,1.109596609705231,0.402328793761878,0.19501178424795737
2.227476878,0.009857027716308019,-0.3572840750448646,2.8378804958162083,1.146000473398797,0.4098069242387365,0.16606343010963018
2.2474794940000002,0.04474508664229069,-0.2792095028488375,2.856139902883449,1.1904041088185426,0.4099702866063833,0.13777687596683102
2.267476847,0.05581289688374017,-0.25259337911708496,2.882558700260404,1.2010571440669147,0.4201073457431708,0.10976181744635077
2.287477134,0.07688324373878205,-0.19875391918353683,2.9045298523906,1.2170930961994952,0.4252349230608146,0.08178224393829821
2.307508442,0.09727634303282771,-0.1438306097480897,2.933710472395843,1.2283798101793275,0.44297603791160906,0.054640611603055896
2.327504375,0.10728392852207723,-0.11607784110694985,2.9501998823355557,1.2323294704504826,0.4529145365144037,0.0289192113412309
2.347574815,0.13718077611571644,-0.03201501187557576,2.9892761979381945,1.2396679073509917,0.42382398529896326,0.008033114717373988
2.367494263,0.15718154233356127,0.024903796750938446,3.025250475078368,1.2405233315181545,0.4113217130857599,-0.020221673545831348
2.387499848,0.17742119831959763,0.08198034618050197,3.0310133482149957,1.2403323016649834,0.4070844373176259,-0.036991969030120246
2.407507979,0.1980069968773032,0.13951833632308538,3.0754387576673516,1.2377443069817309,0.401908081141242,-0.05582002773916294
2.427476452,0.21892144259489607,0.1974652682802374,3.1079573177054773,1.234660784740894,0.39629049314063475,-0.07314099961571145
2.447509467,0.2404404424128244,0.25557305640131023,3.11494643769302,1.2278407056046454,0.4018906161201851,-0.08767324229543286
2.467486094,0.2514901847086793,0.2845488523503143,3.1011184364405127,1.2239513486320233,0.39258450196034156,-0.10399363793180333
2.487479492,0.28579979291740054,0.37184544142186793,3.116613784981977,1.206758155646383,0.3621088305988253,-0.11039266383979227
2.507493796,0.30944077665882735,0.4302570490336398,3.134140068892948,1.1916030879883779,0.3523189992172842,-0.12502536678926152
2.527501217,0.33422650473079296,0.4881835485402809,3.147398250318449,1.1729050597908532,0.33140825162495013,-0.13911476822994723
2.547495363,0.36022303975025644,0.5454524052538506,3.1501896964015,1.1474800076839966,0.3172794945443461,-0.15323277990294326
2.5674943580000003,0.3739328832212748,0.5738263103381548,3.1512510178228053,1.1316451775305139,0.3148490706459112,-0.16627403757043924
2.587482007,0.41666089257197547,0.6577514008130362,3.1479577726014107,1.0807647227524186,0.32681387693912006,-0.1797709238988051
2.607554759,0.4473277004974567,0.7125503016785325,3.141061316806107,1.0436072730687425,0.3225403201553001,-0.18995266768323635
2.627594929,0.47992649364881035,0.7659784812853311,3.134862371887429,1.006525837554153,0.30005712624712105,-0.19968123606072224
2.647502693,0.5142804972547977,0.8180540777922448,3.11515155964194,0.9679053136415843,0.28772191222225973,-0.20802540957394863
2.6675036260000002,0.5693273036856036,0.8932506009143919,3.108779952077456,0.9057699035422648,0.28150935182143677,-0.2142799072959177
2.6874783300000002,0.6084122089360453,0.9411176664046205,3.0775894528052627,0.864558260498625,0.28236960700176755,-0.2232397876480791
2.707479188,0.6284433842581082,0.9643831990337179,3.0700700208607956,0.8419867964371758,0.27932100608671434,-0.221802788726017
2.727586795,0.6699266115799902,1.0097748348218398,3.081207030558219,0.7973973272886437,0.28412384353626075,-0.22442509153141108
2.747613167,0.7131310603452022,1.0528717583146818,3.062321227428528,0.7549284259857566,0.2912371036788284,-0.22702858328455336
2.767597355,0.7577984031781438,1.0941400402157495,3.0324341893515485,0.711169701792267,0.2951107685043075,-0.2207739613263379
2.787608553,0.8042652872495711,1.133320507427682,3.0302865270943133,0.6655042218340212,0.2834553307740954,-0.21704292843450856
2.807480441,0.8767511591420072,1.187756045501351,3.0116554212429634,0.6013028941260771,0.28754546493192623,-0.21997922839076223
2.827481585,0.9269519772425614,1.2211737717150886,2.9990956069476264,0.5570077222776849,0.2903226991651667,-0.2287514082396127
2.847480085,0.9781563385270042,1.2519689667975458,2.979354545892976,0.5115041880052996,0.28596538825116674,-0.2309782104452093
2.867573397,1.0307572721338447,1.280353742638637,2.9933119605875733,0.468567113544676,0.2954564389428299,-0.2338989870981032
2.887480351,1.05748650607135,1.2936590548823343,2.985771727356545,0.44702635217223285,0.3121386171639953,-0.23631546611064158
2.907503732,1.1116982276253105,1.3184952153679121,2.9823823934343863,0.40331923004243025,0.32236070156645696,-0.2379801278554026
2.927586539,1.1946678335308551,1.3507178559380335,2.9684747476558155,0.3378957170729645,0.33790842399688437,-0.23376141548668453
2.94747882,1.2228122746837462,1.360189892526875,2.969560649235672,0.31731293165742486,0.326548342952261,-0.21017596021229884
2.9675405770000003,1.279573338979063,1.377225206391247,2.9582562654736626,0.2758042876957016,0.3232971563622519,-0.213976884104428
2.9875035590000003,1.3366743210123126,1.3918369409715563,2.9410866785421126,0.2330321285950906,0.3123143423051197,-0.2190745639014637
3.007479931,1.3941619177179996,1.4040800121578274,2.938847635799552,0.19044119815015134,0.3168765084564598,-0.23078882232753692
3.027501007,1.452267428773887,1.4137129452666963,2.9451268347027435,0.1483047936864742,0.3206360144005084,-0.23586673823750265
3.047479709,1.5106351781318414,1.4205555037018398,2.924176982051152,0.10301900214691216,0.328975724973414,-0.234295481054279
3.067480812,1.5688555740594865,1.424710631636422,2.9112616712279893,0.05445712852796309,0.34349905355628635,-0.246201655788209
3.08747761,1.6564375227430503,1.4256709243047665,2.9221606274632506,-0.01612503065350416,0.3391769210855779,-0.2562170842542098
3.107478472,1.6855439286395857,1.4244898023061414,2.913036068073143,-0.04107576646434472,0.3424395940120799,-0.2564038271240197
3.127474741,1.77228146777008,1.4173425218789009,2.899324114025787,-0.11526810694159431,0.34275066558187767,-0.25675124073143535
3.147477784,1.8295810040059939,1.4091548759108017,2.8882881291122784,-0.162315812451473,0.34237000408112767,-0.2573243703038786
3.167478512,1.858120577540518,1.404038564900133,2.8994549416923223,-0.18641055576670945,0.35392770257644174,-0.2567707741933557
3.187478622,1.9147513223026327,1.3916107654695928,2.8921468250309523,-0.23329405888936214,0.36505857031791705,-0.25503606885142865
3.207479849,1.9705157950278795,1.3767652474679755,2.8886921021143803,-0.2821631095622446,0.3666050974036762,-0.24640688683214843
