time (sec),x position (m),y position (m),forward velocity (m/s),"heading angle (rad), from x-axis, positive is CCW",throttle (unitless; -1 to 1),steering angle (unitless; -1 to 1)
1.129816259,2.285381827511313,1.0069626358653105,3.250819657852456,-1.061959387045881,0.4830946085427777,-0.25731838547468444
1.3298242789999999,2.500682583929714,0.4009868616261954,3.275979571904804,-1.6197598666773652,0.41734803212805693,-0.23897147611820596
1.529825433,2.3296019346994914,-0.2394055429341964,3.2196331257681248,-2.03027380821459,0.3890067446429057,-0.2281856053114554
1.729815752,1.9481871838790905,-0.7981123990752207,3.199737295877509,-2.5413107036697418,0.3755027089765343,-0.22595359894830613
1.9298209640000001,1.4200065488898006,-1.0363811212671938,3.145488794860384,-2.9519271605170077,0.3441597423833579,-0.2255936488678466
2.1298294110000002,0.7558575025018748,-0.9838910507579289,3.082561935127885,-3.4552950193471856,0.33404176603643726,-0.23176030943930326
2.329820945,0.23328461372910686,-0.7004948908095989,2.9742703633749557,-3.928530065976372,0.36176264736686264,-0.23527374984834679
2.529827506,-0.14886406565144863,-0.19778438607809587,3.2220128606359912,-4.18965046659198,0.5002892187015396,-0.08202233708892284
2.7298263570000003,-0.4743422931525256,0.38962112703271407,3.5422078585691095,-4.1521132685891455,0.390890897965139,0.06550784787017963
2.929821737,-0.9030304533735998,0.8964268923948837,3.5522855109915743,-3.883319755824548,0.25025805994732836,0.1417735406713665
3.129829421,-1.461659577579961,1.3030587468282304,3.3572277459754942,-3.4790517718161467,0.2081536621521172,0.17227639689674884
3.329826746,-2.134192330225217,1.3987117568607115,3.074115730800569,-2.9443713252547496,0.2749122440047748,0.16732548385214793
3.529832642,-2.750310190363644,1.1846645608963136,3.0134129802930723,-2.5270263543348523,0.35777499386685,0.1761577667153864
3.72982481,-3.05560761535355,0.7613919518099727,2.9756034759621715,-2.0787124494945624,0.3920712274761311,0.19269330888257494
3.92982742,-3.318388437353793,0.19943628740887007,3.057931963344515,-1.5910043243172396,0.38780637273093915,0.19613648560733488
4.129827514,-3.2566371742660154,-0.45429858613510327,3.099358099182448,-1.1734738924607575,0.40758973228816336,0.19826693696558526
4.32981752,-2.8384902778814776,-0.9703230162376338,3.1526012093295126,-0.6695513380338673,0.48924042169205567,0.20956509457067407
4.529857745,-2.286183569951406,-1.2485695569776638,3.2332428579254793,-0.23495399822220261,0.47378128304581574,0.21230668904404035
4.729820237,-1.6496065337384966,-1.2873588700497824,3.32115410344602,0.1896071658020088,0.46430120745714876,0.20246370080246567
4.929822879,-1.0575793081621059,-1.045111705751357,3.2750489780607737,0.6455421913731411,0.40829835773969075,0.18722151410356605
5.129818637,-0.600289013497056,-0.6144730553643096,3.283851401274385,1.0566998255426905,0.4312591854725848,0.14223079099114352
5.3298197,-0.35831703203726134,0.0508807858402548,3.461294401088652,1.3019791816985635,0.519943089174773,-0.06148639735488963
5.529815367,-0.08760842944020225,0.7487873756092801,3.5928000080298155,1.0098569584078019,0.4003064302167006,-0.16652939497647906
5.729829782,0.39451763403861995,1.2438330402530628,3.537632413632841,0.6169690866761056,0.373415838276023,-0.1861541917675384
5.929819213,0.990593079362992,1.4831482902412012,3.4740864003558447,0.1893623954343716,0.3875964547073458,-0.1861932943389521
6.129820696,1.6969635085871038,1.5085784939704687,3.409870442700341,-0.2641256746316809,0.39509103130655565,-0.18841450822190292
6.329828476,2.2835068998717047,1.1879146601968449,3.3420892059906624,-0.7000055593134513,0.4243185831568777,-0.19109035010337688
6.529883934,2.7198879604228865,0.7034859893384677,3.3259852986567306,-1.1281459115374792,0.4145154212243384,-0.1962079910351297
6.729821997,2.837246627851967,0.06772722260911286,3.308005329040915,-1.578081628981999,0.3958926348249147,-0.20000134213554946
6.929834541,2.769338088890024,-0.5543097041146727,3.3132460825708567,-1.9940078584319985,0.41785640694513543,-0.19499959810809991
7.129820714,2.33820859828126,-1.098232714365104,3.262540843557287,-2.4401770479550673,0.4037909456973801,-0.20057877649903327
7.329817101,1.8325691940331268,-1.443543470759685,3.2778890012671913,-2.8854004819249455,0.4053937781070806,-0.19772075947293125
7.529847153,1.1388839739934637,-1.4993281958055014,3.2314066176601006,-3.30828995321836,0.3834335954172785,-0.20369608819502838
7.729820594,0.5841825936354709,-1.2392899417656142,3.168355378803912,-3.7333475038008026,0.35050429490332213,-0.20674745068180367
7.929824966,0.16392524683667653,-0.8327929630417207,3.234010504666862,-4.132466283474639,0.45573991486238774,-0.142564286507127
8.129820158,-0.14300299122999793,-0.17640049135443125,3.587836006131881,-4.297070950964299,0.4567044520643072,0.03076067623226357
8.329882145,-0.5715432047110928,0.4657878319493943,3.7251792553468044,-4.096088829813041,0.30134659881538806,0.1227885725149148
8.529811803,-1.0664358612650897,1.0228715421504664,3.5479324107674572,-3.6480094368138256,0.21026536262431797,0.16586550612550074
8.72982154,-1.627177745329201,1.2220119334641069,3.206109882128461,-3.2640702619606143,0.23896037273155424,0.15995243410522708
8.929811915,-2.289547571650408,1.1722997393539578,3.0742417157050492,-2.7870628822440735,0.3112914411372358,0.16810933609279172
9.129821442,-2.774785744158,0.8924354418787369,2.9911257882650872,-2.3385609559852494,0.3704620394941848,0.18496728289642092
9.329832643,-3.1070959213399463,0.36268009729686645,3.0319838867891775,-1.8857805941545482,0.3534304162813243,0.18799947179284224
9.529865392,-3.2260768937117628,-0.2667255790410978,3.122902159050012,-1.416955549625712,0.3847638394620568,0.20598010706572403
9.729822233,-2.9641570817100096,-0.8277898158391858,3.136483542673953,-0.9933726277982694,0.43621787149784724,0.21093079443007448
9.929827591,-2.53007413007388,-1.28553433960095,3.178806584723545,-0.5263699845306359,0.46923918499494915,0.22284990758420734
10.129823672,-1.9179726109538573,-1.4261253912447571,3.2647153518452168,-0.045072617867793215,0.48547907921210254,0.21054044265468574
10.329822925,-1.268260495139515,-1.3739419008007596,3.32277049678165,0.4202734902336868,0.44910524562742693,0.1998558707194903
10.529830464,-0.7557669281212444,-0.9962090827808664,3.260924591409371,0.8613984351387468,0.40039841702760576,0.18130816209477768
10.729830813,-0.39181009742871853,-0.4326397070910722,3.383563158447515,1.238550411230236,0.49249857380276335,0.06518329886167386
10.929825126,-0.16674409370225218,0.2398849484960725,3.586732641159626,1.1987008559894305,0.445392090282703,-0.11927107947610248
11.129812278,0.2105200776862619,0.9002013522480727,3.593667520985498,0.7873705502432108,0.3613983578644693,-0.1839606961229007
11.329836047,0.7493300537163672,1.297469953777872,3.507373789155092,0.37752342653420995,0.36936231674800934,-0.17581611012204015
11.529818147,1.3273908512158374,1.4987406274447703,3.4021824265510974,-0.01677608196712949,0.3816504454320564,-0.18810194828468074
11.729822057,2.0241013509956596,1.3375777794239394,3.3358506898759805,-0.45973282425453355,0.4002136783390255,-0.20091972560523547
11.929827286,2.5292803693184203,0.9811569791971283,3.2811374216787845,-0.9103182769785381,0.4024825131466154,-0.1885857360780961
12.129819927,2.8797473512314493,0.38794559925229904,3.2939156947169796,-1.317705727067688,0.4057592531644792,-0.2035330652004793
12.32982734,2.875923207430643,-0.2440308824710322,3.2624602071266926,-1.7291047462152271,0.43035788079893517,-0.20441959664709686
12.529831222,2.6547838985278442,-0.8733800783353407,3.2704554716529364,-2.215346943223802,0.4128155030212637,-0.19923828718132347
12.729833046,2.133182247052651,-1.3048754821781021,3.3102020451014478,-2.6881037143341016,0.4229189937585874,-0.19835377163786788
12.92982695,1.5899120714995303,-1.4708495606666565,3.281636522182722,-3.0860297440007076,0.38500567225377125,-0.19476443183584372
13.129857854,0.8684264080632178,-1.3971704158798846,3.2024117848216584,-3.5823995192060285,0.3595928617310499,-0.20440574552328625
13.329812674,0.3529142830443677,-1.032211063588548,3.190438697362168,-4.0459274427388605,0.3719478459043609,-0.21111169111226816
13.529823593,0.048496711522870564,-0.5652936574810188,3.3988857402273998,-4.307929857666361,0.4921189111874715,-0.05910426826100022
13.729869677,-0.27289461940551535,0.10394926842089286,3.6781333989998544,-4.214775046300309,0.37971287825796846,0.08359241554332578
13.929832411,-0.7651243219950573,0.7178228372207027,3.6882880868059083,-3.9144369400151136,0.25940806986602466,0.14578262025987104
14.129823839,-1.2962738305191956,1.1203674444766945,3.4829607565441822,-3.4887651735620553,0.19792872005318526,0.16969140246407693
14.329821189,-1.9755956885818473,1.2690609470951852,3.192506277553319,-3.0068006278905948,0.24386757931666933,0.1606619463054621
14.529816939,-2.5079624949227095,1.0936089593866398,2.7376648483466033,-2.477100851657833,0.06839350412730383,0.3024522134375726
14.729820302,-2.860597445610328,0.6587374532287767,2.8526990384617763,-2.0433250895081563,0.5049151078198438,0.15085288672111852
14.929834567,-3.0131984650808716,0.0824738225734613,3.1155162576644937,-1.6587396166255033,0.4092820830553838,0.19060599095047207
15.129816695,-2.9894797583307224,-0.5126597531424275,3.0499635038226076,-1.1820526773078148,0.389548650802747,0.205891113099895
15.329821515,-2.603781677139215,-1.016899353970862,3.067712327954936,-0.7022097039996227,0.4220071619005643,0.2026934720327726
15.52986156,-2.054555446125592,-1.3991651693686413,3.190120252222395,-0.2601814290873426,0.46939078536152073,0.22159076321931073
15.729820207,-1.406416199639612,-1.3999440057708572,3.279468435685445,0.20767480707540265,0.45529821997736886,0.21074394265916507
15.929815582,-0.8618186660272815,-1.1330839157752834,3.2732970139656747,0.6851158294952119,0.4136524207266617,0.1888101903380853
16.129829461,-0.42936178263043856,-0.647014695537969,3.294159916185489,1.0608189543108337,0.41746624652194336,0.1723423542658294
16.329820112,-0.16669997549223356,-0.04530295096519031,3.4416399653409924,1.3805002806801456,0.4890301173660932,-0.05382945035651179
16.529850225,0.0016792770831066182,0.6483107675102889,3.585673494114583,1.1397704513372189,0.3680859299069952,-0.20955388377390954
16.729829548,0.37130457968329417,1.2212741243948801,3.4000165575021604,0.6933380917819117,0.37684243004024126,-0.21143826953771638
16.929828028,0.965916991875228,1.5530973281730913,3.3150996884783663,0.22264472096895452,0.42924924252668833,-0.2024963019019007
17.129811938,1.6250042921907177,1.5770791362673504,3.3337255010070264,-0.21215302799832766,0.4277085186092237,-0.2110417746105591
17.329830293,2.203695952606629,1.3490193695670634,3.315708347466421,-0.6819519954571888,0.43805669847880385,-0.20654729125867824
17.52982266,2.63171836963609,0.8321410598465695,3.3266520795717915,-1.1405619793286055,0.4226660920224761,-0.19764287628705535
17.729822128,2.8062215425783243,0.20598513112876013,3.338403268025953,-1.5370737995389194,0.40411283700949086,-0.19721703609754443
17.929827724,2.7421760079937982,-0.44766650258036894,3.288723874094079,-1.9674913438409583,0.4121782662995497,-0.1983309173877262
18.1298206,2.396728936484908,-0.9684818376088626,3.2287439214776734,-2.4285147060632832,0.40589798492847506,-0.194738001129627
18.329818725,1.7919511163462125,-1.3135863479401557,3.2805416469032873,-2.853300399695047,0.40696668017146936,-0.19916015931975758
18.529823188,1.1838880026864915,-1.4078319747048873,3.263419485190241,-3.2483303814636337,0.3530071553639773,-0.20236422479985147
18.729847078,0.5027393232264454,-1.1223727927248905,3.1505199268832427,-3.7696920659165594,0.34287953326541004,-0.213462627906274
18.929827944,0.18087090959944724,-0.7010267092153047,3.1477748415386877,-4.217269333586869,0.4541497243258826,-0.1460411776688769
19.12981879,-0.1757136595472502,-0.10257134714088033,3.5165425614331376,-4.274006054274622,0.461220417958513,0.027535904220001198
19.329818079,-0.5375757470799968,0.4934770809220839,3.6744793808492173,-4.117809806529514,0.3099680902707159,0.13043529638218965
19.529819259,-1.0471538495314305,1.0529328875951494,3.5208807608987627,-3.6760579629529175,0.2140557194081377,0.16824097613512143
19.729818809,-1.6369334891963838,1.2777945000315438,3.233581121064651,-3.2134660712870686,0.2438114963384286,0.1636462167114483
19.9298218,-2.2406460759376343,1.2221979854914853,3.1301116178169055,-2.827557128464573,0.3140973880361748,0.17845087390832623
20.129814026,-2.7971701731194702,0.9343730892695932,3.067804742725693,-2.370362322778548,0.35371755616673856,0.1914666485430333
20.329824667,-3.157857873400239,0.4385844688224617,3.0574981517722093,-1.919720235788542,0.36619242686099956,0.20293339155013382
20.529829381,-3.2451197810948478,-0.1762564599743097,3.0945353993634526,-1.4565152465432638,0.38645781562491544,0.20494560578916393
20.729819483,-2.9954807803126644,-0.7589408174081337,3.113407493860708,-0.9410277341979171,0.4212550655192455,0.22194222311216907
20.929819418,-2.5410366432315312,-1.2173091353632493,3.2088317812902285,-0.48806182825912403,0.47125143943148373,0.22586529793359
21.129820062,-2.0122872570105064,-1.3560506543912836,3.2435417334053547,-0.062011475381452505,0.468879489326664,0.21977550247832442
21.329816297,-1.3314311999748443,-1.3316197957541127,3.308882806062063,0.3989333846942136,0.4430731491454932,0.20664451150899524
21.529816846,-0.7727335868246302,-0.9730126224616824,3.305027583532153,0.8541285832518601,0.4129918843016577,0.18702633778189062
21.729822558,-0.43127643089897694,-0.36091499097651464,3.3676410505107808,1.2110632806399644,0.46605563501332053,0.058903293908329706
21.929832164,-0.1752291002624818,0.2325131675860722,3.604517998005931,1.1617423738553883,0.4408869105096683,-0.11036432330553969
22.129887895,0.2061535399973751,0.939940787193958,3.6285006402992313,0.7724144834842274,0.3743016787973809,-0.17518958678862784
22.329830471,0.7748647405436857,1.3226445612908764,3.4780665443243937,0.38871925676873975,0.35691372836672736,-0.18071574430789508
22.52982288,1.3751588606184846,1.4787796956038022,3.4503712963347413,-0.034004750880007775,0.3782525211435956,-0.18606275679599169
