time (sec),x position (m),y position (m),forward velocity (m/s),"heading angle (rad), from x-axis, positive is CCW",throttle (unitless; -1 to 1),steering angle (unitless; -1 to 1)
1.13268601,-1.5244234108049355,1.0193558267852236,2.952148638581597,3.4260238934690888,0.40344772567436016,0.24034730319272518
1.332681341,-2.059319177857293,0.7737814946144104,2.970966738192916,3.8918064929472638,0.3855900766066723,0.22871597044898342
1.5326490270000002,-2.366678755895066,0.2760483233906819,2.9304517899431914,4.352669527406936,0.30636104977467726,0.22546571982166594
1.732645604,-2.4773825622073375,-0.26551743774597975,2.8226465593839882,4.843488481111254,0.2832056126587513,0.23485755881762865
1.932643948,-2.3287398990310173,-0.8006017095012341,2.729743042706399,5.2769336325542024,0.3156804563646283,0.2510679124175278
2.132713159,-1.9472099446647542,-1.1930127172147715,2.688075885886973,5.765632045736678,0.31788696808294625,0.2558044869252255
2.332708063,-1.415819806669455,-1.345741485772685,2.7573386077021556,6.240113325274162,0.37719233877135316,0.2634618333789207
2.532690498,-0.838467678004055,-1.2460980404155637,2.8260765967048043,6.73179311064266,0.4038006087104244,0.2469931154282987
2.73264161,-0.4214370539353372,-0.9254260025855638,2.9361924771580723,7.166392562811159,0.3920319220079134,0.23068404598759795
2.932702009,-0.13616103990314,-0.4072222284998471,3.063375464561559,7.508855219371102,0.43138860861020234,0.07223244403951098
3.132715927,0.10335814730650213,0.18644381315091688,3.1887960124524284,7.3495765751181,0.36686000023828086,-0.10923405754204185
3.332690826,0.479542261674427,0.7021350149351921,3.1046147069635777,7.0001128195400595,0.3351504592854548,-0.16086325664697615
3.532691543,1.0007651043905779,1.0230486846217508,3.0399267227536915,6.577895499653898,0.35536249983127444,-0.1578196077299535
3.732725756,1.5767790224292164,1.0912029933237448,2.9666094583103404,6.125841386065488,0.33734028488136564,-0.16681832502566296
3.9326459060000003,2.1432153560844984,0.9136305462334195,2.874295135616124,5.748428700336293,0.3321145181060846,-0.181536080820626
4.132644151,2.5275733928495936,0.4801273845323605,2.758330360634547,5.266596634371927,0.34467749523432967,-0.1839596960517272
4.332643569,2.704582270013428,-0.05806065975063027,2.694204357354948,4.795665545922736,0.3491832256364667,-0.19586134215396844
4.532641231,2.62873546194652,-0.5268539878592997,2.684558712310006,4.3620806717814755,0.3678893248756348,-0.20574206735213107
4.732720502,2.3157075139089613,-1.027576119591662,2.6763849759967644,3.8401517698773584,0.38855490765662865,-0.20268440323079576
4.932737135,1.858916879479698,-1.264929711794782,2.782623992531516,3.4039171264401293,0.3916701816060898,-0.19831274674736452
5.132713091,1.3273677899088185,-1.2703426977896846,2.7462331036829104,2.943275791692197,0.4107848048331642,-0.19287043925098593
5.332642572,0.7805368490964666,-1.0408618971964219,2.80942944036819,2.47862634666108,0.3846831170040378,-0.18300687897834395
5.5326479729999996,0.4358232362701488,-0.5976118552059706,2.776434085831163,2.0356100707504194,0.3931284372791328,-0.18003771458798196
5.732648575,0.2764986022319421,-0.055592456665826684,3.0164364089718343,1.7593152325783066,0.4663111716483962,0.03504814668161622
5.932649452,0.08524096616371932,0.5418247247889854,3.1241028240986957,1.956076363866735,0.3286342416864928,0.1830754194739148
6.132651824,-0.2779852785760073,1.0245683061425008,3.1227225791923976,2.406036426811187,0.32025894113359293,0.2329041894083912
6.332648105,-0.7703996405221247,1.3955099448185548,3.0390574615283548,2.8963372514104533,0.36793044155733023,0.2161975619680682
6.532698466,-1.3244570658302108,1.391001968769835,3.082430050581665,3.29244868468226,0.3946063180372265,0.2040334117571908
6.7327397730000005,-1.95586359887535,1.2341693597772032,3.024363858649229,3.794346115134114,0.2519624156877485,0.2505070853226596
6.932709464,-2.357157488662897,0.8016346545152487,2.985304822978184,4.177878272628137,0.3777088036249224,0.19783890027356393
7.132734227,-2.518892034164281,0.23825101958864348,3.031842010286075,4.538297713214632,0.30785991055230155,0.21655556566674403
7.332724087,-2.5390397596342185,-0.3278300737923972,2.902138817779329,5.047912392768491,0.2760397914819423,0.23401753178281903
7.5326940570000005,-2.220873020136016,-0.7978685946631995,2.7876930649699383,5.519137525264083,0.29715850275915534,0.2362817511644858
7.732743631,-1.7157354807799834,-1.1067807123785929,2.7407213083892077,5.9688392835623745,0.3569147172657279,0.2484329791490002
7.932667498,-1.2168168984259697,-1.1419864708283531,2.781620311976865,6.465645189996744,0.3783040651538646,0.2408060275420982
8.132691403,-0.7015332726279229,-0.8944947293857177,2.866728023604928,6.932438562600725,0.3817088513147757,0.23622597289535985
8.33272112,-0.3167007713940454,-0.45247700275164643,2.9210961510461106,7.360312195519458,0.37171387617051527,0.20750248775768926
8.53270001,-0.10057620715381262,0.12188959315319765,3.0863021670188293,7.480154539697779,0.4071251735996983,-0.05679111365702503
8.732697517,0.2187674255956055,0.6256039521395493,3.1054793412160384,7.195877584944545,0.3694838395087605,-0.15157775697646783
8.932642613,0.634596769467641,1.0245439434274408,2.9991105677100394,6.753165281910001,0.37266636901292177,-0.15336551832272347
9.132643243,1.246804547815437,1.1951081557742844,2.9915016481650167,6.307410132394501,0.3666771833241009,-0.1590264049010489
9.332654013,1.8141997485099959,1.0883134966752772,2.910146581271448,5.920717788742511,0.36876809817007594,-0.1660238145409507
9.532645374,2.283793243805374,0.804187647119277,2.860754456100918,5.465712711378698,0.3494868259106621,-0.17108178595398169
9.732718273,2.604403026569999,0.3253188601399333,2.753718170488505,5.011350779061629,0.33917705736703946,-0.19175704939242078
9.93269991,2.6282979577183414,-0.2490192107593588,2.7618177274320694,4.521619418846583,0.36160123320622833,-0.1918433407869205
10.132721886,2.459621915259371,-0.7182200538999276,2.6669503871937885,4.087139069433866,0.3698755862617357,-0.19707275025419616
10.332656188,1.9700404897173542,-1.069032676935769,2.7533492745841204,3.621520569767816,0.37919492012793693,-0.18904533149168648
10.532709285,1.4888747200402297,-1.2188253525193973,2.7968040384672777,3.180158001051324,0.39414939571899854,-0.19245258915547578
10.732647175,0.9316104342307514,-1.11920887945605,2.7659536257362287,2.698369688626473,0.380668534440046,-0.18930907328377958
10.93270276,0.5237362612169099,-0.7843971644516605,2.7444960747947613,2.253249273860436,0.3765916061716515,-0.18820202446863887
11.132685093,0.2821334246842343,-0.28623508233684813,2.829130187612769,1.8797717743011673,0.4351500570476193,-0.09982512903955867
11.332652744,0.0935010339830867,0.31129224012734263,3.0769589372377024,1.8054595154984203,0.37608949524416085,0.1188427481664812
11.532649226,-0.15740988305362932,0.8652504142276148,3.1328514669859033,2.1297664092292523,0.30458101819707595,0.22279483649981963
11.732698047,-0.561214801083389,1.2964732895641797,3.0540539858260516,2.58845754623624,0.34744234164154364,0.23834894010772908
11.932689166,-1.1284880468792484,1.4870648713305135,3.0447678904802293,3.1318302962501043,0.39573565900627966,0.2143241035863909
12.132688673,-1.7058828501398278,1.379411445049574,3.044309886357487,3.479684564141416,0.39899802950354574,0.20722825844917991
12.332626071,-2.2555450565360737,1.091352078559198,3.1015042660115313,3.9100707610977583,0.34589244011375914,0.21919364570512884
12.532672621,-2.593168917022117,0.5507291478829826,3.039614321813008,4.423537802825445,0.30321526355807554,0.21604062957222486
12.732726691,-2.6182265190459857,-0.027201909836203124,2.994585419151018,4.796675468842173,0.2991697817543442,0.22231229305209899
12.932640371,-2.4844681150517633,-0.5706192017788089,2.8436786522311435,5.287500527348691,0.27679003888284004,0.2371954756163506
13.132735948,-2.1009145024377127,-0.9494799405385914,2.7607749909437347,5.745559641222654,0.3128569482237162,0.24560915979590192
13.332640944,-1.5597179188807075,-1.1678797645188546,2.7605133824624564,6.1840063718449745,0.3767042787051986,0.25301390865711293
13.532710006,-1.0016378435407447,-1.0434237011064016,2.839966394985793,6.663146208108478,0.38739462796433966,0.24554243231941067
13.732668964,-0.5769274113092223,-0.7236908693846662,2.8829396674084795,7.124466583831415,0.37745407031993766,0.23707789701097448
13.932701305,-0.24804308605548414,-0.22655694820805583,3.031371674988935,7.4687269902471165,0.40090289120092487,0.08437515033831045
14.132726557,-0.008412997416311109,0.3610781412441565,3.154533008628309,7.313512105090774,0.3681535320853478,-0.10842356975207641
14.332748698,0.38457414583345023,0.8474185373229505,3.120247846215413,6.961769278044062,0.3552168159354961,-0.1627460372011661
14.532721444,0.9001710448980127,1.1502605052576182,2.9982465465529904,6.554039737929984,0.3648159867268483,-0.15862997765284484
14.732644931,1.4674111600264417,1.1803140945119044,2.940619097066457,6.119933597994326,0.3589327834865826,-0.16133786120627733
14.932701525,2.056192637217869,0.9797577032693496,2.9271190513351653,5.678054688144853,0.3530908899146441,-0.17713944504372425
15.132640472,2.4608001817263045,0.6057584584942582,2.810890822277814,5.247802293266671,0.34209626496543244,-0.1873421049724873
15.332680852,2.6078898552081364,0.09369644343001582,2.7350095412893896,4.820204057483221,0.3461957200295453,-0.19415509209174373
15.532723902,2.544300330868121,-0.4134110204909932,2.699758185182511,4.3695748980713836,0.3691742001626918,-0.2073173924453153
15.732700227,2.2569802069410594,-0.9157961983339716,2.708830649253233,3.8805892029575215,0.3919728690480684,-0.19682767500351336
15.932692424,1.758534817333932,-1.1842147413571231,2.743354921921409,3.4356054082656446,0.3844516716730719,-0.2008010508668839
16.132727596,1.2318426309869808,-1.1559175618024229,2.7609845795357035,2.9499482609679295,0.39612716155248184,-0.20098220062127245
16.332724348,0.7604035816089754,-0.9463079561050252,2.7693696374863532,2.4711999562442584,0.38779091116194514,-0.18930220757179442
16.532692428,0.3918699692201323,-0.5678763224620148,2.7595529917580666,2.058133934975282,0.39534416512917525,-0.18179463793621975
16.732698667,0.22256925259084614,-0.05773208864832932,2.983455229066011,1.7898515971215596,0.43798181292915284,0.02018255089680658
16.932643378,-0.011546373221095824,0.5435703797217861,3.1211866082628617,2.0017022470155332,0.3282024024942423,0.17644535898240782
17.13272318,-0.34307599289779417,1.0816598096047974,3.1565806883289107,2.3822650547990083,0.298669915185364,0.22453923685520172
17.332648376,-0.8626548741365739,1.3870936432480865,3.029329749894666,2.8937975294245795,0.36270721060256855,0.21702122844085822
17.532731734,-1.4601300921174318,1.4078785721846838,3.0638382851214043,3.303137131024196,0.38914298235130396,0.20744233200368642
17.732702626,-2.036067151022231,1.1874910415133748,3.1280796375629056,3.717545800463575,0.3669774522265059,0.20594424445903928
17.932713549,-2.4348150068902115,0.7590144153377698,3.0389268720883016,4.148664909112704,0.32428057127258775,0.20149678931258247
18.132748158,-2.605767062301209,0.16325706274280546,2.961362846952409,4.6455330645772355,0.2943488566113456,0.21069818435023005
18.332699285,-2.61604888247033,-0.32185272849878827,2.891686245661049,5.071822008408672,0.30419402547629376,0.2200657430061939
18.532646489,-2.274110774337972,-0.870690509229539,2.820792977598294,5.5550197965908295,0.2921471609559456,0.2311817598889283
18.732735962,-1.7765419245045657,-1.1107225709660096,2.8172660963968776,5.99305092945463,0.33525249803751206,0.23617466854094182
18.932696847,-1.230785881462098,-1.1700804118536328,2.8404862114286247,6.472711838939636,0.3826123200178034,0.23863465213249213
19.132679735,-0.7188854482106654,-0.920988599947633,2.9061685673756914,6.96921287635871,0.365878328572099,0.22649582287108927
19.332649089,-0.3336581631589027,-0.43029259346827947,2.971133907659917,7.399406283978612,0.3723319836944959,0.18827231483800655
19.532697566,-0.16268306743513306,0.12648653146724942,3.1048762450584926,7.4691338348299245,0.398657570955469,-0.052100879107499734
19.732649033,0.18320219340137556,0.6544359270468474,3.149415929450738,7.1657117219228565,0.35062255148792043,-0.14651427883729556
19.932654247,0.6619742513250412,1.0847104166229788,3.0707426775016793,6.793584506739668,0.3661958754632712,-0.16358549063307948
20.13264781,1.2014075965662068,1.2867629380276864,3.003886147009251,6.347318626221807,0.3721927820077421,-0.16468966455162962
20.332645741,1.7817140986559046,1.1691237411552597,2.93380369794558,5.91703638628876,0.35651573097651024,-0.1694980816551728
20.532640836,2.2483018561999235,0.8637130893427638,2.8138144548032367,5.50223993005277,0.34858064975785863,-0.1797930492555395
20.732639427,2.5590449236095982,0.37220095730447983,2.774023153246368,5.049806074482431,0.34619378187261,-0.19533456942232785
20.932703796,2.5931274471094667,-0.15131300461412073,2.7022332048102116,4.56806477248097,0.3612992892121455,-0.20008632119941672
21.132702526,2.421613753602371,-0.6345457130216826,2.7636515329558384,4.101509409307576,0.3908928200035852,-0.20456540705113266
21.332645404,2.0425141644777622,-1.0290919119737358,2.766460508071159,3.646633361464509,0.3853986048251797,-0.20238693045606942
21.532694969,1.5058743873280958,-1.1749642520601122,2.7554207828251864,3.146392376892465,0.39880539799520887,-0.20301208629609252
21.732647818,0.9813831396062435,-1.0824451247287272,2.7566136548024236,2.7640352024070403,0.41450734395828304,-0.20213656545905073
21.93271052,0.5230162999089684,-0.7573774160945648,2.742313327573554,2.267515883748261,0.3778178743360531,-0.1988004789119798
22.132745765,0.2805831945799231,-0.27318717292822375,2.8475077488502034,1.8869848296876357,0.4247054748912692,-0.10563133014469778
22.332651524,0.07153682699232608,0.2887338287975129,3.109541515116199,1.83324847615489,0.3738273942048514,0.1124060407133685
22.53270222,-0.19677798501361943,0.8850732771224762,3.1322225413803344,2.164393615709495,0.30038997510261534,0.21383362270909445
22.732687653,-0.6166600483533016,1.3019953527695147,3.0494499039331737,2.59513781327108,0.3378281740563965,0.22884784592738416
