time (sec),x position (m),y position (m),forward velocity (m/s),"heading angle (rad), from x-axis, positive is CCW",throttle (unitless; -1 to 1),steering angle (unitless; -1 to 1)
1.125339672,1.0351458159861886,0.48016671495616375,3.5334623186884304,0.5484765329648911,0.3523471019878397,-0.17251519324343756
1.325344707,1.6537348412880326,0.7971599166061375,3.3982237162298015,0.15189078847757254,0.27823222756000704,-0.18664395506541254
1.525362306,2.287393372495304,0.7694929475173249,3.131170367876877,-0.30204025239075544,0.28943402903677584,-0.20130808988773136
1.725344635,2.775041427560676,0.48306700391269214,3.0891520828124888,-0.686446928845059,0.3767076489185953,-0.2342290150980938
1.925364381,3.141841685196909,-0.06464509239257649,3.0950479974012897,-1.263762057043085,0.4516178327978617,-0.2383468346147468
2.125346618,3.2278337961846475,-0.720468573195159,3.212109516888598,-1.8153265660267728,0.46963903121567996,-0.23340370353695697
2.325350491,2.965256470556717,-1.3005064081769828,3.2962312925453956,-2.2315323006535777,0.5255265080743399,-0.21960900687303947
2.525343301,2.464730208650241,-1.7496923574977976,3.340900941360342,-2.6935428175884177,0.4780342472554318,-0.20757874580868774
2.7254374180000003,1.8382235436120187,-1.9282093575543588,3.3987854094659125,-3.113353127852709,0.44800171888553086,-0.19936439623600533
2.925348725,1.1563949894068202,-1.8784292008691872,3.4127314930064365,-3.5267170161887416,0.4100418239492111,-0.19688407293755322
3.125337725,0.5547919318329801,-1.4456289028771652,3.335272338518597,-4.005418296042637,0.408007381126923,-0.19374904225180745
3.3253925840000003,0.21868117328702985,-0.9077886705461646,3.523839254653828,-4.298462031220169,0.5468061108712177,-0.07317651233053779
3.525349849,-0.07507626429558872,-0.26633744363173006,3.832915073534509,-4.288230538733368,0.4160298196691082,0.06677952895598879
3.725354229,-0.4702982054967354,0.4129272569678698,3.8416532192869557,-4.05318969992083,0.24235481421783742,0.13351316835251845
3.925355695,-1.0345396804150255,0.9419944341633982,3.555744260173449,-3.5794401662941278,0.18370567077635788,0.16240718268404924
4.125340341,-1.660838865571455,1.1070974067051107,3.1424735341659185,-3.086921796648476,0.23633332842780527,0.15863031178989018
4.325346752,-2.238792410794853,1.0336958362225086,2.8382519540497193,-2.6593605025447866,0.07691107686225677,0.2625782641772394
4.525406746,-2.657076516979352,0.615012147694191,2.7940017789437843,-2.09103515966077,0.5307618982013599,0.1667698399184479
4.7253770280000005,-2.8648582379429315,0.07621582466151705,3.0716442717664636,-1.7079453734515744,0.4388544497002824,0.17875725230726056
4.925363958,-2.7933335632728515,-0.5672077469167585,3.165053092518078,-1.2590248155018724,0.39572007006931936,0.19693899808942722
5.125336041,-2.492603720518979,-1.106708209603894,3.1324383052663567,-0.7112369424790479,0.43563663839993466,0.198141311439548
5.325343866,-1.99360145749947,-1.4375212121533176,3.1897857762776916,-0.30119866162410314,0.45768212835773314,0.20300585305261643
5.52534805,-1.3653887976488899,-1.520895131816758,3.2536620945962107,0.10157074550287842,0.4597054986697994,0.19843545345328173
5.725392951,-0.7044718894790782,-1.3815661052129369,3.2744958124826526,0.5644046450581927,0.40289517271174385,0.18242654378080833
5.925360727,-0.27877171027941394,-0.8841147666858614,3.2745769386705987,0.9794999278981759,0.4240448488587739,0.17398299061570519
6.1253364359999996,0.0503816191530462,-0.26462484141113224,3.443304068589483,1.2654099280637479,0.5488219855899156,-0.018720937810906405
6.325409377,0.2999535664003479,0.37029699611469913,3.6751655244879378,1.1326171794037065,0.41919290493591815,-0.13365907937555757
6.525358968,0.6875105251731859,0.9753293205624286,3.60031731065246,0.7633872318851112,0.32539638688114436,-0.16837773015460897
6.725419938,1.2762112780059052,1.3455293488734343,3.4361620364385335,0.2924913100148022,0.3308235710355378,-0.18226835048620232
6.925348033,1.889111716591847,1.4024175027652235,3.324618759219032,-0.1555581268150883,0.35562117931579895,-0.20177162619409064
7.125442078,2.557742906822507,1.2006487383585418,3.255624796107801,-0.5953390049678093,0.4193679326105838,-0.21617871649590434
7.325364694,3.0123135467505047,0.7566259099558856,3.2877023720542016,-1.0292485089498462,0.4445310323148104,-0.22444821052900218
7.525355971,3.2177095211472135,0.15867608069341982,3.291758610746457,-1.5136023952637943,0.45193416002478937,-0.215823440204868
7.72543704,3.0894383339571427,-0.48447300237017016,3.399982848839568,-1.975586848082088,0.5048485757362247,-0.21450507284466136
7.925368079,2.7704526953079007,-1.0664062862405452,3.40770469300975,-2.419086516332989,0.46531215549437344,-0.20280266662856888
8.125336238,2.142501206078331,-1.4013744469030032,3.4049388555334863,-2.8760859724323624,0.42796758956831604,-0.19986578029682128
8.325347076,1.4820394589236572,-1.5177075669581366,3.375864102119544,-3.305848238237534,0.38346440470128634,-0.1984796424723568
8.525345537,0.8823432880085096,-1.3256964101755861,3.305867900150729,-3.6961022871105964,0.36283913063849826,-0.20107891113434637
8.725345397,0.3695230866856845,-0.8717327227214301,3.3165282472675046,-4.1155315300092195,0.43996842312766954,-0.1705275280162496
8.925347327,0.0882519299816058,-0.2659242804780587,3.605273136418515,-4.281779260909836,0.48652153899169087,8.507574179937669e-5
9.125337338,-0.3060088906159127,0.4255177493588848,3.797720732841491,-4.167245640287774,0.31339814916557673,0.10099432245826216
9.325350649,-0.7665022847314895,0.9438777283606474,3.6918850771485303,-3.8001624832676146,0.19847429790615542,0.15283112789748632
9.525348712,-1.4139173832833234,1.2855173257925152,3.3182946893153678,-3.3494208239063408,0.20571287946723169,0.1686417053904449
9.725450031,-2.0025195272089977,1.3307186292255524,3.1127782288855768,-2.8352867741898433,0.2998529227804492,0.16805713064048627
9.92544117,-2.5411264086300873,1.0841184784480211,3.0805016375437018,-2.4178958904839662,0.39915823341814566,0.18831466715806663
10.125335498,-2.945485687075457,0.5254414422922196,3.1136928898243745,-1.9836237318619476,0.4164117177335039,0.19694486783658732
10.325347023,-3.016447404762961,-0.054120361927088266,3.084588581301791,-1.5073708088624327,0.4252132309904441,0.1920700609060708
10.525352833,-2.8535589934558816,-0.693820403925487,3.2144767945081263,-1.0586755143616986,0.456641197961077,0.19349402851428907
10.725343176,-2.445707677001568,-1.1486704230085236,3.255655375142675,-0.6260191519023605,0.4427510235565995,0.20637313548541666
10.925371182,-1.8451290583623072,-1.4231390688250214,3.2927486350654402,-0.14392266769108253,0.4593510791160511,0.20779471296416363
11.125333871,-1.1822221733489267,-1.3605238991527708,3.3168857969490833,0.2820726291567261,0.4272584267917479,0.183031090705862
11.325358604,-0.6264686024478084,-1.0949435569009625,3.27345314419924,0.7255473601475334,0.3947493654901807,0.1923462696773427
11.525423570000001,-0.26949702886796817,-0.5630565179960105,3.3398997684763074,1.1414860325985827,0.4780764661200076,0.09578680502660081
11.725359794,0.02306360286350801,0.07835481371642511,3.6252601185946474,1.175235740922569,0.48873059575605654,-0.06558863161402954
11.925350008,0.3657539296716856,0.7294091773184298,3.6929663972786893,0.9438439593854056,0.3612162037456634,-0.15569836412328097
12.125336549,0.880745410899959,1.2522072258298622,3.5556985863543713,0.5169437198267095,0.31842640132580646,-0.18674241796470806
12.325346644,1.5095864912559414,1.5322284871190777,3.4578314456866024,0.11525616471002315,0.3375566778298475,-0.19752391618344034
12.525343234,2.202818035799455,1.5045796799110869,3.312709430364872,-0.3123494412069329,0.36791181099905335,-0.20576338157007393
12.725406328,2.726284053819804,1.0995029542204429,3.28466439101683,-0.8127098410301707,0.42802534248287316,-0.23092693339255882
12.92535045,3.087841591572134,0.5718117641056069,3.3336813371811016,-1.2422411073020687,0.4572739573301832,-0.22813849289133747
13.12533656,3.2028874800733336,-0.08803011247131241,3.3718453346765918,-1.7503054527411042,0.48088402724186924,-0.22449878480977628
13.325361381,2.9646286191508056,-0.6660987697365062,3.4273453877771405,-2.1031928258086157,0.48386263812548386,-0.22208352807318252
13.525353968,2.5345095095381622,-1.2141495290266822,3.440399542139599,-2.5832987584328846,0.4481524159791996,-0.2071594323503275
13.72536184,1.8782723416108313,-1.447942349454284,3.4358977346931154,-3.0306280789106252,0.3839162163190106,-0.1978590903065294
13.925354456,1.2291858403180043,-1.4036212803100856,3.3799720095042476,-3.4632805027894165,0.3626081946860977,-0.2010409391658533
14.125337307,0.6077688961730571,-1.106012584432784,3.261674260056553,-3.918938095432373,0.37416066705507545,-0.20300344457330366
14.325435159,0.2513002469793617,-0.6023919967124639,3.451720122544158,-4.245228881377247,0.488530477021798,-0.10153097527493532
14.525356115,-0.11760420436028356,0.04615274375158344,3.7361145184446416,-4.232886359733743,0.4212597068408661,0.05360345125921796
14.725341735,-0.5229853212458107,0.6699669064773747,3.784918963216285,-3.9825607815243393,0.24804620002329283,0.11893577114887374
14.925347644,-1.0496361129209464,1.140103626082572,3.491927506724153,-3.5965015572621843,0.17320207521659706,0.15897188265174805
15.125340508,-1.7589487311784713,1.2835982440728628,3.1727313858289636,-3.093293686297654,0.25800868100140173,0.1546888143241777
15.325358607,-2.294979150622724,1.1643295935027043,3.090841552812758,-2.6170123514383046,0.330792790977565,0.18254341886406375
15.525360684,-2.7637507841198916,0.7684509087156847,3.041861996013965,-2.177479165995412,0.4132304997395299,0.18883532410380968
15.725346074,-3.0149283887637592,0.22336772988434075,3.0768022630410314,-1.746327075168162,0.44413883843506274,0.18615297078791526
15.925343875,-2.9988039988180915,-0.41240773585750345,3.18576461752385,-1.24565065093668,0.4165292916884966,0.19875029101165595
16.125339086,-2.6842819967694864,-0.9809722470782457,3.2058196872369655,-0.8097193875406252,0.45853914070673185,0.20415935599440166
16.325339125,-2.1523516525306854,-1.3622388786548576,3.260924114323755,-0.36566611745277505,0.46740800335726085,0.20507421741109166
16.525419471,-1.4926095954021357,-1.4502425898989433,3.2996987724417988,0.11644851812799009,0.44395276270683715,0.19512834402991544
16.725347002,-0.8742936247335056,-1.2773283195008642,3.2724802019155863,0.5402288860598252,0.42285299691859857,0.1798686691891577
16.925360837,-0.44472989471959196,-0.8621907838880482,3.2830740619160195,0.987114022451331,0.425668036231844,0.15741317902048316
17.125397782,-0.11191792330280904,-0.20855799841308306,3.5062651348207425,1.2141410140022189,0.4960421411138799,0.0017851020404640212
17.325358947,0.14622959045742367,0.44686422455033636,3.673526822430279,1.0514255666999306,0.4335849936842013,-0.12859775609155102
17.525371107,0.5866745083167195,1.0289667890762588,3.6227960927950362,0.7266854363685707,0.33873785365005116,-0.1693057643508407
17.725349119,1.1443997860126254,1.41377037120931,3.464646975166355,0.2870838927597892,0.32331234293623246,-0.17637189212317253
17.925362363,1.8344785110520814,1.5138921544993096,3.380465109100004,-0.13588795901385547,0.36628758587170057,-0.1961792327354091
18.125335264,2.477734641058412,1.2956840427782692,3.2981916196104764,-0.6197537884183307,0.4056858798430261,-0.21140368204662063
18.325367941,2.928266480978522,0.8571604678054483,3.2568426698734636,-1.006432838166955,0.44270493037736564,-0.20907447973903212
18.525366896,3.0973974419935137,0.23379824259360898,3.329047085751061,-1.480294183271746,0.4631838509723536,-0.21620592469559755
18.725364304,3.053836800394805,-0.45356149368616966,3.3643432801913162,-1.9485470736814126,0.46704230340948855,-0.21569623832705243
18.925354786,2.702442074398944,-1.044918778436233,3.359651524035063,-2.388269116804282,0.4574539952050283,-0.19814935714178403
19.125339068,2.0671890246211695,-1.346039887556272,3.419322446336933,-2.83307060079799,0.4479656417871789,-0.2009192687993977
19.325354889,1.464040719138047,-1.4742173608013083,3.378655271253657,-3.2254001419147587,0.36640927714614246,-0.1905002187887733
19.52535451,0.7934206766555182,-1.3016158348332125,3.282703655092064,-3.6756634085268294,0.360871190683432,-0.20046932636479056
19.725370032,0.3818259479926644,-0.8712128029636927,3.2534068771417015,-4.165791313779116,0.4225262796140229,-0.19130419261412795
19.925374532,0.026828575935342602,-0.19373600912838088,3.6127087670017466,-4.299531569893044,0.4866912169871705,0.015290940020448918
20.125335654,-0.34594939714764816,0.4394159930573692,3.780943740733322,-4.1492380894955865,0.3205551241641611,0.10532822444848378
20.325346731,-0.7572660307014034,1.0001933914811656,3.6795871907893494,-3.8047589588475956,0.20808885695953255,0.1505874109298445
20.52534656,-1.3602462768376236,1.348899057631442,3.3205260594862653,-3.3249085752369703,0.201405007979966,0.17278034177276225
20.725345494,-1.9815135281567522,1.3411823085629695,3.0727050455285907,-2.8608223514299724,0.3208600705069622,0.16684657150655108
20.925359274,-2.4901890763517036,1.0638462781753844,2.726901912112892,-2.3233969793469664,0.3257385141605074,0.24012313194596455
21.12533824,-2.786868091099349,0.5761688151320512,3.0830245077462837,-1.892930602921907,0.5351848184890914,0.16443264950221512
21.325347772,-2.8820097591460296,-0.045819346920717804,3.2848277012111,-1.5017822859646155,0.442262987561442,0.1860329113639378
21.525358853,-2.7017813752481556,-0.6614550157005904,3.245726936647028,-1.0025156575603262,0.39274922704541204,0.1953325911811129
21.725351107,-2.2785854776439916,-1.1112825629422212,3.1897708236273608,-0.5532141666459233,0.4544833442980531,0.19371247287848398
21.925360703,-1.71033000940252,-1.37334060833531,3.28031527438696,-0.11364978525315014,0.44329097650121585,0.18859804639895042
22.125337873,-1.0425531121085627,-1.327842204954818,3.2634046344825642,0.3512777058541482,0.4162773573802647,0.19001682062961392
22.32534902,-0.4825810842692929,-1.0467652694285432,3.2002351317066937,0.7647170405326466,0.41340888253567226,0.18318806158333417
22.525346206000002,-0.11417480218225987,-0.43093410642299446,3.3138253501807724,1.2060935497695202,0.47010958108153195,0.10794467997291053
22.725348258,0.1090187364926114,0.15538005007982736,3.5265093602295434,1.2108000395393654,0.4828372018661513,-0.08601315064581143
