time (sec),x position (m),y position (m),forward velocity (m/s),"heading angle (rad), from x-axis, positive is CCW",throttle (unitless; -1 to 1),steering angle (unitless; -1 to 1)
1.124914719,1.3197042459423103,0.8603567534245615,2.705739412257804,-0.36619200733607754,0.44517993126517874,-0.2369352443137456
1.324979998,1.7659949241143311,0.544678965588491,2.8525216201927526,-0.7587288206617945,0.3481333604468684,-0.2181464658121069
1.5249135310000002,2.086289346895801,0.11561819738476366,2.7472923645813916,-1.1888442745154568,0.2916780506445651,-0.23643661481428133
1.7249161480000001,2.153776517126336,-0.4571791458295142,2.6801275096506476,-1.671952146417936,0.2897671332618845,-0.24812030212998762
1.92491748,1.9847992914477448,-0.9483756765660839,2.641900228337206,-2.129949789086526,0.29883431629730317,-0.2508267320529497
2.124916045,1.5484307273539595,-1.2998673306563135,2.6352450842968262,-2.587938602312054,0.3189097525177068,-0.2632415034933234
2.324933097,1.0612128528007978,-1.4594386130259502,2.6699934807321988,-3.0758054355811235,0.3627768589944755,-0.2753669103711372
2.524915966,0.5867471026120343,-1.3112379952950735,2.6857028798141225,-3.571730245071511,0.3761408925334351,-0.2553696653213153
2.724926552,0.17312438771564237,-1.0281687005777755,2.7271383011058976,-4.0607818330074785,0.3952264372973602,-0.24324257162252216
2.924916318,-0.0688375827679451,-0.4301311515299185,2.9283820252097024,-4.3623411584318506,0.3926624840642605,-0.08358435948660468
3.124918263,-0.3185425880202663,0.1283950342824466,3.1342507458731568,-4.348144209831907,0.2911803854600845,0.10370038221634365
3.32491431,-0.5934078757003801,0.6513089554740941,3.0719845847546408,-4.040395128740806,0.2431805763357729,0.20234172439993547
3.524918243,-1.0538912342305755,1.078730222978169,2.9535781946315582,-3.5740929707174116,0.2792271188237591,0.2400332759232244
3.72491675,-1.5705495199673059,1.1857955981721526,2.8494710819539435,-3.111541616095325,0.3065100662566115,0.23677100120127823
3.924918072,-2.1006126542008605,1.0682784001547163,2.7857022396072226,-2.667438347509533,0.33188551200050453,0.24537739218762744
4.124917825,-2.5639837315366156,0.7019945765573239,2.8310679518217894,-2.266176933483025,0.35368768216818675,0.24368894564652696
4.324916964,-2.789923347747706,0.1366195500727301,2.792397357918675,-1.8102493036452711,0.3455637572205622,0.2639173240861026
4.524915937,-2.798763492684474,-0.3269015476512492,2.846749456341055,-1.3234513453666992,0.3669666473367048,0.2568951376959205
4.72491831,-2.587369248924551,-0.8215298925210502,2.821923875295081,-0.8394666064357443,0.3652248588360618,0.2498707148641046
4.924916886,-2.1561290942901303,-1.1909697581361982,2.829952524996046,-0.4172803077276802,0.3594762632403069,0.25367822123245604
5.124918327,-1.5921676665607851,-1.2580500230254446,2.887958604654164,-0.006979560209910017,0.3516727889095313,0.25060880776485084
5.324941029,-1.0365622590092711,-1.2118656661208334,2.85846041158992,0.47015969840618527,0.3733371034214187,0.25852123505337365
5.524916447,-0.6367645007153907,-0.8406572148701703,2.834012291522494,0.9210435318137369,0.35480541485199985,0.2541659834866381
5.724967201,-0.3415676160816862,-0.2975796583197744,2.971522225191307,1.2968780940542148,0.39148278667368885,0.06311928110452682
5.924916071,-0.12336212553616722,0.2807911544519387,3.0725747581576766,1.1699265537562686,0.36788691578205,-0.1572446660682719
6.124927307,0.20310482912510894,0.7663553265495036,3.005624771250572,0.7550756270303369,0.30430601916183014,-0.24212150285383852
6.324994082,0.6884100668735886,1.080436595329713,2.928157430756058,0.2668247325169229,0.3536057403701455,-0.22086457747552202
6.524943506,1.2832782929686097,1.0843682628727922,2.9285088572741476,-0.13552025321054553,0.3490871511460898,-0.20456915275876902
6.724919079,1.8386531825233199,0.8795703276843665,2.8893205151582326,-0.6126665453323329,0.32664832786767045,-0.19257371933537754
6.924915578,2.1918969075675188,0.46418798390165467,2.831761836129553,-1.0299919248757679,0.2935692696734946,-0.23776572416405123
7.124916832,2.4065056628063175,-0.04247197334663098,2.796512244319604,-1.510572784524292,0.316053710964714,-0.23465234029907964
7.324918744,2.2862618739460547,-0.5778796817926798,2.73295064519026,-1.9465818955007117,0.30445679794015273,-0.23976590668257858
7.524932046,1.9543513426072476,-1.074294452836805,2.740486879134689,-2.432024322877796,0.3284062441211778,-0.24014444911962834
7.725001806,1.510525524272612,-1.263958653823264,2.7005902809192697,-2.917430795010364,0.3278126026077346,-0.24318262921022352
7.924914345,0.9651946322828667,-1.2803536624236995,2.737663945853941,-3.3331867816303506,0.3371511640005944,-0.2529899672862373
8.124962443,0.44723880713182207,-1.050766295569135,2.7149135502074735,-3.841787846904968,0.37073632832232084,-0.23528198376661327
8.324914697,0.16913194117028357,-0.6500470545486754,2.8087746020965727,-4.267015434551472,0.38803994207562803,-0.1765830801676188
8.524917377,-0.04366381864674887,-0.04791789384779343,3.034703002003784,-4.363937826379758,0.35066708760401455,0.03565593087997876
8.72491647,-0.29878392879201937,0.5002993429574915,3.0935098866149078,-4.177217328829298,0.2802268936137723,0.16641483944240298
8.924928761,-0.669209172807411,0.9619161059280369,3.0207240589458952,-3.7727448790484464,0.2544274493140445,0.22967408824019958
9.12493167,-1.1844538630868462,1.2464109218771229,2.8928690107308412,-3.31309869223194,0.31136732723201144,0.2266302892221428
9.324918253,-1.7556624250507946,1.2616998531564902,2.847580624509372,-2.876155242164704,0.33247906720270437,0.23279027563388963
9.524917555,-2.2770423567101474,0.9747942211535716,2.8304500958681023,-2.447404702447739,0.33673935847873726,0.24541581740084942
9.724918224,-2.607614212391955,0.5742524739092395,2.8504232260901206,-2.0296071543722207,0.3568733321526039,0.2531990240476148
9.924916296,-2.7838200099793835,0.017255238199169725,2.8404131858196306,-1.5672260761145642,0.3446320339626783,0.2568657833252315
10.124917372,-2.6733438114264105,-0.545246385128678,2.8485891185192163,-1.120456160971288,0.3611862046074207,0.2571543220122133
10.324915725,-2.3056996845608597,-0.9728238090705051,2.837484474099302,-0.6634219228927174,0.3650159421217603,0.2443001009703307
10.524913852000001,-1.810018047466356,-1.2197630026436876,2.8520841389787845,-0.22052335634168513,0.34947673050813444,0.2571722313444273
10.724914669,-1.2417398254859717,-1.1860228625726428,2.80944359246402,0.24392498928737621,0.35756095871521487,0.26254338748693684
10.924933867,-0.7708979409433929,-1.0370333587520175,2.82528814048082,0.6915077677107963,0.36406271069768353,0.25210185485928427
11.124916839,-0.3875201933042165,-0.5288385143802119,2.8903433489661317,1.1623390310824337,0.3859542845162456,0.16062639850429902
11.3249168,-0.16709625599738895,0.0025618886221903912,3.025652635489905,1.17483874202471,0.3804288128741326,-0.06908142341536808
11.524914981,0.13888515973590074,0.533539542260073,3.0865323287433952,0.9059775376825291,0.30505072211394224,-0.18319423088957004
11.724924906,0.5962651978787676,0.9304037394194746,3.01277033285741,0.45966465975080584,0.3021408533895112,-0.20374497636507044
11.924919417,1.1691942217274829,1.0807775023482373,2.9440377499662005,0.049871383353592966,0.32141020837306383,-0.20580656709781614
12.124914848,1.7241970599916692,0.9688409100857877,2.8950250184210327,-0.4262267469403458,0.31382568173036196,-0.20488139979334719
12.324980002,2.17784897493912,0.6015831008386663,2.8519710584242883,-0.8274166849430866,0.30442278853369265,-0.22180261970132545
12.524919251,2.4352229442723536,0.1398144928800746,2.7309520893452923,-1.3293118908486667,0.30947127873700553,-0.2145887224096158
12.7249138,2.453833695685953,-0.4109478190786185,2.7855210307551834,-1.7935558371246858,0.30010731997465656,-0.22051312474396242
12.924925948,2.2242207800055818,-0.9059148762816799,2.727235089976613,-2.2312275202917724,0.323920010236728,-0.22934237733404242
13.124913136,1.817692054321137,-1.2514010141798628,2.7326096316506394,-2.679524583810617,0.3593604670751333,-0.24545740696545745
13.32491589,1.2558180661761416,-1.3602760376501712,2.777622165839841,-3.170025226230875,0.3363353578840692,-0.2303543078768829
13.524942946,0.7797263273283549,-1.1908808905925483,2.7693305742270207,-3.5950540282928127,0.3491717009369013,-0.2393557317975384
13.72493947,0.37219677630316345,-0.8800719068193451,2.7333928257119027,-4.1118505355333035,0.3920483227397067,-0.23151538273068822
13.924946156,0.07951490251163944,-0.33625408025137604,2.903321371598906,-4.40620913149185,0.3741103685533364,-0.07683470894630463
14.125015812000001,-0.0507470710322239,0.2502495298683488,3.1302462730618954,-4.330650207958209,0.3055046110131754,0.13248394888410092
14.324918601,-0.4159888500511608,0.7387949732036125,3.072445127543673,-4.004149392507492,0.2618381869557882,0.21642162377675347
14.524914539000001,-0.8484713330591098,1.1719278857290227,2.9411038079339282,-3.562077718378962,0.2775931164296104,0.23265984110667345
14.725005778,-1.4300005329702927,1.2861165233539869,2.873317225863388,-3.1270019418732136,0.3325469791565705,0.23323905285030047
14.924928948,-1.947755054512386,1.1560570006295638,2.883445447392514,-2.6991345710536088,0.33990051052992976,0.23813558355188247
15.12492808,-2.398051658225967,0.7819401708707908,2.863207822280371,-2.240643156474922,0.33747747112503185,0.23905140005467584
15.324916396,-2.6686591708429295,0.24414477650935804,2.8753238410392137,-1.8028763429334154,0.3460980382439588,0.2536770610132279
15.524918769,-2.68717246882694,-0.21970297688040005,2.840020975496421,-1.3569357937547855,0.3364654844683473,0.25559033391730623
15.724913761,-2.4386165960696156,-0.7363310085857049,2.7984943295316795,-0.8730666702746243,0.3494796395649511,0.2513916094054698
15.924917006,-2.0268238239887224,-1.1288387046218535,2.8557489989492377,-0.41397430070197216,0.36746384946573835,0.256583969786385
16.124920428,-1.5121258679039775,-1.2324491072507973,2.8474269382466373,-0.010565623307757399,0.34536290907682876,0.2609456720571447
16.32501961,-0.9384879868670722,-1.1350123551811602,2.8543677034205253,0.47081397020241317,0.3525795154401421,0.259042927359201
16.524917346,-0.5027613678284556,-0.7579381665857067,2.839161847748557,0.9182703112828563,0.3690145761449142,0.23276467302571685
16.724914331,-0.23011938382743613,-0.23258847453187714,2.9961963207736937,1.1752682886322308,0.37064227960863794,0.03920747617124237
16.924945593,0.030657030873243174,0.31460504473511486,3.082822748612631,1.0915621523267507,0.31599816061095887,-0.13997611020261042
17.12493017,0.4124188283395105,0.7867164086835092,3.0775878658543947,0.7132015867687339,0.294311720927259,-0.21100969570430708
17.324916545,0.9246340397631836,1.1197093794320372,2.929711952841052,0.2532698403059682,0.31548143578110455,-0.21930082001573817
17.524921665,1.5271177000455465,1.0619439316403243,2.89213337819833,-0.18000241658470925,0.33581510280321686,-0.20921274789793157
17.724916045,2.0261538133413928,0.8690677644230809,2.875526370364038,-0.6336080009145654,0.308381278656032,-0.20405811576567007
17.924939247,2.4136023998365292,0.4571247196056863,2.8486972934181534,-1.022931664901786,0.29649061672922583,-0.21905012138082952
18.124945238,2.556983866312697,-0.07158427210623726,2.816654835754645,-1.489361162417785,0.317048211355226,-0.23973979911280394
18.324921575,2.414917624303233,-0.6327107318547784,2.758264392164293,-1.985958805546904,0.3112780744309774,-0.23274499173726504
18.524914075,2.100930750037808,-1.052485040677002,2.7585430196877656,-2.4083475782034633,0.3236919122743966,-0.22389948239881227
18.724918953,1.612230152790697,-1.2759186413954053,2.7900269872094667,-2.943798403095742,0.35228199072048677,-0.23331310559276794
18.924915528,1.0658848029966805,-1.2870568436906717,2.7668673033873104,-3.329206102934762,0.3358694007955904,-0.23457736587352937
19.125063094,0.6254284276325933,-1.0819661774893259,2.7822926824344796,-3.8236055010614787,0.34799469537669836,-0.23564447109177325
19.324916118,0.2780532592670599,-0.6185151071099847,2.7837419014519558,-4.292512136157515,0.3765131001927991,-0.23405821203405192
19.524917579,0.05280715035181981,-0.07492373175726255,3.116555896019266,-4.391650827050191,0.3473546285892515,0.0454204379829587
19.724921189,-0.24941575580913689,0.46957268299739174,3.1076274101772188,-4.148563311721317,0.2738141249293081,0.16877755320095922
19.924916369,-0.5735982611529477,0.9757724233276444,3.095837792630446,-3.818610264102387,0.27039423040662675,0.2218591811291982
20.124916527,-1.1349476778585437,1.2603033194459792,2.9262240748840065,-3.327734937227326,0.2932323840569461,0.23119170944057763
20.324945179,-1.6920244059173224,1.2911273517694577,2.8800722909327967,-2.9121099414230405,0.333261215836928,0.23423562317840127
20.524917742,-2.199589442491103,0.9934683561657156,2.8941932648425444,-2.4840024175829662,0.3371740650267687,0.23759637053214033
20.724916656,-2.5669115489810626,0.5199787225919764,2.8629551340291473,-1.9666334084027304,0.32954290097208927,0.24031684529578806
20.924933158,-2.6991914412733493,0.006735452212216516,2.8539243871585964,-1.5518418380137904,0.3311875415694249,0.251205766352241
21.124923192,-2.6176295612043807,-0.5065008167449427,2.824377417503706,-1.1329236743698428,0.3504548592040253,0.24096229753355847
21.324928143,-2.2646771953193725,-0.9734903640744915,2.8217910984423935,-0.6811544121572868,0.34796647654733665,0.25410445410547833
21.524918239,-1.762878227832651,-1.215353943489115,2.828341684959645,-0.2158926042226036,0.35037189938834806,0.2697829711007952
21.724914672,-1.1816994564375565,-1.2079201260765844,2.8633250739150866,0.29061810812369204,0.3773278359367372,0.26346126751794696
21.924933315,-0.707197858721833,-0.9867505787162039,2.8275556892200187,0.7388672749744793,0.34657595758660664,0.2549458286891964
22.124916261,-0.3446610944387822,-0.5513496599334591,2.932093110960653,1.0822519314044705,0.38329676898718035,0.17516347038849056
22.324915999,-0.0827074616325599,0.03064320972076204,3.0865612171211034,1.1786784886105615,0.3416680816260006,-0.051085238395951214
22.524920305,0.20048992318133418,0.5796062807108182,3.090842018643784,0.873319693389406,0.283964011006496,-0.18066795943614522
22.724921468,0.6592768872254331,0.9047757447481078,2.9823839610032317,0.507864012084378,0.30227413347316123,-0.20925838894751736
22.924930331,1.2381956430166328,1.059925939475948,2.898817618991118,0.07004978215048163,0.3070714075052766,-0.20860720868232538
