time (sec),x position (m),y position (m),forward velocity (m/s),"heading angle (rad), from x-axis, positive is CCW",throttle (unitless; -1 to 1),steering angle (unitless; -1 to 1)
0.131054801,2.9726608583059897,0.03904375418839479,0.0005026594377552503,-1.5534350067287614,0.75,-0.6830161405438506
0.15109518,2.9726613867096683,0.03895898138747532,0.00787770097030794,-1.5536805901783133,0.33132690374031576,-0.046443853856682094
0.17109421200000002,2.9729164368462846,0.037199672419973705,0.12069696395012401,-1.5532220113439306,0.519089081130428,-0.06666817442894257
0.19105402600000002,2.9733773890536295,0.031595471767486005,0.33242628241428224,-1.5524818367792297,0.711364047152459,-0.0756650954572351
0.21111083400000002,2.9734883153820784,0.023023643061518082,0.4675432509458554,-1.5542889118511523,0.75,-0.08071461637032604
0.23105731200000001,2.9734464533629916,0.011606735645219671,0.6113977642511097,-1.55798777616763,0.75,-0.08394727558471837
0.25105087400000003,2.9731975079348083,-0.0031353344245232187,0.785286802556894,-1.563036472422611,0.75,-0.0861951160650218
0.271050658,2.972788165882901,-0.021535906716199312,0.9651389172186895,-1.5700674184844852,0.75,-0.08777904262096188
0.29106138800000003,2.9719477456726473,-0.043105919889402274,1.1138065325883437,-1.5814001546705942,0.75,-0.10775068712545832
0.311072807,2.9702876623645285,-0.06835876960435429,1.3003878683775796,-1.5974832907476901,0.75,-0.12316401078631203
0.33105486100000003,2.967774724250713,-0.09647984889640106,1.4358875648047382,-1.6195513950894913,0.75,-0.13790451648739235
0.35107696400000005,2.9645666116662643,-0.12817609246637965,1.6272500768493843,-1.6432633561175376,0.75,-0.15200146132693373
0.371121219,2.959982025779467,-0.162847127594674,1.7901004370571176,-1.6723400459717739,0.75,-0.16572128424537963
0.39105758,2.9537694461389687,-0.19999796957954039,1.93454720116472,-1.7057358020140816,0.75,-0.17878092899685233
0.41105470400000005,2.9455391323547206,-0.2402135813435887,2.0846087253967522,-1.7409122120455212,0.75,-0.19032648116929737
0.431053887,2.935390585558404,-0.28236862416761493,2.2061865840166752,-1.77826554568747,0.75,-0.19029488571046568
0.45105658600000004,2.9230002060174285,-0.32679279232209596,2.339410210937667,-1.8164633717119025,0.75,-0.19774972969524252
0.47105439400000004,2.9082970245436957,-0.37271972754967525,2.4447048068265027,-1.8560401652395657,0.75,-0.20474012883473727
0.49106254600000004,2.89113962565697,-0.4201902353587643,2.5428455090721256,-1.899362172801007,0.75,-0.20990652421042422
0.5110552380000001,2.8715437616228527,-0.4688432915699455,2.6383117551068924,-1.9432898388436968,0.7476015702565656,-0.21345008008491342
0.531112885,2.8494511747014197,-0.5181725997384803,2.712295468208108,-1.9860954329493565,0.7054883589756946,-0.21632010478936853
0.5511136440000001,2.825230498462018,-0.567843626663131,2.778994499019769,-2.031398487632387,0.6766510933421924,-0.21827205206764344
0.5710990840000001,2.7981506021564906,-0.6176934499848163,2.8412305106841207,-2.073598798791413,0.6451324755114397,-0.21755132807810323
0.591054191,2.7687057291705495,-0.6671411556815935,2.8814974855677393,-2.1174898750048525,0.6070007108306695,-0.21798804474272407
0.611078976,2.7368513360296935,-0.715476845729539,2.9008224347906104,-2.164510660800821,0.5736774115887276,-0.21722044308533392
0.631052554,2.7027913546847477,-0.7629615172509931,2.9351064659530666,-2.2119260163868453,0.5435061540635522,-0.21625404413669172
0.6510915260000001,2.6663462297245797,-0.809326612979233,2.972271986729735,-2.258024616415898,0.5238200132895845,-0.21567425590313802
0.671059266,2.6276289791308276,-0.8542501038030544,2.9470557310118743,-2.308040548270676,0.5091711292272696,-0.21413294037791167
0.691066693,2.5870531283144755,-0.8979462312608424,2.9738739889871213,-2.3566088639959704,0.4983947263757271,-0.21350683695670672
0.711058099,2.543966672257588,-0.9395111380294114,2.995306762411922,-2.4047943042750455,0.4977894838993295,-0.20879826952422686
0.731050968,2.498968026274822,-0.9796742131020076,3.018310713621739,-2.4525431932678363,0.4869327502062813,-0.20736089694505822
0.751090817,2.45200864508644,-1.017759655751034,3.0312926688772945,-2.5002584070607523,0.4729070208553939,-0.20586957409469114
0.7711130190000001,2.4032897784542175,-1.0540037981055563,3.03878197148523,-2.5474177414739496,0.46041146928501503,-0.20492806191200266
0.791134721,2.352542149182806,-1.0882294306644187,3.0626516003200317,-2.591984885357705,0.47443231820750703,-0.20261134381874335
0.811055693,2.3004123691323026,-1.1202759389037436,3.0710897878350547,-2.637335206816592,0.47127402856540185,-0.20078066562242886
0.8310517070000001,2.2466901832477664,-1.1501207595496994,3.0703176298293657,-2.682249088163923,0.4728008865665211,-0.19895353935963558
0.8510727920000001,2.1913093726066393,-1.1780424935362357,3.108717844162766,-2.722510312497244,0.47008769066917694,-0.1973550380022036
0.8711222310000001,2.1347828064547034,-1.2035808808908417,3.1055756633904856,-2.7653916425280918,0.45661671115501956,-0.19536863702916196
0.891070633,2.0771503432246634,-1.2267130971298326,3.1057873761536148,-2.8082143791062535,0.44772465886707197,-0.19374660841737334
0.911054248,2.0184380752792754,-1.2474432085741298,3.1030063625727817,-2.849911926876857,0.4350728540548911,-0.19314714353396073
0.931053655,1.9588215949229029,-1.2653053336781255,3.120810458682254,-2.8932746698909635,0.43091862906259976,-0.192306516640961
0.951057472,1.8984717489777012,-1.2811008210379573,3.1241100129077886,-2.9379560604909005,0.43294520072580334,-0.1917113824422229
0.9710578280000001,1.8372677272945037,-1.2943811846228024,3.146529005965493,-2.9810277661927564,0.4226871289039715,-0.19272757418259626
0.9911181480000001,1.7754737227753072,-1.3049014687937261,3.127407841782134,-3.023205698384821,0.43105813449889746,-0.19281686865073708
1.011061551,1.7135294269691097,-1.3123521870327226,3.1231200351166573,-3.068992765623561,0.44078887914562864,-0.1927565090259142
1.031055812,1.651230568993534,-1.3174250477319043,3.135131524867431,-3.1137142678162637,0.40695446480163733,-0.19326779539197977
1.051077148,1.5888394860383102,-1.3196310760896395,3.125149337719387,3.1248781357999604,0.39330325573629527,-0.19324616360097963
1.071077593,1.526870530086745,-1.3191290846448707,3.10237492692323,3.078686605667998,0.3878469853609055,-0.1929510891784671
1.091133408,1.4645082697542227,-1.3161225396744813,3.1229546381255937,3.035284763723095,0.37781627788564265,-0.19331465012007612
1.111061405,1.4027220929741007,-1.3102261824060712,3.0998767494773225,2.9926657392301843,0.3863583238186751,-0.19407556841549706
1.131058667,1.3414691956481664,-1.3016068427712417,3.0741593870050146,2.947425498067584,0.392006729974458,-0.19350932797253578
1.15110739,1.2810047163930773,-1.2901874694765143,3.071152167838098,2.8999695017821403,0.3771677580137327,-0.19028020145894609
1.171055502,1.2209049216563932,-1.2764587693947507,3.0856189165168364,2.857190417573412,0.3680014504193083,-0.19074747013264276
1.191060011,1.1617640544713157,-1.2599879304146238,3.061269507986718,2.812704557132831,0.3666795616440079,-0.19093788009712148
1.211059126,1.1036870515670836,-1.2407909893467763,3.0565329578065255,2.766460725730612,0.3520089496003695,-0.19237733077676827
1.231057344,1.046561667533982,-1.2191912932918763,3.0536936014333156,2.721872437382795,0.3569777153822749,-0.19415103294826477
1.251056293,0.9905668615944281,-1.1951473986953798,3.0535161120216747,2.67566798159411,0.36619949008681835,-0.19518561793506253
1.271060516,0.9631357824570924,-1.1821378315512097,3.035972562322398,2.652263731461371,0.3701780920408177,-0.19553006337641837
1.2910538,0.8828250523035647,-1.1398128747583047,3.0177395558554307,2.5853775993981354,0.370813410621567,-0.19737796954946327
1.311058519,0.8310549275760443,-1.108511100383691,3.0192040911705362,2.5406399161529833,0.3561342827345874,-0.20085053584548868
1.331055849,0.7812724712600081,-1.0750059267609235,2.9919228153001063,2.493242502068737,0.3511558490810082,-0.2009210462048118
1.3510577160000001,0.7331662594813042,-1.039607525791692,2.9794029100688317,2.448859791222233,0.3484114369456408,-0.20173164587650028
1.371056661,0.6869219640473474,-1.0021253381675985,2.9765959828446737,2.4046630539633234,0.34767911056496714,-0.2020994429548627
1.391129273,0.6427616704253969,-0.9625421197237054,2.966969265274283,2.3584478367299306,0.36063444299654596,-0.20957679616173577
1.411057355,0.6004267454596344,-0.9212477273278326,2.960322862158047,2.314647260498817,0.3686945615270837,-0.20360563918840877
1.431053503,0.5601162302481397,-0.8780264333383287,2.9581305374550575,2.2691129710027247,0.376564118870546,-0.2043986327461349
1.451092906,0.5218554904712968,-0.832884220415983,2.9764803196166296,2.226279995873685,0.3979699722147312,-0.19191987586688017
1.471090548,0.4852441008664083,-0.7863452215028979,2.966848511397562,2.186296513341892,0.41503232001732443,-0.1807827832572599
1.4911263670000001,0.45055712312540486,-0.7381271676077883,2.98310819782334,2.147159138380545,0.42856003002878346,-0.16957378484416855
1.5110627779999999,0.4175921581554407,-0.6882567185618648,3.012853854856404,2.11117521498294,0.4447436203310803,-0.15754496096138573
1.531059549,0.3861581723136074,-0.6369972242562421,3.0026260578000863,2.0781998283881435,0.4597583508318689,-0.14619953965886484
1.551148513,0.356138651770702,-0.584452544196355,3.0293183151578282,2.045996756288196,0.47324830814062,-0.13414139526287802
1.571052496,0.3275337709989985,-0.5301865880487189,3.082912560144701,2.0202405266813885,0.4792260839584479,-0.1228850561498838
1.591053068,0.3003491323063541,-0.47487014190868054,3.1038204041876845,1.9945141117135872,0.48442206057035386,-0.1104344353014601
1.6110491439999999,0.2737443135931066,-0.4182967011686325,3.1363394916698373,1.9763872879012252,0.48718584864220454,-0.08650809583249564
1.631053411,0.2480284006618413,-0.3605947688924701,3.165715210737912,1.9601479296473758,0.4863195446564941,-0.06365105228494597
1.651055887,0.22293454198600085,-0.301843078183299,3.1967701581133334,1.9493562714498787,0.50158421841829,-0.0417544021325247
1.671053915,0.1979666835979537,-0.24209385585134288,3.2461941608105196,1.9418457648441996,0.5049863393078645,-0.02006383152486903
1.691055836,0.17304961154486764,-0.18184483513430844,3.260324470266392,1.9382983499434312,0.4998227112057237,-0.0006812672687851644
1.711055358,0.1477551507246082,-0.1207492037807053,3.3157488308761702,1.939130263218369,0.5083326861058457,0.0187069957536582
1.731054182,0.1223278623811724,-0.059150639123586174,3.3429260345468377,1.9418922897543907,0.4889232825282732,0.029327282619316445
1.751049068,0.09633978693098966,0.002760425175879302,3.364404333515917,1.9464298238509454,0.47427142488987317,0.045653427585941986
1.771050473,0.06990915814230474,0.06528767924537437,3.3856403730682336,1.954281806480119,0.4605149399764272,0.060306567695352885
1.791059296,0.04247758861157826,0.1277158315406593,3.4143921279918046,1.962692502347932,0.44164696319527613,0.07399039424547105
1.8110586670000002,0.014201803878369727,0.19001154834528408,3.4303248571237552,1.9748450322766071,0.4371948706877636,0.08644433825559976
1.831055782,-0.014898197868579977,0.2523191544432452,3.445046534783767,1.9910157255332162,0.41941912405988674,0.09749606970448062
1.851052444,-0.04559345881289505,0.3144931052951874,3.47041016176912,2.0084733556200813,0.4135791451165617,0.10795842102447631
1.8710529450000002,-0.07691779142877932,0.3761541843631196,3.4583178655284317,2.0271253148719923,0.3949632018757503,0.11642053086250712
1.8910594120000002,-0.10991676324375374,0.4373682558005358,3.4741691448815963,2.0490656832859955,0.37670993847894807,0.12604884530912464
1.911058729,-0.1439894129485589,0.49799224764291855,3.459466619527324,2.0730352282219697,0.35769198271186897,0.13573327201179902
1.931053933,-0.17974293080388482,0.5579987531606244,3.4844838265722986,2.0981782006930056,0.34531561395970495,0.14435872015442155
1.951054668,-0.21690623485212582,0.6170477609762008,3.5175259052063987,2.128010250730227,0.3354670055435691,0.15181068535790807
1.971053737,-0.2556083315046546,0.6748407985573686,3.4814990937985693,2.1618225162593534,0.323868210942343,0.15896707254749354
1.99106024,-0.2959847590159796,0.7315313227550801,3.4884716864823164,2.196310675322348,0.3280216662566822,0.16583800546384
2.011055303,-0.3378081628567882,0.7869182440141613,3.46947703178849,2.233200820714266,0.3243188776965647,0.17165610546848137
2.031059231,-0.381428269625006,0.840888509025198,3.470452310840045,2.271068462140599,0.31190943572462637,0.1768118919586388
2.051050426,-0.4265881429837122,0.8932260961498913,3.456460348827755,2.3098943486939834,0.2940261429181969,0.18261507284344153
2.071049584,-0.47371389338023945,0.9438674675210159,3.45259585317347,2.351089954373697,0.27587172893043965,0.18706378628683304
2.091052286,-0.5221909140956231,0.9924538142614169,3.4335748480721335,2.3946879972708706,0.28515383308853753,0.19033685791015884
2.111056034,-0.5725074600511455,1.0389848434863627,3.4188581705875043,2.4394857974686244,0.2817296757607865,0.19351420680172454
2.131069856,-0.6243038677010914,1.0832557695274458,3.419095693817327,2.4868088295864315,0.2903988986859317,0.19594341756006825
2.151050484,-0.6774002819580065,1.1254195764981805,3.3849542051156623,2.5337926213088466,0.29468122641534805,0.19805966315356652
2.171049646,-0.7322302349102447,1.1650137120827382,3.370935133546969,2.581642893989541,0.29388289610617085,0.20082756044226757
2.191049805,-0.7885200175691697,1.2020138506227775,3.3609680698108066,2.630727347300778,0.2898457863495608,0.20211720043870482
2.211058788,-0.8458384100861269,1.2363448319163275,3.337819998552305,2.6786982529131214,0.29416812538778925,0.2027487297801854
2.231124342,-0.9044800112420271,1.2677590408822137,3.3223220167950367,2.7270185244665157,0.29982993981285977,0.2030681261006318
2.251109043,-0.9640071676120293,1.2963119589054213,3.292372867722362,2.7744060035403284,0.3031012702165866,0.20257239460629853
2.271129894,-1.0245389530296931,1.3223008286737452,3.285111247081027,2.8212746652927563,0.3216869461203458,0.2021431954424918
2.291087927,-1.0860827381008,1.3450764458051458,3.277562651535627,2.865484809398046,0.33598138780517095,0.20133605079360706
2.311118613,-1.148115481087161,1.3647886928411332,3.2511313965550244,2.911080238680378,0.3457919233416837,0.19410035163508182
2.331053323,-1.210862217001499,1.3818422585616068,3.248484442471906,2.955429909636986,0.34827027215718337,0.19415496071987443
2.351077742,-1.2741840496198225,1.3956650826524504,3.241463546622175,2.9970750264994037,0.3513066764658652,0.19429490659858398
2.371053634,-1.3378985670714856,1.406672544357212,3.2225947259186998,3.0413029995170597,0.36293595577454973,0.19478056512612135
2.391063517,-1.4019057828901236,1.4148400704768285,3.2170113362693535,3.0827157165472387,0.36983361650650926,0.19550159586005209
2.4110641,-1.4663305403550997,1.419930088925919,3.2190778081630587,3.1241144745021514,0.3801813518750616,0.19700874179111663
2.431047984,-1.5308738737574552,1.422185872642351,3.2290998439866834,-3.11614422902304,0.4008547853442006,0.19797843391286257
2.45111188,-1.5954824989688834,1.4212494276327041,3.231697372919477,-3.0744582452580542,0.40432395984394487,0.1995665237360983
2.471045277,-1.6600358447811914,1.4176645415603333,3.2297942847936647,-3.0313693974166585,0.40134936979034264,0.20029391010860775
2.491053566,-1.724456456841253,1.4110748604214858,3.237363421827613,-2.9869388485678954,0.4053658944482441,0.20027108054404033
2.511059064,-1.7884606561935141,1.401989102619701,3.2364109562002743,-2.9443072637641405,0.40735236065877867,0.20130269942494577
2.531059664,-1.8521306829749211,1.3900044547311166,3.2431818111876907,-2.9010636882808076,0.4093222895993745,0.20237246575338838
2.551052464,-1.9152461721926173,1.3748172267000764,3.2332345089195,-2.8581203260354062,0.4112287847781931,0.20291221584778135
2.571104868,-1.9775848695803153,1.3573221326650589,3.2417000850067406,-2.8182391101103508,0.41868458980464734,0.20384781896521675
2.5910554,-2.0391869012879313,1.337033853028152,3.232385420333704,-2.7775694290075017,0.4179840868752671,0.2047451138597264
2.611060831,-2.100117067837607,1.313794360847729,3.255354247605831,-2.739006448533618,0.4084777031597989,0.2041315042889951
2.631060108,-2.159857638912478,1.2883710920995584,3.2405045935866688,-2.6995627323706635,0.4046548310128217,0.20428180717701347
2.651074548,-2.2184204341236433,1.2599809757494373,3.249282771460539,-2.656991095528628,0.4006098629856813,0.20434424682832483
2.671128987,-2.2758035174055946,1.2291905094777407,3.2571245136333355,-2.6136530809064915,0.40523195878946244,0.20456369691909704
2.691114954,-2.332055204677477,1.196037495491616,3.2720264516592663,-2.5695358530547145,0.4059674130251796,0.20586811609257188
2.7110561200000003,-2.3870825837455523,1.160512608537565,3.2783932479682325,-2.5249601166307927,0.41578634313921,0.20681570883553438
2.731063438,-2.4403475771678744,1.122685259427606,3.274031087486184,-2.480748546874113,0.41658579861522516,0.20842327753914375
2.751103412,-2.491869010610828,1.0826672287532506,3.26332092139024,-2.438197705073136,0.40419135191593936,0.20926451682091954
2.771056547,-2.5417942581480677,1.0404636622080765,3.257565657208232,-2.3927253575880023,0.395663687800664,0.2094711138627372
2.791054791,-2.5899270127203198,0.9962032459212304,3.267382570333608,-2.34607444487486,0.3901306022852663,0.2095923886218038
2.81106487,-2.6361035653049294,0.9499529822034393,3.2696089809481155,-2.302726750200796,0.3846916869749336,0.20951062544569135
2.8311130010000003,-2.6803441165727913,0.9017656618056271,3.275707892430289,-2.2564898224271728,0.3850490645969018,0.20929688096692273
2.851074498,-2.721839745425622,0.8520850938779233,3.2107571587365404,-2.2115325389342484,0.39212051430415107,0.2092306326468918
2.871129047,-2.7616177127912604,0.800316337382274,3.259758406876391,-2.166871361944815,0.3922861292340118,0.21070645383500697
2.891057705,-2.7990036423525746,0.7467969584926681,3.2527219621398804,-2.1183234359449115,0.38397674411107463,0.20934412465790278
2.911074707,-2.8335312717402843,0.6915165863559394,3.2746928181790254,-2.0729131175135045,0.37235463861766144,0.2078384269027368
2.931056098,-2.86605923042396,0.636022298801346,3.2190572693460706,-2.02642019452703,0.36596123995631935,0.20761528266143509
2.951050766,-2.8953326442793785,0.5780645859181195,3.248871067651125,-1.9795609894301283,0.3606900580701004,0.20659847050970565
2.971052009,-2.9220856741437067,0.5195759688146494,3.202326016147813,-1.934847539614278,0.38395024710780273,0.2060189012501042
2.991062711,-2.9460704224187855,0.4596813163407772,3.2152502369905314,-1.8909958140265772,0.36823983095679175,0.2056579895860218
3.011077533,-2.966895971270732,0.39903035387251684,3.189905063769057,-1.848369574342329,0.3755264678209844,0.2039159903802332
3.031056897,-2.9856550722465593,0.33758149708459606,3.2072651178553806,-1.8074006385012937,0.3475016971880312,0.2047182522790937
3.051047715,-3.0016043706705555,0.2755193957252468,3.198101063389157,-1.766816572913752,0.3577575949349947,0.20352202353926757
3.071050121,-3.0150757888778443,0.21337424942953814,3.225616263854246,-1.7290706881106799,0.3390846061315132,0.20241191633006156
3.091062898,-3.024907217161918,0.15016995272768557,3.225564003531847,-1.6840136774330656,0.3509955279269195,0.20219390786403252
3.111092921,-3.0327416417112985,0.08703016290677859,3.181367161167966,-1.6410851070169403,0.3437697314781807,0.20239566459777417
3.131064072,-3.037182747952911,0.0230607629197332,3.2359765575881068,-1.5971185565087123,0.3532313824276038,0.2030667214450054
3.151079377,-3.038911828702596,-0.04052149653362738,3.1608809639127013,-1.5517114344323617,0.3498488490825113,0.20431277348508145
3.171052863,-3.037557902713873,-0.10476759442831898,3.26045344410164,-1.5028867037148486,0.3395522036149359,0.20359523565102575
3.191057786,-3.0341625313810394,-0.168127692030092,3.1649034700846275,-1.458363810735644,0.31488564193897245,0.20649567075853958
