time (sec),x position (m),y position (m),forward velocity (m/s),"heading angle (rad), from x-axis, positive is CCW",throttle (unitless; -1 to 1),steering angle (unitless; -1 to 1)
1.131963455,2.6017165725563234,-0.030884348927800898,3.0405975865075976,-2.16693069734544,0.3988535435794996,-0.2298115928632281
1.33196297,2.0020844013959254,-0.5917993620090274,3.036601655778517,-2.7257124569185143,0.3549486104821836,-0.2165484947303297
1.531979471,1.5684515062710302,-0.6126376421024284,3.0552521540721655,-3.184363582718032,0.3392627727585487,-0.21470580296535782
1.731980347,1.016533248022334,-0.6374000285756349,2.9793095197450183,-3.5464684863061327,0.31539193323379877,-0.20374686010005558
1.93196395,0.6003888104738409,-0.18912413756406585,2.9896625470882876,-4.102388094337328,0.3350484298934802,-0.17936316460886675
2.131971194,0.12051416790673047,0.4022023707750333,3.162040150511314,-4.300211595879798,0.3921167984931103,0.005855633571819794
2.331973669,-0.17247238520876304,0.9296569292370633,3.464903813189662,-3.971379330441003,0.30224299621994366,0.13027221250539486
2.531963973,-0.5242645573365666,1.4783768870995209,3.3479215874718595,-3.7293029731007414,0.28157623756647876,0.1764479036211315
2.7321070890000003,-1.3459876419719485,1.5844322835913276,3.0418342516067054,-3.2679998787459796,0.3341748216620205,0.16920517721904968
2.932010399,-1.7788097100621298,1.548434420724941,3.1513938127476955,-2.74625333462588,0.40440076343247344,0.15898928178725796
3.132015774,-2.375692374997816,1.237509635701391,3.2092466044237056,-2.280846957311112,0.3462556820266597,0.16667067127137872
3.331964881,-2.5817601810437356,0.6230875807599413,3.16446472848805,-1.9340955823515558,0.32397017432308095,0.17842313347758848
3.532066336,-2.8179694026730933,0.14315808139710243,3.0223548412749692,-1.5460802810859489,0.32061335562463994,0.1846743200264122
3.7320483280000003,-2.5944626533495936,-0.3635265490498034,2.819958734098196,-0.9822422158543374,0.3378925233090317,0.2006199350229732
3.9320180440000003,-2.2421510169800096,-0.8190436470973727,3.0224094284241945,-0.5017333330504906,0.4015044911393767,0.2042694567756082
4.132028675,-1.636582335507523,-1.213748982099005,2.994882150121352,-0.19850815012096806,0.4089474827097189,0.19566419307647
4.331965783,-1.0139237431589738,-1.1683332664869313,3.024589045652041,0.3537231805736416,0.3838321420729713,0.1884979329476173
4.531962738,-0.4704235693563237,-0.7365392623542775,2.978823688639661,0.7169652126690345,0.36465879388413275,0.17949612782865496
4.731969645,-0.24780056644653045,-0.009776179052516792,3.0567064983633636,1.363315120847237,0.3676958687098852,0.1015389021684968
4.931981848,-0.20564627809164798,0.563311543119935,3.127911526272132,1.267227213558757,0.3982572454221664,-0.10290741486419072
5.131966807,0.1821902962959282,1.0303240626555599,3.3368588474565506,0.879853170991639,0.338601132869503,-0.18343495327317105
5.331965169,0.7836206365214162,1.4750604278541204,3.1629209168071664,0.4380495142557976,0.37692891545943663,-0.18975291679247494
5.531960956,1.3800681738185083,1.6314258931533883,3.166514470123193,0.06203621317876354,0.42462494365547176,-0.1779190678762501
5.732024487,2.027951794275147,1.6528088827708505,3.1864083862641728,-0.28885790778273623,0.3844263841232965,-0.18020473380627697
5.931965616,2.4376235675325275,1.2476330841852044,3.2666628713159094,-0.7959822176796555,0.35536662842092015,-0.1845565830288124
6.131970074,2.7875561644330187,0.6611472750239209,3.2404231338615164,-1.24841234712901,0.3585481938346726,-0.19710898561986576
6.332003061,2.9824203577217823,0.05274904020042229,3.0215787152854996,-1.6940948183024087,0.35423511324063295,-0.1932148923903137
6.532061254,2.733336844491186,-0.5409358224395384,3.0211845313091232,-2.0987855330194454,0.3659427216910952,-0.21008772011727675
6.7319759900000005,2.25994908533421,-0.9253977327900674,3.178116298355014,-2.5438478873078183,0.4009964201833814,-0.20965984820058725
6.931969364,1.681338500162137,-1.2860514275930675,3.0696692978429394,-2.994419538942205,0.3739492547006645,-0.2025562923159694
7.132051994,1.1379356342465545,-1.1942013486436616,3.07325157018151,-3.363784120431125,0.3516287259563859,-0.20509652134196274
7.331981851,0.5915922518767598,-0.8057230924821949,3.129614405445117,-3.966071161066812,0.3333145738888652,-0.19598981127713166
7.531964077,0.2825285855150226,-0.3389194182618086,3.180925346350845,-4.371326034307007,0.3969087417031523,-0.09561186790475137
7.731971737,0.021535437873219484,0.3434008599550604,3.4960171768088824,-4.383110266892172,0.37120875124421915,0.10501419008261038
7.931967861,-0.29109675917230227,0.8007659840890938,3.5572647042945538,-4.0281598285517255,0.2919609776312068,0.16466160292967413
8.131969545,-0.8641179714155056,1.3563194570831854,3.158303374169616,-3.413851454053234,0.2866146826669346,0.18935989044500476
8.332049723,-1.439573593116329,1.2907865216783398,3.2172629433261806,-2.995705511116833,0.3439758907198928,0.17409820136224388
8.531965834,-2.0019940618199352,1.2165810896931466,3.0768321078938063,-2.602232417396369,0.3480118505590604,0.17540669607766182
8.732065463,-2.624289217890051,0.8597838077930748,3.096134177237913,-2.117428556747239,0.3073478526663033,0.1715066352567161
8.932062972,-2.74236093786452,0.3253515742119258,3.015228788874628,-1.6336530114443666,0.31098366351166085,0.19056741843399808
9.131961145,-2.7730322213610767,-0.41315728043920125,2.9687463448110276,-1.3106936931406659,0.3132575329014692,0.2031512337787238
9.331962551,-2.501099346225878,-0.9492956424036092,2.9936268567788926,-0.9230579032379296,0.3646749385619061,0.2131313169307387
9.531975653,-2.0898172308625766,-1.1670953527936947,3.0306847237069268,-0.29351011659217274,0.43896313298294104,0.21569765050812642
9.731967219,-1.3204957989132453,-1.338616958612187,3.186176311979626,-0.009771061022359265,0.4036620942253964,0.18924864233929187
9.931985637,-0.6413292081872554,-1.2352390050422226,3.073335372513194,0.6901953502201034,0.3848796428480941,0.19068799817282306
10.131962886,-0.44478033025102315,-0.6520125803303471,3.1058714306940303,1.065125854395593,0.3735203022629074,0.19060604035049836
10.331960625,-0.12901084110523356,-0.11969052842150399,3.1970283371163273,1.2264335511159463,0.39309963305587575,0.012677359162355437
10.531965976,0.08351210059997145,0.6014344905902533,3.293411759403683,1.260036185736927,0.35092600848876526,-0.15174751801103611
10.731967123,0.4502314891520222,1.1295813842576148,3.159063373206254,0.7100733295925548,0.35319771863277666,-0.19066659350118445
10.931979624,1.1157633127069835,1.453925815462608,3.2048829882257617,0.36777208771950265,0.3756161319508268,-0.1773660874673898
11.132058872,1.7355220152698008,1.6153208915480242,3.1697151149390796,-0.1496792492897139,0.37183484621463997,-0.18414037357942423
11.331982475,2.1767187768239733,1.2174017348101835,3.2844563922716494,-0.5665318203477232,0.370025421958595,-0.18424643482477257
11.53198591,2.668085214385038,0.8429350591256708,3.24191341256695,-0.9715538394329478,0.33514027787614836,-0.18944483105859503
11.731968189,2.9654839751267117,0.31511859376732143,3.0662088462801327,-1.4368531687922619,0.3458729712274925,-0.20069958418639158
11.931986887,2.920213501935505,-0.4620109736097113,3.118520906714732,-1.9159213683218959,0.38518346418399896,-0.20603095564015897
12.131981639,2.5106312098311347,-0.9440661456108808,3.053164215495833,-2.3402990252076834,0.3756459060696173,-0.2051509579684351
12.332060121,1.9532444174379395,-1.106545021611018,3.098476679400768,-2.8288506270649276,0.3954782634666193,-0.20401061337753978
12.532045606,1.3770399005500913,-1.410177484695931,3.0876648019001283,-3.2215945093368674,0.3754416798584075,-0.19583648566991477
12.731968227,0.9407412679673722,-1.18917209682321,3.1515437244503355,-3.84632040582416,0.3463121349511666,-0.1948389344203417
12.932012705,0.4193780177579112,-0.5865828994763074,3.016588297202259,-4.251359499555981,0.35237493777400375,-0.1740690685307807
13.131986608,0.19969598646322323,-0.0765819534558593,3.2411170839167935,-4.272791907273265,0.43013657482842593,0.03351612598897499
13.332062515,-0.1847965600308065,0.5272339539850405,3.5130277171167696,-4.162351984076381,0.30591313102452145,0.15714120648298108
13.531994336,-0.5337085435784249,1.117113648234188,3.335800694308838,-3.7641769157688523,0.27566090368361573,0.18903890957995184
13.731960245,-1.1959816328657065,1.2692619332842965,3.2449670549707323,-3.390653710819633,0.3368784132493793,0.15275709917771285
13.93196784,-1.7880154390235075,1.2304684503440508,3.2006600424621965,-2.8565450327126216,0.35500194492592896,0.16837650927456158
14.132012949,-2.2803265892766267,0.9989882950108908,3.1170690674516437,-2.2892324063780376,0.3365321463823369,0.17094764774289753
14.332059502,-2.6405698823345123,0.41612712232769533,3.082918734916092,-1.863810192869985,0.29711765991937017,0.17451856817639333
14.531966159,-2.856619205848807,-0.05682286907948448,2.9212645028104722,-1.5578204779469274,0.29665753913970505,0.18623304675772434
14.731986791,-2.541902995265125,-0.6612233846670872,3.026351279521466,-0.9325669684194967,0.3493683381675656,0.22002331604109102
14.932026805,-2.3077634224813326,-1.1116893352722412,3.0086470578966487,-0.6861137734801875,0.3877611084800928,0.21634165676526718
15.132042397,-1.6252015608050134,-1.3739465844634113,3.0218592972957996,-0.026977580463661194,0.42560902682252616,0.2158257323614448
15.331983125,-1.0759889101316362,-1.3483019143025696,3.0188327313386862,0.4051597595809035,0.4034078357271407,0.18702503534081605
15.532130784,-0.6132422354750097,-0.8878142919855231,3.184694122839104,0.9690353060435783,0.3709401392943964,0.18652938165147112
15.731973361,-0.23448647154382105,-0.452306936653685,3.076285700185315,1.266219045621289,0.38231612644913376,0.13004880412842754
15.931970069,-0.11244505010834702,0.16381560708587628,3.386507711397079,1.2062618597821682,0.39178260879739607,-0.0947653173592808
16.131967889,0.26194500677601945,0.8117084940136504,3.349824818010922,0.9172789453057302,0.3257228943945147,-0.18210226874369326
16.331968842,0.7084601744771748,1.3206669673172713,3.2666171784947977,0.5731033269195658,0.3713083152802009,-0.1988258141615714
16.531968352,1.205343838405851,1.3517846657609833,3.1624184877194788,0.07181193636929754,0.3812865315822796,-0.18291416350786363
16.73197727,1.9286748917279768,1.4235974681917254,3.1777099523883128,-0.4110054591988953,0.3763910905260747,-0.1887731896370688
16.931993652,2.4683351051001514,1.019858613368318,3.125075529127899,-0.7804245376228178,0.3673775652148078,-0.18895024600197033
17.131965305,2.8646784709912296,0.6262883106785672,3.1621693561371473,-1.239162015101224,0.3334003829084701,-0.1894309875978459
17.332058144,2.9091913871235833,-0.10375862416749423,3.10213982619624,-1.7348236767399616,0.34279047233053567,-0.2046612031153079
17.531978585,2.8272198140723868,-0.8041523449766335,3.2067224712443996,-2.17721499607917,0.3785068573141852,-0.2096342653888135
17.731984588,2.356010499113344,-1.145706685441985,3.1521710446450264,-2.609953078597645,0.3866801637672053,-0.20350241147224574
17.931976979,1.7483414474727275,-1.2230890135989914,3.231601825348807,-3.0463941393704324,0.3757980461349045,-0.20527719407706632
18.13197017,1.1423792211319042,-1.2551777355890739,3.117094445458792,-3.5800437482042025,0.3604580475018796,-0.21012352538152385
18.332014602,0.7593940685192262,-0.83595993366951,3.0342363667983303,-3.9313221507542586,0.33756128287387294,-0.2043118364766633
18.532076425,0.2953574063273724,-0.4103072439980408,3.1927385351350734,-4.422814073913585,0.43833594812858456,-0.08021422200680967
18.731979339,-0.05131011033400221,0.2187507090887828,3.4343221648001614,-4.317508526654313,0.3727750099821844,0.08917992490695402
18.931973408,-0.2945395009498687,0.6572567018697786,3.519486536775858,-3.996590946179205,0.27403238210866143,0.16737203491513866
19.132021511,-0.9245802778800123,1.2501772042948822,3.249953213181646,-3.5001414540200035,0.2887818209797408,0.18556864275678522
19.331972918,-1.500329993081086,1.4202735275026754,3.252012529577545,-2.9889964548335817,0.32873520932877,0.16255356003907676
19.531994018,-2.016916431545546,1.1043280411940457,3.052218041747185,-2.6047075807591282,0.34395766976138287,0.1666028691037644
19.731977788000002,-2.6074769086306073,0.6226600355535237,2.8861925642358854,-2.1333552481296816,0.30360486323601527,0.17211829785133176
19.931968788,-2.7839934868656333,0.1485223453058759,3.0390227097854234,-1.8283500374494037,0.2914595742124854,0.18573591937681178
20.131965095,-2.62216893999861,-0.3014623961637234,2.8468894898878676,-1.3380263036036775,0.3280096909151698,0.20374431435182097
20.331967114,-2.436950697867905,-0.9440503577759678,3.007505516802683,-0.7401704976120077,0.4085354771115986,0.21363297304937734
20.531975996,-1.9692891117172064,-1.2965876212803722,3.0124243668392867,-0.28049683295724676,0.4037280092666261,0.21253002063547186
20.732056526,-1.4491387649873908,-1.2812448606712694,3.0323572110852153,0.2104666225455686,0.43216903126930484,0.20481805844286047
20.931967923,-0.7510129482334433,-1.0716769102050276,3.200026825429745,0.6115075648439882,0.3897833390477681,0.17560566316965653
21.13197472,-0.3138810743323815,-0.7636195223634702,3.156463859537981,0.9035331151712331,0.3574008993650377,0.17246623333687466
21.332030126,-0.0730614195308502,-0.07205038428790803,3.273211281532612,1.2695207365532544,0.413627927754276,-0.011195308881817814
21.531964777,0.038066943549943784,0.5866485183898759,3.375898663499572,1.3105598402612122,0.35544474731945574,-0.15945820855359819
21.731988907,0.29407039104346816,1.057290408634038,3.2874465414117737,0.7770045495727187,0.3473387376604192,-0.1989467955512415
21.932052176,0.9505408252284698,1.4633458908093464,3.238002844039652,0.3064312736273712,0.3825944185893491,-0.19236840123707624
22.131996795,1.6964601022639916,1.4602927978104858,3.2566889640609524,-0.26453136632485214,0.3843078494787928,-0.18228467040963983
22.331969123,2.186096287138397,1.3288976777329822,3.1874293941030216,-0.6442511344427195,0.38028077788884346,-0.1883811113866819
22.53197773,2.6919640567872594,0.8537151374369794,3.2708104605563357,-1.0213563984155507,0.33105318524964605,-0.19205568785992005
22.73206294,2.852559250012583,0.27888491707101914,2.992505100251558,-1.5264048102670167,0.32934585527782645,-0.20444219668512387
