time (sec),x position (m),y position (m),forward velocity (m/s),"heading angle (rad), from x-axis, positive is CCW",throttle (unitless; -1 to 1),steering angle (unitless; -1 to 1)
1.126742226,-1.3220497952232257,0.47140855043393726,3.3157097770848667,2.650831951480057,0.2551262912498999,0.17388150683377274
1.326754244,-1.8328044296347246,0.6288477400222775,3.0917052233113407,3.3535235605068334,0.2463479820297964,0.17036752507758765
1.5267454169999999,-2.4389108995405633,0.6179050561907123,2.8259292584590603,3.8371611543267066,0.05096918358097964,0.25384411237704974
1.72673781,-2.933645179685145,0.39337388511362553,2.635279781790242,4.2416746365096225,0.4013262534090804,0.17618030057915712
1.926743347,-2.935249232795888,-0.3163484218788626,2.7582442762620265,4.591310314675271,0.34438849987872505,0.20985170013775736
2.126755244,-2.7988130119418635,-0.9583955888678108,2.8900671269015645,5.128551643607229,0.35651579161664126,0.23625348999967424
2.326746038,-2.6074613057921745,-1.430227697563251,2.8780907561629654,5.574743462802353,0.42133316307220176,0.2315591886348931
2.526846665,-2.1920192926673265,-1.6084392699109404,3.123881722403823,6.113922605835976,0.4692832629699893,0.22243178568628402
2.72673896,-1.4283261989883833,-1.6127757467447517,3.2072290642359613,6.47300311288505,0.4802431013391407,0.205822141523072
2.9268137970000003,-0.8891605515737274,-1.2940035330253536,3.399338907842266,6.935943475082341,0.40899904033368567,0.19461420074782754
3.126878705,-0.4912473334981235,-0.7988363257805031,3.31459304664005,7.421647776124701,0.38253128963088057,0.16734888986190766
3.3268230450000003,-0.19937030851061682,-0.09705580335079975,3.395525487669997,7.5277027225911395,0.4485425963824759,-0.04349181225465555
3.526826331,0.03955847894888877,0.3679343440920865,3.6341871377870048,7.453205784413987,0.36128632300677,-0.1618060017523699
3.726739227,0.4439693230767861,1.0112754127061048,3.4275852335056136,6.915619195603978,0.35609350194193856,-0.18436973680136517
3.9267804120000003,0.9500529362919045,1.2985791715481592,3.3374708656838603,6.4106709137244,0.36975920655653033,-0.17539981146318273
4.126751197,1.6993356835109492,1.3215329339126831,3.329385482229531,6.207695634679625,0.34781058883880567,-0.18772178300402664
4.326755852,2.2220034026139808,1.0468145478937432,3.3451572898859605,5.6524617688376635,0.34980582861389525,-0.18517497303807193
4.526894928,2.630297186293192,0.4694486424085086,3.0665659324001537,5.320679962210917,0.3283299360485904,-0.1849326316405874
4.726738587,2.799192649158727,0.000554451836457262,3.0870041605350207,4.803684248829599,0.3381215341383467,-0.2105978216666028
4.9267450440000005,2.8221539275486296,-0.6654656622890173,3.0136513643127714,4.316864019820465,0.37367721144005045,-0.20650127674585114
5.126752815,2.5131047820360664,-1.1035845499863286,3.126115408462907,3.902229711866322,0.3938146670225416,-0.20504044436436925
5.326853084,1.9846790140045172,-1.3524137885945566,3.240663942256943,3.252122263633351,0.40374118565650907,-0.20882132722997826
5.526774022,1.3220217908404424,-1.519300126599497,3.2592911915298113,2.8274595224510106,0.40177659384876624,-0.20286900590731824
5.726737213,0.5945520090093035,-1.2240094633369436,3.1903572722885016,2.4533565844517,0.35176451630319366,-0.19741311681682547
5.926806507,0.37129637173146374,-0.9230793634028622,3.1210540015356245,2.0475230161456595,0.4117845177828831,-0.14536660362523568
6.126761996,-0.13364445840085287,-0.20282794629932466,3.4049423413341415,1.9505969266388679,0.42545391952055484,0.043610171236098276
6.326750762,-0.22235189143023504,0.46700063626490584,3.571391528661446,2.2117277531940474,0.28935092006192736,0.13786652820629822
6.526820071,-0.8538243800845147,1.033134902308384,3.504080441913884,2.6662420408855505,0.24371348002402315,0.1673698603765075
6.72674078,-1.3649180558916296,1.3011856782850006,3.1712960666196066,3.0880618028574434,0.28527869790049304,0.1616217414702149
6.926785077,-2.157153567625926,1.0881061532200607,3.0974090751042924,3.4658761657444965,0.3179014519399313,0.1610010533390745
7.12675806,-2.453735654477097,0.8428737018106051,2.9549777597948115,3.9385535793396573,0.32098817988674166,0.1740801981394219
7.326755043,-2.8826209544184263,0.25934096814726304,3.0510176905223934,4.3930904663504835,0.30274586320978153,0.1932589691114294
7.526762834,-2.9829437305522983,-0.2744178114364133,2.939721173423264,4.912067259037962,0.3145397860271093,0.2089314297118992
7.726734121,-2.826216674546129,-0.864837760405936,2.972859432993341,5.35495038842978,0.38521196490006826,0.22232685712855096
7.926764785,-2.313951279047108,-1.165268186636627,3.0685320518087016,5.819803732974216,0.44928263332792073,0.2178861877081366
8.126755166,-1.770907348165575,-1.4122320387232967,3.099023955933606,6.254775929051529,0.4509375163884492,0.21338720805317526
8.326763235,-1.2203499273629526,-1.3095836659366729,3.2343733114579223,6.8334574221321915,0.42997867939321566,0.19780648060488562
8.526752765,-0.5530084461725083,-1.0079637651359303,3.2794931002420977,7.244875424339554,0.38770160884735066,0.17802594383878026
8.726738693,-0.3911820483487217,-0.35015350237371534,3.1735798284793817,7.634759300151902,0.4012428116072374,0.08738488340932354
8.926752734,-0.08020641762563402,0.30266542212036274,3.3153814298008495,7.453428305478075,0.4132397810907482,-0.1253086632638644
9.126742676,0.15609449886803153,0.8360874447122728,3.4374679817607805,7.239513374375637,0.3609099483637373,-0.1851810376514673
9.326763682,0.7686091370965299,1.3575888930870055,3.359917148344184,6.727333560160306,0.3685224625844373,-0.1896903247322079
9.526755213,1.1675921138915168,1.3555307963717989,3.338585214370327,6.188074304673438,0.38989926240932493,-0.19068104686918178
9.726742928,1.8434389899814174,1.3276493591267766,3.2943854650790065,5.897908662678755,0.381199545322909,-0.18387407465456823
9.926748083,2.526470836523576,1.0088022114911062,3.278957541674094,5.407122602455983,0.3513158635011834,-0.19312367809593076
10.126762081,2.987734625967042,0.5400057402168058,3.060504772588519,4.8611751938582115,0.3400272474104346,-0.2069373180070785
10.326745272,3.006123485731322,-0.19047813549451967,3.063362811966595,4.541819771465155,0.36680727616054465,-0.20384047360099336
10.52674733,2.6350564626600335,-0.7977893417533599,3.039642270911339,4.009089133077989,0.37612741279803114,-0.21185653802166812
10.726748537,2.253162960604108,-1.2647114754730135,3.1142239713226223,3.660655703722853,0.402651895141836,-0.2103132842895871
10.926754834,1.6187463452701336,-1.4171293992268774,3.150720720968667,3.165698378416305,0.3958544701776091,-0.20621278250165861
11.126744763,0.8487646431464436,-1.2963000204428774,3.269356187953303,2.7922143238794805,0.3432614229206574,-0.20733502231315373
11.326746271,0.5565578295102968,-1.0696581895682182,3.1380687369459355,2.180345949907537,0.34925065950571843,-0.20700529890671138
11.526752629,0.10303775516357434,-0.35820659166802943,3.2839409449838044,1.9799319099863513,0.43808350752875086,-0.060467546263677
11.72673992,0.005900395663710173,0.24927453031180077,3.512441887166344,2.166511470077411,0.35909825336419043,0.09863372333667834
11.926750471,-0.44686943375432037,0.8802646675351298,3.5305410536431503,2.3209599699294667,0.2622941493813387,0.16788369847457174
12.126744401,-1.1800055827122806,1.1065280212091324,3.4052510027999525,2.7232735897580236,0.24881648399131778,0.17884068395030384
12.326758486,-1.745317257699085,1.308976508780971,3.165281347821843,3.1452405809101807,0.3320123238016097,0.16764822854568442
12.526763481,-2.3546970998031713,1.0848745250495813,3.07563543615821,3.750874114129866,0.32401786033316543,0.1834333018043506
12.726805544,-2.863257868837093,0.503097085865029,3.0741472506857503,4.190999892301843,0.3153726064447337,0.18748962539396202
12.926757897,-3.0115894157150738,0.08841099201995659,3.0331991770742768,4.575189260778371,0.3281165914608744,0.20348062810672027
13.126747541,-3.0705183732117223,-0.5300612616011975,3.041385140055993,5.028510696491936,0.3529901291163108,0.20423098848283885
13.326754956,-2.5826898456387,-0.9837474060650883,2.9898378795095146,5.581135821103392,0.4184457027277366,0.22404706945595884
13.526820078,-1.9832884834307574,-1.2557487349212124,3.0139615087641753,5.9777810164797565,0.4540122466972498,0.22038889346367743
13.726739087,-1.4052979055272494,-1.2681894407999286,3.1189899053626577,6.512478382123327,0.4347085867682316,0.20449891655504926
13.926758996,-0.9352631909061058,-1.1252374367537399,3.089696532516224,6.950884018796947,0.4136342352104419,0.18707769483772488
14.126755516,-0.5196706691224207,-0.53555804471655,3.1142766805796294,7.526395216071352,0.3877998998870066,0.16249621070092315
14.326756086,-0.2570258006921798,0.03571022031594351,3.27175158559284,7.58389249392725,0.42727324898248553,-0.03428080536802563
14.52676043,-0.0052738816286447485,0.7922595026699022,3.385898616570183,7.456321514003299,0.3734690307096969,-0.15741118214827296
14.726793105,0.5417352238627259,1.2629191474417414,3.37972884743964,7.0176038807543355,0.3455085910277057,-0.18499846846233298
14.92674386,1.0885323199718504,1.41988714901564,3.4178593174292695,6.537357032902432,0.3780710343707037,-0.19466724969722213
15.126759098,1.8544634501952706,1.405509235956929,3.284000299333683,6.013040306949645,0.3759904301424503,-0.1951702889794648
15.326760365,2.441947001540185,1.2160147144932247,3.3316116087367655,5.711543192087642,0.3587364554035066,-0.18653051431041892
15.526761609,2.788371238376479,0.8569214122445943,3.2757743923143625,5.23027006461981,0.35076952437215214,-0.20369509763053714
15.726733804,2.9787857435712537,0.22015805938452587,3.0877870504671625,4.702043803533668,0.3484029808581123,-0.2119243125698773
15.926755026,2.8311943881382926,-0.5006487431715636,2.9902905362326186,4.295412293001468,0.3727286263909647,-0.21479094692433096
16.126754819,2.5498983048956663,-0.8947333063459547,3.2875996178384796,4.107693372253151,0.40408099398751535,-0.2161539973118897
16.326748941,2.096525882254771,-1.2524299454312042,3.14208663628073,3.410798543399643,0.40133773722500277,-0.21326319197242985
16.526756979,1.3537095179502785,-1.299401236494393,3.12669859519009,3.053920696522467,0.37568097758681723,-0.20920167172659251
16.726733261,0.8071305489130312,-1.1044922172400278,3.036702266620087,2.463806392039695,0.36540252979687154,-0.2106331075150974
16.926747389,0.24673556269723662,-0.5778555516327163,3.0577197656059907,2.009982713224899,0.3902930695854008,-0.16079081102513168
17.126798347,-0.022068096935338274,-0.15264510599224423,3.554491868261813,1.9449099113163983,0.4374593401010192,0.042236233883740065
17.326744277,-0.242498536226155,0.6386775746756346,3.6380761553017797,2.188668974464864,0.32725846311844214,0.1445533969965246
17.526748873,-0.7586878191410688,0.9952235528891965,3.421966577587043,2.5277465419976575,0.249708310717559,0.16856755626412576
17.726736616,-1.4541337925767706,1.2220638459027489,3.2731607470437467,3.1404103109019066,0.3158257306349143,0.16242024491910972
17.926758091,-2.051828375490947,1.1106858400690618,3.061286706497196,3.4128377478845526,0.3420297055862858,0.15575248654534798
18.126743091,-2.3613269277349556,0.8232164146328875,3.0441065872871285,3.876940460116703,0.31208419263148063,0.17216714543822445
18.326795963,-2.822624970104658,0.1963444356518873,3.06469913198297,4.332734298975418,0.3060727534495703,0.18856916630310866
18.526750353,-2.8753285283361723,-0.25480001353096837,3.0014842260889227,4.786390667958115,0.32325353620181874,0.20176063389396964
18.726736574,-2.793538268769505,-0.6862093461140365,3.0056452403306624,5.336631350117842,0.3703839854831137,0.21563121894180598
18.926747335,-2.3642100117304077,-1.1227303874049885,3.0600950037838945,5.736557146180525,0.4287270918973907,0.2212162883409809
19.126756545,-1.5945393241539372,-1.2335738089833934,3.170262542010326,6.308016536902638,0.4493010670222724,0.2108644835100235
19.326752932,-1.0631744797941665,-1.2320060841500289,3.1200530773429445,6.655914823173297,0.4165526362416963,0.1943511185844393
19.526763593,-0.5872124012703033,-0.9128684534800005,3.22532367775264,7.132018847170678,0.384642116741576,0.187234452955598
19.726734525,-0.13512399279706327,-0.27257360935202524,3.187908012381231,7.444923431830197,0.4013616757358184,0.07957588927531381
19.926741074,-0.09703010587714056,0.33467650956769057,3.4415398349465423,7.475558074743634,0.39717239651594455,-0.1160707236685322
20.126796353,0.15639099437503692,0.9202867781442124,3.302704596911145,7.08263231656324,0.3485598123142334,-0.1863362046275703
20.326748714,0.885195720851813,1.3591822891402963,3.292405696506921,6.675561420839912,0.3639340407704417,-0.19074609732560716
20.526807424,1.517218658019404,1.4328673987423808,3.365708202940717,6.192707495309646,0.38810960258572497,-0.18895658031121657
20.726752636,2.0704490935624755,1.3357272955733888,3.3800179598966507,5.928315829362362,0.4000612519479238,-0.1913224217057928
20.926743903,2.6201196246112173,0.7539320118687594,3.200403629373775,5.411373271976312,0.3456940320205092,-0.1965425811595515
21.126739932,2.823360525097256,0.49023301162941413,3.1323151015774138,4.919771996375723,0.3459288444178419,-0.2096477611207785
21.32677862,2.7945758423756457,-0.2514489439681954,3.029426658709889,4.644357533469472,0.37771087146656057,-0.19532279870543345
21.52687227,2.758594521342172,-0.7619578664396377,3.1323361324776187,4.061322110667188,0.38908490449642064,-0.21641914583317434
21.726738066,2.2017837194056464,-1.15116198228283,3.074780788128584,3.590591247226038,0.40581926130816937,-0.20381265411751184
21.926731563,1.641810099412994,-1.3493393956578263,3.1803631213367245,3.1405492411132485,0.3967837642739025,-0.20930595345930467
22.126756416,0.9662465194334362,-1.215495040209095,3.0582903782449455,2.730638303677179,0.35639005527600076,-0.20506930675690288
22.326745313,0.42405239423266106,-0.7335884045714389,3.1903360801048444,2.1965318759324948,0.33128889868480377,-0.20753835234231352
22.52674074,0.15995813011115667,-0.31872385445136736,3.3297492307188303,1.9892512161524432,0.4304212190635187,-0.07177791459409993
22.726736405,-0.11515290129238662,0.0928476200429095,3.505031266529286,1.9555309621230053,0.35216520444820126,0.09711356332395894
