time (sec),x position (m),y position (m),forward velocity (m/s),"heading angle (rad), from x-axis, positive is CCW",throttle (unitless; -1 to 1),steering angle (unitless; -1 to 1)
1.123891418,1.4208210742073109,-1.3325517417979504,3.2339169721618144,-3.073330924804281,0.36183682689724567,-0.19546414021359176
1.323900127,0.8009578838675526,-0.9614488420212068,2.9605509523195987,-3.623891784054127,0.34562751058453783,-0.20131987138537916
1.523835315,0.3599251950695181,-0.685727969553387,3.007511889363459,-3.9770952156652664,0.5012809059243929,-0.1776347802709986
1.723899434,0.05081643003662572,-0.10045244630289117,3.4754355395994305,-4.257031486148464,0.5899507533721106,-0.006806352589734996
1.9238877030000001,-0.1821853351055848,0.4368266709948212,3.7514610293960637,-4.193940570329014,0.389694073438604,0.095616870583415
2.12392277,-0.765545906487942,1.1146578239270206,3.626009884245821,-3.9360676003146615,0.2469111014901089,0.17179021518222318
2.323897402,-1.3733250888037278,1.433089242440462,3.3169145217726514,-3.383205127425087,0.27419935784739297,0.1911175556863233
2.523904057,-1.9208290026458041,1.4625245282555905,3.2773419021863317,-2.866391457286921,0.35226702512084956,0.19319283846262575
2.723914732,-2.374785480167261,1.205836603252345,3.1653639288525275,-2.6091143171840825,0.4440699987339525,0.21135076688606774
2.9238251330000002,-3.1459026340869682,0.7652816543259827,3.089126183787637,-2.1330430841542753,0.48570498608759316,0.20511166536467632
3.123831189,-3.099891934098335,0.2589949690465625,3.2415959443517663,-1.6449791286785036,0.44349782103526675,0.20923955189993376
3.323913421,-2.987874839801707,-0.5191148626462416,3.2637745999801826,-1.2109911752710127,0.41255322098274466,0.20705622444385965
3.523825034,-2.703560328122238,-0.9408513389800601,3.2098009979750888,-0.7471149560783725,0.3934291612372856,0.20935089816066121
3.72383299,-2.0824491218340815,-1.3064110170236596,3.206387196983773,-0.21716476002147445,0.4399001551416105,0.21345226719796231
3.923831736,-1.4558994931247813,-1.4049017025030979,3.211385898736143,0.2114686122827529,0.46056832161746464,0.21020151075463436
4.123888654,-0.8082213159815097,-1.085273448979728,3.3976050478541238,0.6426473486502916,0.4425149394312269,0.20058155985781487
4.323889752,-0.448413670225568,-0.5697990813527956,3.469718189374107,1.0915399446268508,0.5399668454669778,0.11682518861085464
4.523829362,-0.14419708276150534,-0.01648615327713171,3.746135470550872,1.2319935669433868,0.5294603748615953,-0.04765365164739304
4.723853195,0.1430285864252156,0.6477072948521693,3.886160442811636,0.8112019928821548,0.37462466207528705,-0.12203656904740848
4.923901681,0.7650463996898439,1.3280042286213452,3.6678841945503913,0.5951687191122297,0.3032077624566941,-0.16075925371062033
5.123830979,1.4101032977038772,1.4348144439785382,3.318650222834197,0.11726035264103336,0.2662257025884697,-0.17600324873587356
5.323870027,2.0404273837493374,1.66197213091313,2.9847333596932275,-0.2287974049469129,0.29579083705381876,-0.20104160742861263
5.523846637,2.532320954387549,1.283976664670172,2.996145560191749,-0.6912656937868867,0.42488817843738985,-0.22659578313545692
5.723830989,2.850077358294518,0.9052247614708916,3.1546360326400897,-1.141322884278163,0.5612678496694548,-0.23865299809164212
5.923881412,3.0357635480087812,0.25895801523618056,3.179177255723615,-1.5042605130645577,0.5820628597557965,-0.22920255542225043
6.123919588,2.9474656764730867,-0.37338901011460607,3.3412647279627685,-2.097871258488828,0.5392632570170872,-0.22071403343474638
6.323884852,2.5080063575067424,-0.9331639719815762,3.3729807562246483,-2.5677391775776037,0.4782953258778259,-0.21269570808091634
6.523837545,1.7737362243204249,-1.3411103763899166,3.388300607580815,-2.932719975704811,0.43165437014556446,-0.20627111381215735
6.723834777,1.2329453042357517,-1.3260036062717517,3.101430350658995,-3.3586091983510094,0.3532594823742309,-0.21334414528075396
6.923837078,0.6452429664556468,-1.087158042853042,3.018028431013425,-3.7483087774761157,0.36441269723950936,-0.22621329316457103
7.123876418,0.3175588772182743,-0.6233832520462066,3.1334704187392943,-4.217851026954068,0.6201618599483822,-0.10707717206269234
7.323865305,0.09392351160748529,0.051950559561894066,3.6282425190930128,-4.284094902335278,0.5029060792520981,0.03911548239112988
7.523868443,-0.36574461285510773,0.5065079171093225,3.700475095450794,-4.013718128172277,0.32830665112247326,0.12564022920644663
7.72385912,-0.9787662836566373,1.1279130007440648,3.5311417005309624,-3.65013274719916,0.25716170853668946,0.16539780041036123
7.923846141,-1.6806031415256983,1.371499712647162,3.299476469603287,-3.0685979899885014,0.2856214033799147,0.18555572334378448
8.123871127,-2.258935914366588,1.1641413882954248,3.1260263641419974,-2.7231203545338087,0.39172902400241855,0.18877150804370452
8.323830296,-2.8101933959670937,0.848115757050872,3.1154002575472823,-2.1752372134406452,0.4587674469825166,0.20415931383576988
8.523875513,-3.0270808523008568,0.2967260589249119,3.196106768148891,-1.9042925214058104,0.441776389450672,0.20101647303433592
8.72384124,-2.9795201020119633,-0.2944899688289245,3.1982221067054724,-1.3408687132145374,0.4128455280893044,0.19430858636514678
8.923835778,-2.71857548753199,-0.9072002949136263,3.2166823671954656,-0.7213752904549102,0.37114710816922747,0.19391067112166208
9.123836794,-2.3875779195830518,-1.3990955230266653,3.2288065340776466,-0.4744946047357005,0.41947077299209673,0.20645255873292914
9.323825616,-1.7404080754411382,-1.3738841621380011,3.2075994608502727,-0.025608528030586025,0.4671078961469232,0.20667426988801835
9.523830068,-0.9321263660917966,-1.3839203866635585,3.243365009962232,0.44416553725315705,0.4533014052547622,0.21568684126625798
9.72392246,-0.5760515427870343,-0.8097917523544995,3.2629286133846453,0.8132209286228803,0.45418439077448886,0.1903504832687893
9.923834117,-0.1461195711284995,-0.31966165474927016,3.545536845549738,1.2295995195881342,0.5592908616648254,0.02186974665813923
10.123826697,0.08994176699916576,0.350221119218276,3.750760091659131,1.0883863067111212,0.4469754870414658,-0.10132202764907697
10.323888901,0.5980630923848393,0.898401020575759,3.6871434066942137,0.7024602084428792,0.33784835866683033,-0.14900747686040144
10.523830674,1.0940970080540349,1.382257894536983,3.3711782486910895,0.41857085889932594,0.27835873592505844,-0.15743814174154175
10.723832634,1.6294262228597318,1.4127862082423424,3.095678264297729,0.06377260945157204,0.2821977012563256,-0.17573377751117786
10.923880082,2.396240249875083,1.3847517220156396,3.053582723256917,-0.5817362689772768,0.34275876031359753,-0.21477864277957892
11.123853304,2.881156230964728,1.053284278045774,2.937588836771816,-0.9064943358793027,0.49087440955022804,-0.2420168732172032
11.32383392,3.1274012228106107,0.4780399856694007,3.1293199328284156,-1.3193954680940743,0.5921394658259872,-0.23571836617580566
11.523899368,3.0961796593965563,-0.07275988682997042,3.390789637255348,-1.8011756108401888,0.5895415035324898,-0.21650777553375194
11.72383635,2.7854180789034424,-0.8186346602196997,3.4509296424944007,-2.2539745659580213,0.5123761567712609,-0.21567593218523348
11.923878517,2.315502138717907,-1.264202527619408,3.2677175932178617,-2.5861012119769207,0.4631577617001858,-0.20187056026831893
12.123835715,1.531077512207186,-1.423039914089053,3.128906930393948,-2.9796337167784306,0.42821018956797047,-0.20908306501574916
12.323836065,0.9798198183356661,-1.309066231368048,2.958885431697154,-3.67277110786942,0.21117175417597384,-0.28474389159714925
12.523834303,0.6007098186411387,-0.8923354583553654,2.9237655069804958,-4.134847335208635,0.5471019577471002,-0.18047141647721268
12.723834026,0.19803254072399654,-0.3686908482856266,3.605341538594145,-4.316293426413155,0.6068811006908864,-0.006546699876203606
12.923891449,-0.15589693427429546,0.36624782630039054,3.774534610017214,-4.150868955054094,0.4056403827209645,0.08875300195264245
13.123836998,-0.5659063699145181,0.8382847673743312,3.7163862562914645,-3.9979560946669945,0.29440655461904497,0.15235792450614977
13.323829486,-1.1698963328963328,1.2393968864542964,3.392995767279768,-3.3791552281125843,0.26812998988264725,0.17031653207248185
13.523866038,-1.9211236003457577,1.1963768836662478,3.2771540263947134,-2.986257343342682,0.3422917080298629,0.18864952954687844
13.723837235,-2.4532663091254685,1.2074330474877328,2.710557372873769,-2.3947471204933417,0.17361604387186502,0.26775696281022693
13.92383276,-2.5740616241608074,0.8424324132940322,3.0451613102171047,-1.8801877398878066,0.6011038127004529,0.17390118818269565
14.123933947,-2.864006212414259,-0.06209953779956257,3.189827278650616,-1.5758780855981074,0.4292854458714388,0.19657920720274918
14.323891538,-2.612457921294925,-0.7067094194601196,3.2754945179729957,-1.0702319718065476,0.3516047200244136,0.1936985895291957
14.523903662,-2.414621573682152,-1.0953725806153978,3.0796971582921167,-0.5814939393521119,0.36736524745096616,0.20058643733545886
14.723867149,-1.7750061309087672,-1.3397648821396755,3.197120569199149,-0.22695525240616696,0.43178607323585383,0.21788297874329485
14.923829311,-1.2396534844469504,-1.3327383126411028,3.1448384645479885,0.2572501316644121,0.44308397700098695,0.20655619326897096
15.123887662,-0.5951769129424758,-1.1814653395781132,3.346737434296612,0.6800782781735966,0.46327217908869067,0.19776494198035885
15.323840424,-0.2214253307355945,-0.7031201480984581,3.308782556467969,1.1596636255954387,0.5389642615288521,0.12857036958373616
15.523904419,0.09612857989024351,0.08956422066189135,3.756711201969006,1.245536205617303,0.5104457370044764,-0.062369628219708276
15.723885912,0.42557227744296383,0.6908304904430872,3.793197998084695,0.8983719213034035,0.37170786072126105,-0.14049147562029868
15.923892388,0.7241156067077785,1.2290413582146282,3.483774329569758,0.6928681679085196,0.3262880682091406,-0.16171885930952612
16.123833849,1.4967026674749884,1.4832307712433006,3.1821757149562173,0.14590368403849624,0.2782321467905438,-0.17559521759932364
16.323846903,2.1072708656192978,1.5453410048309406,3.010023741678712,-0.2709954368279472,0.29858851406024844,-0.20048722091495702
16.523901774,2.616679649078888,1.40849805857921,2.932501931041694,-0.6546694642419965,0.44096000613868835,-0.23564506443446184
16.723831235,2.9365759922356576,0.9707150414585582,2.9979473417598768,-1.251050448948591,0.6102906974004313,-0.2347182192920177
16.923835076,3.0706273899540055,0.24113266736514347,3.218765336331103,-1.7164525110223496,0.5792801577554985,-0.22941909418210077
17.123830563,2.88845243494692,-0.5002213296184703,3.3339539302884575,-1.9743682047673148,0.5450523867770191,-0.2198010580110819
17.323833353,2.530635882087273,-1.1127418422217954,3.3117708434360553,-2.531191089893245,0.4872504259810576,-0.2123156482162707
17.523890427,2.043391324531502,-1.3266110028460651,3.2546115877290083,-3.054413671063567,0.43261165660580614,-0.20205853329080975
17.723825846,1.4339628129545339,-1.2520957995333768,3.2094366510065013,-3.332371374017705,0.3472212257934103,-0.20939463170981618
17.923878359,0.8131322066307106,-1.0186957550284372,3.1118968576429533,-3.7785884854045118,0.3878393719594518,-0.22110774003106246
18.12388096,0.36840773836277674,-0.6967046410119727,3.2725016779588056,-4.186972637825725,0.5664388483713867,-0.11306574347968998
18.323886157,0.041286812659869235,-0.05291350890160168,3.7320944217605088,-4.257613994454778,0.49272457717204693,0.03788054636946467
18.523832988,-0.3075381639140913,0.5238326518292491,3.5975971056183,-4.085812897942743,0.3225269672548027,0.12788489919894783
18.723826262,-0.7710622717314171,1.0765594291377698,3.441080068715182,-3.6446289742757294,0.2565562699754393,0.16717875741608593
18.923829897,-1.5538196493984777,1.2962178412014698,3.3869234925157867,-3.1173743299968035,0.2962589815452014,0.1742658820926578
19.123883031,-2.106356022297814,1.182627631820469,3.129193674233029,-2.718204271298868,0.38792900200675456,0.19081156602444796
19.323895219,-2.678285894145061,0.7890136785301245,3.1657036720018605,-2.2854311261044735,0.4429494645856824,0.20417904537882428
19.523831362,-3.0918558179260227,0.144182065109284,3.2337196711843,-1.7674413746002147,0.4345044225401886,0.20095197257776254
19.723879975,-3.0340766263578396,-0.3343898878001271,3.150899304370145,-1.3992731697732967,0.3794314780520649,0.2040315375400591
19.923897708,-2.772624430222143,-0.9959170674628807,3.1853435556550336,-0.8289714862074937,0.3909376006290754,0.19718205119423468
20.123848111,-2.1498465218854874,-1.3049613132785116,3.109863595191875,-0.3810846188770316,0.4210870037399351,0.20641450833917666
20.323839903,-1.642008192729131,-1.4499042726012856,3.3164318761535103,0.04346129188063523,0.475548397461952,0.20875490359019908
20.523833528,-1.0173897323255792,-1.3943704060464077,3.2295913692274976,0.46546355320533,0.4653327580414008,0.18642319858669285
20.723834411,-0.5714397041642811,-0.9976526376196383,3.127409866892719,0.9851110794711446,0.49052072870515456,0.17106767849008944
20.923887803,-0.3137137520145432,-0.3896261320436704,3.5272110836065877,1.313234663961482,0.5699705537700435,0.014305544396825269
21.123904458,0.2044870387380849,0.43317132975639866,3.8238752175201047,1.0436258234577047,0.4389058734964356,-0.10568998539369054
21.323878222,0.5476529683628475,0.9352632729377937,3.7883447197389497,0.8835329852907086,0.31281974880621355,-0.14693968135953023
21.52391914,1.0707780034432564,1.4132736916021025,3.4526007515745025,0.37002903158070133,0.2884648865412758,-0.16364310426039202
21.723853803,1.8322474235597865,1.5419456276047723,3.1219659998958984,-0.05754987180643607,0.290514431429847,-0.18606829505989386
21.923827805,2.3474582125839727,1.4127139284858055,3.017449384861645,-0.35792698583915605,0.3411804224239466,-0.22051222930627906
22.12382603,2.798341798009525,1.1079825094267086,2.925189713258933,-0.8960365408398994,0.4877512031294545,-0.23702064524083982
22.323890974,2.9850497180900386,0.5850362640844468,3.1782094498511113,-1.3778215403021887,0.5825149393195198,-0.23670474804468236
22.523826621,3.028909188700549,-0.12298627875544554,3.371473462729253,-1.878921434344111,0.5566400238789923,-0.22604243038396146
22.723827198,2.7091105095204573,-0.7077426155535439,3.3611192887195043,-2.325393242037696,0.511797766033819,-0.2200248222854364
