time (sec),x position (m),y position (m),forward velocity (m/s),"heading angle (rad), from x-axis, positive is CCW",throttle (unitless; -1 to 1),steering angle (unitless; -1 to 1)
1.138132522,-1.1091964159971146,1.2910265898841453,3.383065117015662,2.8081037279789993,0.2659612237819929,0.18267765199649788
1.338130328,-1.8036278888542545,1.3029836802852555,3.129681451268222,3.2917757759950708,0.27173982411852055,0.199484616697634
1.538133034,-2.2318418233453943,1.2784610193608164,2.9933549083687327,3.7159166427593435,0.37025368207581116,0.21333363097822786
1.738140618,-2.881159656522205,0.8610218600873287,3.1691611784585816,4.13471641572786,0.47677989904575785,0.2329668352977845
1.9382145990000001,-2.8626757590552687,0.2571413034745542,2.9970157858893085,4.502412847218725,0.5540730082017868,0.2135733792113166
2.138191318,-2.94284832896341,-0.4365293358966815,3.3414776768616403,4.992185003770427,0.5212300175791053,0.19728037383806668
2.3381360620000002,-2.5742725994725313,-1.0649147346651031,3.4388214542221127,5.487919560497184,0.4724612140041988,0.18869122398144264
2.538232876,-1.9761170584793777,-1.2182668197292918,3.3189424573510133,6.025523584566205,0.3890253869173766,0.18886925295297066
2.7382137230000003,-1.4383596487351942,-1.4864953784305468,3.295964457051967,6.33439760684798,0.31610392180274643,0.19974883135148522
2.938134416,-0.7581539301779598,-1.407869305383905,3.0751333680712936,6.841354150055679,0.3463233393608316,0.21303807928711183
3.138149172,-0.36644836162643263,-0.9698748702855863,3.0839522398663073,7.132242299755038,0.48677235761318655,0.20346994474772773
3.338131094,-0.005414526980208674,-0.4049756867475042,3.5986599769158527,7.485217721579795,0.6117102136575264,-0.0017791925782735581
3.538164974,0.23871620813977715,0.04072197019309126,3.8435784640529285,7.445064716112891,0.4211563663089721,-0.11078968930039719
3.738142583,0.648321813877886,0.8566532275766012,3.6945674489746287,7.136799052955831,0.21861820865558046,-0.1935739156765195
3.938129361,1.297312731332716,1.376343041919424,3.4993565855419986,6.662778078999984,0.16475071943130373,-0.22417497021465327
4.138134304,1.8520221484517916,1.4726596265515208,3.121567215985217,6.145940237259713,0.3250935081258815,-0.25584291333401055
4.338133908,2.416332468883138,1.2264972697217544,3.070141022399066,5.6552215166511335,0.49720720151170067,-0.27615369791844413
4.538224463,2.9577312895028016,0.7677299619662294,3.178626874822593,5.180059298426162,0.5694978775896723,-0.2607787065952005
4.738214843,3.144492387399558,0.24806923894939886,3.374600903161805,4.688089890015388,0.5786054397357335,-0.2340494700471037
4.938145306,2.922602490052884,-0.5250333981959416,3.309788630002294,4.22565196046376,0.5024383890685035,-0.2074429531251362
5.138135086,2.506615362731779,-0.8786918143843679,3.310690835065321,3.8856751416216344,0.40196158171562074,-0.21796318492770814
5.338134261,2.059569178229015,-1.2812363428469498,3.2246838782569753,3.465782115047383,0.3374248258904145,-0.24234332568437197
5.538131895,1.4379603405275792,-1.4861115390025623,3.099218789761491,2.9352832878793946,0.36271305109938573,-0.26553812666606375
5.738134502,0.8520176193508346,-1.1591295989624855,3.231234290851078,2.4226982788026197,0.498643748992282,-0.26660544339479497
5.938225891,0.3971245156873637,-0.8894379131568267,3.283295463124062,1.88734908205568,0.6347585141401171,-0.1398576839478969
6.138130291,0.06996909164566256,-0.08178490644274472,3.739440445983226,1.9923437162647346,0.4955551240097038,0.02918658116633791
6.338134196,-0.36840003059624393,0.5664424124222359,3.723462080328459,2.2649817662783183,0.307862672914266,0.10606220700895305
6.538239385,-0.9291796569704731,1.1968778847078556,3.54566125114428,2.6118565386149917,0.21161859070710973,0.15126854044687033
6.738131469,-1.7284668585729595,1.3987573617885602,3.3976489746699023,2.9115551835667186,0.1936966999578782,0.171897223598644
6.938131554,-2.0744801357336153,1.444744574300957,3.031392777881071,3.501768267956618,0.29297684610414365,0.18720898330025437
7.138132969,-2.5911298559335054,1.0029591782243101,3.050570137279689,3.994731873156793,0.4449055141054501,0.21849011059116655
7.338131262,-3.0282270764966532,0.6507808744270245,3.053150496538945,4.461059293699805,0.5307961635525408,0.2110755525811875
7.538130603,-3.1204822192058606,-0.058918195998534664,3.1658135557954723,4.985058111595089,0.5650411152396847,0.1903453629107442
7.738139429,-2.835635657817347,-0.7288116152025228,3.3796441444740886,5.328792357237104,0.5209060186729834,0.17079167919727256
7.938146716,-2.36018471090634,-1.2845979685831652,3.376931344607724,5.749490353157506,0.44254240863481276,0.16497837108416724
8.13822256,-1.6482258086386716,-1.3824993393306233,3.253467974508116,6.153065506949931,0.35319361419401557,0.1764065170821601
8.338144077,-1.1648034612577436,-1.4119402077841117,3.3423780115768777,6.584337410847901,0.3190345132674789,0.18918671320831804
8.538131809,-0.5233691681630868,-1.0242949522929594,3.133363295675183,7.1924515534786435,0.40190564635494397,0.19927434567007776
8.738164684000001,-0.230949095412223,-0.6339754241732859,3.3083986782372925,7.408334417479001,0.6181230904109226,0.07849218378146244
8.938236004,0.07674693337136246,-0.035150246386456196,3.6940586149814028,7.377990211170407,0.49752162907086817,-0.07610283762627443
9.138141433,0.33635858392671175,0.6667470259369246,3.9007776663416234,7.342085161774289,0.30249580154393435,-0.16631250032473666
9.338151364,0.769830634964158,1.3231602769943067,3.512681985067771,6.852948080570365,0.20547975935914464,-0.2084815988863774
9.538131318,1.4169531945337863,1.582497742190227,3.153143061727853,6.375999101752078,0.26287739981965075,-0.24141686153197625
9.738220537,2.1086080582482065,1.39634372074353,2.9983790107577626,6.015225097639421,0.4295796736208862,-0.27464378047596544
9.938139974,2.674956003765635,1.12372195632831,3.1896880061840878,5.317081557156764,0.5915690393575475,-0.27199709941103306
10.138220608,3.0423511172744413,0.6590606429276964,3.2230816662750876,4.881273721984744,0.5887049384494546,-0.24648869839592866
10.338132476,3.1247344755107287,-0.02431108450303972,3.3358379199350883,4.4938691346180955,0.5654891013612813,-0.21209868467346127
10.538209382,2.7109474359072183,-0.5567326706296316,3.412266107722801,3.9202426287407532,0.470695569103496,-0.19111119703953158
10.738143754,2.2930691615823986,-1.1342273542921761,3.4064433543683332,3.6866399550693627,0.3349112512744852,-0.22454248171664531
10.93814759,1.5501805930385177,-1.4129939627662955,3.1300743724138544,3.2799809701331686,0.2977176720011912,-0.2600166664480917
11.138137748,0.9213495165341781,-1.2405601679325975,3.1883075940375827,2.7269772874452793,0.4198224591686062,-0.263619012957899
11.338143289,0.4185342992910266,-0.9682371194178172,3.1484493205620994,2.2933340195720553,0.5787277629591071,-0.22298395187588388
11.538132791,0.2644796235522823,-0.33835862483885815,3.4808955448519154,1.8937820266357233,0.6048050571464479,-0.03465369756125759
11.738133352,-0.11530222111790697,0.36713117968403874,3.72738411302722,2.1347469716761958,0.4201920366404675,0.07112788456261598
11.938232427,-0.6392268210233817,0.9903262398216072,3.783998668669237,2.33218349454427,0.2426347657308873,0.1318831652059683
12.138143696,-1.1883078061877257,1.458875665201954,3.440830551163214,2.727371777395287,0.1751964208779998,0.17562198228521392
12.338210777,-1.8971856712097213,1.71426284013504,3.2034990778003487,3.394472823522681,0.25001983230221697,0.18067827535311812
12.538188668,-2.4641795591433975,1.3302122102414689,3.0163912793762724,3.832319417376445,0.4004192120530895,0.19952163014569058
12.738132211,-2.850419984847847,0.8224027423038907,3.134615682660727,4.225839262644933,0.48586520198013866,0.22154281262602832
12.938185109,-3.2108289775969814,0.2521821251975566,3.1569273511227802,4.626541735626875,0.5540648412891315,0.20876469535751918
13.138147903,-3.0284468620885976,-0.28833190612238535,3.3573000397125123,5.205278346956868,0.5718446971459392,0.18936122038067885
13.338137173,-2.7273553517187477,-1.0310182934964494,3.4086457556191503,5.558888939307985,0.49206751380856606,0.17231237273909375
13.538128706,-2.1168618490253834,-1.1784288088661183,3.3002609740679856,6.006708958409673,0.3957708885536624,0.1677627695483747
13.738141942,-1.6694233347983332,-1.3775073670682214,3.3293394322393213,6.4014279979988995,0.3410530028536556,0.1876436674230538
13.93813164,-0.787675247428455,-1.355796628058216,3.0692801468873627,6.716979099895744,0.38962912528781596,0.21526438415792942
14.138134145,-0.34453943984066626,-0.9007159661446438,2.9973633325609113,7.201495558881796,0.5255305242175353,0.16316728877247916
14.3381341,-0.08925404198981325,-0.3370373038468554,3.5795623931861824,7.457746052212269,0.6315850419560393,-0.010995781193811865
14.538134943,0.1524842289159098,0.3187061440256669,3.742811421373256,7.439724040392509,0.3956959876202151,-0.1154518847459734
14.738133635,0.596887107376526,0.9642815091027704,3.706468167274433,7.147347933183191,0.22248875909289845,-0.19821925690111092
14.938133463,1.1255298091890042,1.4365512264938367,3.2369271631752414,6.639053522239015,0.1988317106509881,-0.21957952763352426
15.138134973,1.7971300399837968,1.5911200762171003,3.1286587257580685,6.232939913530726,0.3520073894331,-0.25399545166433596
15.338181971000001,2.641917589945426,1.2378104158994165,3.113506525484357,5.824503261296109,0.5114527063147237,-0.2717084603315016
15.538133062,2.7901172585862546,0.8978308950625418,3.2669957910604204,5.287941087607935,0.5693328851796131,-0.2578894269078085
15.738132585,3.0484822990257445,0.3151752679775495,3.3989151871834347,4.747700363598259,0.5605826036393433,-0.22809324280946067
15.938133431,2.8006049283306083,-0.31458938964966365,3.3368697196299064,4.241814463102226,0.4771003576208927,-0.2095382461427452
16.13813557,2.4573821678588135,-0.8807555225272439,3.405522189556522,3.9044940266996564,0.37930888559397935,-0.22100041662570277
16.338135869,1.9016303322268109,-1.2706063206418994,3.317871778383074,3.334358901088712,0.32050366232105315,-0.24379609910659056
16.538135122,1.3458499185331072,-1.303017262246342,3.212060392596167,2.958505994578013,0.36290748110211307,-0.2636375122942957
16.738131583,0.6961625818112709,-1.2208946206746754,3.103972350249298,2.532142158100042,0.5168910023139046,-0.2666198696203862
16.938141309,0.34708577530563073,-0.7089420677371805,3.434111627566885,2.0823221908392213,0.6260311418774058,-0.1493507399248649
17.13813433,0.07908342093531257,0.050256972819476775,3.8257030133332757,2.018375942301139,0.4966802672566771,0.023654819566219707
17.33814254,-0.3846293596848445,0.516065093203591,3.9493622606973147,2.2414102410708185,0.30622928454358167,0.10195871944250597
17.538131708,-0.9323284112116181,1.196747175359814,3.6367237412074034,2.5411688284233396,0.21744206834904706,0.1531464003180697
17.738137428,-1.6589885045657675,1.3063624559971447,3.2686273932029657,3.0952853142214423,0.19322689601334553,0.17602342432603404
17.938143127,-2.256093905412916,1.3893571635739004,3.0377344588432766,3.514088792999083,0.29252193041625696,0.19084861558100025
18.138130926,-2.625721799715436,1.045544959142566,2.928162321103715,3.8177493861923844,0.44113338130506063,0.2247349055259327
18.338131253,-3.0991746445352617,0.6519324175726363,3.2196389324890538,4.53655201964276,0.5353525471216593,0.21231564093519176
18.538132555,-3.1356217322463458,-0.15796701301109994,3.2148071972845655,5.057482363883554,0.5679373313391216,0.19217432318677558
18.73812902,-2.928888257468456,-0.7971325871458357,3.337131025046655,5.4610492994691935,0.5527587698946679,0.18685519878447632
18.938133272,-2.434220247059152,-1.1215275878825042,3.3845277845383843,5.822859166029335,0.46773757811431915,0.15926220979783418
19.138149872,-1.8420851468323705,-1.5444830820000517,3.4219919860410934,6.1598461306728485,0.35796376234561406,0.18057534910907957
19.338131571,-1.1907124209544722,-1.4201306498081248,3.207762250357187,6.54430675239231,0.31150744117838,0.1946722882595795
19.538128758,-0.47033189931286146,-1.0133457658805383,3.0936641178524265,7.173957859808731,0.40908712516789575,0.21090708933751143
19.738148424,-0.2419227759476998,-0.6484911762377517,3.2581442317220315,7.272287468595729,0.593217716067894,0.08950032226579936
19.938131871,-0.01608210017993357,-0.06030958275439083,3.8452633102278977,7.410878172851142,0.5318800580480307,-0.06689095938053849
20.138227388,0.39737680928808505,0.605723501639997,3.843586808404938,7.252012302966877,0.32099893235343246,-0.16045108262556015
20.338131959000002,0.803006072147991,1.0995416166119696,3.6682127539330827,6.8973143772272385,0.18693839087377043,-0.20658135383743176
20.538148598,1.4402377970134292,1.5553738162082302,3.154346989864574,6.464076861603333,0.2296941713286228,-0.23745337752298415
20.738146838,2.183757280181139,1.368182341199416,3.055985615744546,5.940833098245942,0.43601566143914416,-0.2718957873744067
20.938130979,2.731607904710039,1.0793776174820395,3.321840566524729,5.366376806007191,0.5492123643443522,-0.2652745567797571
21.138134029,3.013203658000358,0.6395065057785437,3.275111373406033,4.928013341334826,0.618533819526708,-0.23983425486804985
21.338130971,3.0522674792872455,-0.20303497662712688,3.424408132729311,4.329958719423645,0.539579066962283,-0.20594016781099278
21.538135142,2.798788732415216,-0.7254326823813817,3.4249831317915698,3.9640459024812182,0.4279713826914969,-0.206380353676527
21.738141758,2.124963946793481,-1.2944050460693763,3.338038179032584,3.6957671615102483,0.32950887088749203,-0.22861452677572128
21.938133864,1.6811981665041877,-1.4784491054454874,3.2801385732503565,3.274623633018472,0.32697028937402794,-0.25422909019796414
22.138133196,0.9202896996902754,-1.3591051910019034,2.9972642773157228,2.5914167086378064,0.23486974748581077,-0.25707947550231147
22.338132107,0.5593172779328169,-1.1355249364275375,2.989910048109955,2.275087199150829,0.5624864170857612,-0.23894836394372293
22.538131824,0.32032426584417595,-0.4575772500577373,3.5250149356931355,2.1482880532274855,0.65,-0.03270385777950493
22.738132887,-0.21281005178886347,0.17628629987459388,3.7330689902256724,2.087088797931618,0.42215312544815364,0.07042375498335408
22.938131706,-0.5992233741381962,0.8956090699366018,3.850054751105015,2.4706040112731626,0.26879799488594924,0.13370323153517358
23.138130298,-1.295815379202688,1.173465376551877,3.4473341148608014,2.826057367079784,0.20905613690171657,0.16269094123102368
23.338130896,-1.791807474629,1.2583456231626569,3.1756128842175406,-3.0716572066214387,0.25465705280891954,0.17310623746992435
