time (sec),x position (m),y position (m),forward velocity (m/s),"heading angle (rad), from x-axis, positive is CCW",throttle (unitless; -1 to 1),steering angle (unitless; -1 to 1)
1.134818931,-2.3929229636785547,0.7668356157268069,3.1206683125025734,4.536210872861768,0.36815799832026963,0.2027521613347981
1.33480851,-2.423617975204732,0.20990649970636416,3.102675524376041,5.054659305768247,0.3154594804568801,0.1893271449529164
1.534826929,-2.217796266701367,-0.3599713782162511,2.9986603664517038,5.502230624914884,0.31332728223695605,0.1926951245679773
1.7348194860000001,-1.6837862230314087,-0.7047861196974999,2.79615115579179,5.927931403607863,0.3120192188028453,0.20123865109845152
1.934830615,-1.011863575781874,-0.6772704527810571,3.051160119031438,6.371925773740788,0.32048979831822577,0.19451514409132822
2.134813516,-0.5061853931000089,-0.4763399728489586,2.8700282501545638,6.9793869773778985,0.31933664958935626,0.20672764893276932
2.334809851,-0.1992597616933517,-0.051712642630382805,2.9074699306194844,7.459577689311153,0.317243642287131,0.18124536341683517
2.534808106,-0.006151891199804291,0.4266228674937461,2.9520692330508735,7.651476683541544,0.3413171930531773,-0.015901639695389318
2.734817948,0.20051714138640803,1.0635822414688676,3.0042172812225543,7.450724754888964,0.3246080679505431,-0.17690815215936043
2.934809174,0.5094701144135686,1.46998060610968,2.992618473825305,6.957376529970891,0.33673390129791325,-0.21365430044858605
3.134808602,1.0706774677236028,1.886799601839427,3.1419195431139704,6.468833902941057,0.39500172725959726,-0.2062744088168298
3.334811094,1.6495501816882188,1.7694239140712913,3.040398999439909,6.067518093564006,0.4191545242487904,-0.19312434276008233
3.534862383,2.1824918937343587,1.3813057001467917,3.164226418756949,5.59821091445471,0.35629503829251824,-0.1850837102172618
3.734810488,2.6641490211637153,1.0214518604866394,3.0640255861529426,5.321242931366874,0.3428845765370216,-0.19559911093435928
3.934820929,2.898396695955067,0.44180476992420326,3.1791632205114007,4.763345899559481,0.3276287600947857,-0.20219629032071237
4.134822102,2.7321798015022827,-0.13239524519493398,3.0243613347909455,4.240945423816916,0.3247234596266373,-0.20595306716851133
4.334834559,2.394468125033136,-0.6568015826465666,3.0051447303360344,3.8895045618682285,0.3533766686120402,-0.20893848212454535
4.534813264,1.9349733126159407,-0.9395055650574672,3.063108357271469,3.3774047336629147,0.32892313736106593,-0.205246131601205
4.734844141,1.2814525506874614,-0.9357576434151544,2.9229689338235763,2.8776649657967237,0.3171906371168719,-0.2003530693211991
4.934931307,0.8004090655550264,-0.6646888440291314,2.7814744209798237,2.5043663854050107,0.3049314523714935,-0.2063436205006881
5.13481517,0.3036290882002946,-0.165187096141361,3.0411043287041224,1.9893377760103639,0.32464894672210304,-0.1677732481391768
5.334922465,0.07128121305599504,0.3502163142979474,3.098981538681105,1.8539390471073531,0.3591418287491983,0.05284047713888096
5.534922838,-0.032000775799044645,0.7898466251782782,3.2342178842584106,2.1000446070160015,0.2893837223483009,0.17202695439409135
5.73481706,-0.44944713402012015,1.341490314322579,3.1837304330817124,2.730116664218086,0.28429735645988236,0.19931605734874158
5.934813719,-1.199123555590568,1.5445692635352815,2.994522468459515,3.1415060801721104,0.36895403307809144,0.16980741457005508
6.134810543,-1.7124639548250677,1.3995696630423362,3.182008673291159,3.4692901378130645,0.37236937828178923,0.1652729150277648
6.334810675,-2.320522497273866,1.0754807378509974,3.192897409218801,3.7216591203686935,0.31756471492245547,0.18570243664172276
6.534893747,-2.545250014644977,0.5387393365508939,3.0703787281644925,4.476843928814296,0.30268292238812766,0.17376592598430174
6.734809993,-2.737922821142953,0.0028598625876708195,2.8987277531971314,4.835305740365249,0.3136575316776477,0.17327823465269787
6.93491637,-2.507367154312362,-0.5424230159490702,2.8495887296962783,5.334676049676689,0.30777498484668936,0.20436430241091272
7.134818985,-2.139719226764879,-0.9442166594375004,2.6976559104271263,5.879580222384052,0.3487132633894594,0.20014407535646206
7.334830118,-1.4936182482422307,-1.0941429774095988,2.884077051434486,6.245199162190399,0.36380553134545734,0.19491403569936658
7.534819289,-0.9401188794961398,-1.0599979703965574,3.01062960201652,6.69455064916111,0.35040296515829006,0.190569597236739
7.734819009,-0.5782575830674527,-0.7773864235285789,2.975361996265446,7.1591073255099,0.33283420736378067,0.17898298404145718
7.934808534,-0.19632020476074127,-0.2809472389708933,2.9425720674730322,7.5240687464400855,0.36195213809025817,0.09081314109679964
8.134832797,-0.104095526684973,0.4371859636402682,3.2519635325446705,7.571650874606046,0.36672877526103864,-0.12065907440576126
8.334819149,0.2889594914143152,1.0108608445403104,3.2503709326925208,7.2054649753512585,0.31190888909560144,-0.20434339691744408
8.534905508,0.7241458367866661,1.3006651455036078,2.9747873221465424,6.791111051024867,0.34987458636423613,-0.20584515318078309
8.734821264,1.2905374662527789,1.6522351506005422,3.1497216371988492,6.195761404344365,0.38145747789746276,-0.20147946662126548
8.934825761,1.827834517039817,1.4833584868300655,3.1087886023921625,5.923666746961008,0.3639951004582185,-0.19219055551958658
9.134816266,2.4064779119838464,1.2424166698486132,3.2556173508324306,5.49085493747122,0.3473983905773751,-0.20595997546589104
9.334807915,2.7052712697797894,0.5873545017384727,3.0381834700311936,5.0493243153792084,0.31486709221719544,-0.20150796859998235
9.534914102,2.7706877001132195,-0.10180143111079949,2.953866125172256,4.582402355496104,0.3139995909148548,-0.21328561231291507
9.734891077,2.6128594189503125,-0.5854707587472702,3.001581376790513,4.157814090975061,0.3295357641700494,-0.22384971390349423
9.934835238,2.1606586450935037,-0.9925690287110239,2.9084083865098878,3.6755789215877006,0.34306023106706124,-0.22338322054482912
10.134871859,1.5296304243848564,-1.0959132509496838,3.043519858317255,3.2404878526127567,0.3533513903274558,-0.22336573501167767
10.334822608,1.0254726547256539,-0.925321802909041,3.0506861966496372,2.711575370323489,0.3375421204782082,-0.2164254860586311
10.534919309,0.4602186438569281,-0.8256139903778891,2.892339840260623,2.1537477789557515,0.3098797530227752,-0.21589285636187752
10.734832734,0.2512111724471988,-0.17194758253402365,3.008903124275141,2.0085497386744584,0.3920449060101538,-0.07032900658519757
10.934830337,0.04826387592316425,0.3813859862011764,3.2145320465553415,2.0502508376506547,0.31897449792077553,0.11702236715705285
11.134815174,-0.27922214947003937,0.8961637381246905,3.181909511874128,2.468231657109773,0.26196979831142464,0.18712083616643882
11.334835274,-0.8431534317721332,1.2037007986604809,3.1957601558828213,2.9030760983866224,0.3102101102379986,0.18990746500860697
11.534897284,-1.6492387138607345,1.2472197158245941,3.0158971713989566,3.3043537187815004,0.3432311789616409,0.16399630003138194
11.734816159,-1.9622914689556012,1.0664568323046133,2.9976093207735537,3.73779096147255,0.3274228859677315,0.17459690948303783
11.934820179,-2.682806624886986,0.6720207913270579,3.0897253915222223,4.218203996459209,0.32878958651118173,0.1798894654813852
12.134812187,-2.8049672007733553,0.12976024039975828,2.947887881922951,4.598668950448428,0.27681449643214967,0.18649015653279796
12.334817912,-2.620517943441199,-0.5136066434431814,2.9762415942129588,5.068774756828427,0.2919607806465183,0.20076301484295972
12.534814896,-2.3707715392552795,-0.9473127916875068,2.8480315259114337,5.573766837202596,0.32463453325440156,0.19165019287178464
12.734814248,-1.8505817817580963,-1.2442308300782148,2.921789576813236,6.103119926849103,0.36995010374464576,0.20325283130795335
12.934815965,-1.2599106644418758,-1.290148265280605,2.953538502971101,6.456725140394178,0.37185852292145655,0.2014641630674902
13.134819227,-0.683381021142212,-1.0566004658853547,3.0412817149403164,6.830156603334604,0.39042853426737895,0.19491711357468403
13.334860161,-0.5118643600462269,-0.6825506534348195,3.043168877521053,7.4779002403238435,0.34857534565511733,0.17521879529135817
13.534815567,-0.23597608686557411,-0.05888323286362461,3.102382640598164,7.692367675519508,0.38789807486581096,-0.034365797738289475
13.734808503,-0.04145778711152923,0.5523424273764933,3.0610759070039704,7.535815213844664,0.3143818099740927,-0.18328570853296042
13.934810861,0.4582057611755978,1.0605333706174598,3.164528941409709,6.970972206057252,0.3217148274617591,-0.2273203339185033
14.134822306,0.9663663923870145,1.3564428801201542,3.0667465015990896,6.50751546490104,0.3717361287297962,-0.21895711171980728
14.334813081,1.499994468780829,1.572293691822977,3.120913790735527,6.066667348371784,0.38287236487196286,-0.19091403621614536
14.534811071,2.068650369394158,1.2529259200721663,3.1747424882136137,5.864972130957028,0.33523120238348464,-0.20508514274424214
14.73493569,2.4733299043238803,0.8367614434606587,2.994060988508241,5.2946959351650875,0.3377870332479848,-0.21871965134069393
14.934844876,2.8582091277197526,0.3095177237553926,2.940558116576436,4.678316185943228,0.3095343483034704,-0.2233209941379521
15.13491258,2.6242745950055366,-0.3022371659955266,2.937356769109261,4.350257409323382,0.32627735567474303,-0.23496610371242135
15.334825827,2.3271444947288433,-0.8070682345570946,3.0122738936140125,3.861457100674849,0.36754588474527544,-0.23662219482985428
15.534815958,1.7996794241308587,-1.0067250889667942,2.8085549325185903,3.528914331911361,0.33598941016449463,-0.22303123880266534
15.73481029,1.302048525059627,-1.1839742165774216,3.0588344717022045,2.915642429420958,0.34372614305630106,-0.2284655427556131
15.934811669,0.6719819629479237,-0.9973424678437812,3.1449262762714345,2.411555367145737,0.3303807791516833,-0.2241260685302726
16.13481298,0.3936482648035587,-0.47186741831737666,3.126603028327961,2.1617412877418825,0.353426491889847,-0.17777414181282897
16.334818845,0.09752007959549266,0.1424186882866765,3.1924930574401382,1.8700199350612077,0.3795332004240164,0.036539212662040875
16.534833904,-0.08815940097708175,0.6486507749177448,3.3465043569686737,2.1293756438788094,0.3135940798303293,0.15377381617522132
16.734810651,-0.7257777325991546,1.1041180609204213,3.292309921272014,2.6827774671300264,0.24783255828170123,0.18194735059058995
16.934818785,-1.3087485063183852,1.1428663125887382,3.0630426556704213,3.030710660233904,0.3462537651609814,0.16994722381907768
17.134905973,-1.721292013842019,1.143523209944942,3.1082721543822993,3.5424538139016617,0.34512775260836925,0.1656005384805607
17.334814524,-2.4928550795866227,0.8640620750920408,3.0816918952090724,3.8480642221285954,0.3047406188692959,0.17749028692971178
17.53482688,-2.7123192362488395,0.44193882709483184,2.9658384563821993,4.497727066044829,0.3002092040820209,0.17482054546374498
17.734877065,-2.7626647824632187,-0.22313396770673166,2.8489648011060873,4.897472690829006,0.32582155031798865,0.19726611490567045
17.934897453,-2.650996129780016,-0.7966139133844525,2.907848267745683,5.279143098681729,0.31766611994220506,0.20039659325920575
18.134810681,-2.215763451358809,-1.1542498950079816,2.7450313611372175,5.878997081309236,0.3571904719004052,0.206357896801656
18.334891459,-1.4111440004627527,-1.3674137285153485,2.9546303835457413,6.252704801296667,0.4179213608748127,0.208064094049127
18.53481271,-0.967994735874342,-1.1235610683095472,3.034685887198382,6.828017538473862,0.34655643076904785,0.1781368763868655
18.734817368,-0.49309740576723404,-0.9055401534217422,3.124557981626482,7.127748822564469,0.3448175020306552,0.1911064731743719
18.934902692,-0.35731356756884525,-0.35281275409183804,3.2056298954802704,7.4718676104657265,0.3605385000363187,0.1124191279976458
19.134824924,-0.0733638225412673,0.3064140685737414,3.0648639659690615,7.698031808500601,0.33990969830718254,-0.12746908600419274
19.334932846,0.11048970682779198,0.9598845483889519,3.152941795195879,7.1782907999483525,0.3114557008481753,-0.22375256865615378
19.53480881,0.6709102787815692,1.3212992192209911,3.1469783111896996,6.792877554148517,0.35720927059655466,-0.20662881456865345
19.734809252,1.2006533260560401,1.4922279917287082,3.187185191264637,6.25752189933708,0.37503201429626265,-0.21673244729304905
19.934821724,1.7066065212957573,1.3845082403681768,3.0234802059689723,5.922664262396124,0.37424959500311455,-0.205743187846455
20.134860138,2.3742645907184876,1.012506522053076,3.12214977168983,5.512614154577525,0.3315469722848457,-0.20428710013135273
20.33480913,2.799315152920532,0.5316807925207809,3.1240346683975,5.013062975110582,0.3078117067225077,-0.22056976127711722
20.534988683,2.7064739879220365,0.09239279244251354,3.114285650834292,4.5867499653477735,0.3210901267804535,-0.22175256258598228
20.734932003,2.5991966583155843,-0.5327554057944011,3.0010549650718823,4.11131257743094,0.3685773153079322,-0.23672815680323162
20.934813837,2.0745012376318464,-0.7984378919854823,2.9722770902047935,3.721601403247424,0.34135525149902984,-0.2358292883493454
21.134829915,1.4245655090937486,-1.1965812493746755,2.9008536708580848,3.2582390887798787,0.3610900540649288,-0.23405219385427709
21.334818435,1.0671777797293003,-1.057484376683757,3.018248304342149,2.8675186812010485,0.3262639605068301,-0.22556941108978815
21.534834255,0.4627214970201444,-0.804861219127763,2.80457568932811,2.3013080006974613,0.31002012596718836,-0.216878421042479
21.734911749,0.15317670288994223,-0.19969062876982452,3.1680138233504627,1.9841275729930792,0.3715913885989336,-0.08365163086172293
21.934818346,-0.13962592815379077,0.4226385308818839,3.355821421814161,1.9276471998776707,0.3148297668353733,0.09943477131411109
22.13484969,-0.46033640794394054,0.9929094330651982,3.4616763305226463,2.3144337505570816,0.252782827791956,0.1909169439201171
22.334903298,-1.026641997279223,1.287066288697484,3.121062484157817,2.890730631582622,0.2748159333756447,0.18940354545283872
22.534809882,-1.472199343794603,1.2161631219410418,3.0340608180123487,-3.072510680929034,0.3402735385850052,0.1641532371483299
22.734814692,-2.0737336549340695,1.1570295566878321,3.0979287172073953,-2.4749666241547796,0.3430947179905054,0.1739084706353726
