time (sec),x position (m),y position (m),forward velocity (m/s),"heading angle (rad), from x-axis, positive is CCW",throttle (unitless; -1 to 1),steering angle (unitless; -1 to 1)
1.134739925,2.284505537366001,-1.0160817425562818,3.2954236956113503,-2.915649028329833,0.47428477682941733,-0.26436266903652395
1.33473707,1.7159897108056694,-1.036145481804844,3.234995408740531,-3.5171952293931503,0.37650319259076964,-0.2573431803403921
1.5347302919999999,1.1016325636582163,-0.7048241943922425,3.0853624570621903,-3.9978203073038308,0.4539081036460494,-0.18504149589996488
1.734730474,0.5936083242957138,-0.3155635383719042,3.4371625041647413,-4.043621654125442,0.5859258266161382,-0.014621332467023013
1.934754957,0.24006520026442096,0.386023867906368,3.7063385484295774,-4.09106366955861,0.40056357064208825,0.07489265082194738
2.134728051,-0.18743909998819366,0.7703315665636115,3.806879550440896,-3.700713380655387,0.25278767758455495,0.13572597161677313
2.334755312,-1.1130737751856083,1.3229836826188963,3.5821188716559886,-3.184733019897506,0.21689168442867057,0.1526084612407777
2.534735104,-1.6188223807128337,1.341184854942267,3.346111872334754,-2.669650801240879,0.2884026331514864,0.14984685302513145
2.734733117,-2.330031144382625,0.8873329835221537,3.2485377851297725,-2.4570805095365853,0.37494419503326804,0.17392939247268113
2.934740868,-2.584953046326355,0.35385641502273524,3.1044027787419886,-1.945645905621411,0.4030221171864786,0.18258426249233445
3.134735302,-2.689238364322983,-0.21846385139009,3.2712898242706197,-1.581453724654226,0.3933219446670198,0.18832633978282473
3.334740623,-2.5002497328813886,-0.805656710976266,3.071342277593377,-1.0213898573131674,0.4048897096070895,0.19994982279961623
3.534734658,-2.1321770148741006,-1.2440641577106852,3.0965316740138213,-0.6717481414837568,0.4323541483395963,0.19918612038514324
3.7347352430000003,-1.6219449703347244,-1.5174723065975597,3.103772482965549,-0.04187301230848145,0.4268375310508666,0.21014446504567533
3.934737747,-0.9067393493279754,-1.496799852606844,3.378209330024838,0.3615348091818243,0.4400073444546797,0.19515031533994381
4.134733986,-0.29129581277170896,-1.0452347209727664,3.298637952900839,0.8116418846772251,0.4147502370115298,0.18686280568552688
4.33473323,0.04957635520140586,-0.42793145372402447,3.3365288272670606,1.2454126286765321,0.5149327028500487,0.07938786625986474
4.534736131,0.3137904820636366,0.12097986200321696,3.8168238417805775,1.2169477631864933,0.46798912041214735,-0.08706951981035743
4.734741665,0.5968802445532639,0.8705562846432587,3.664436970691502,0.9679412569034924,0.34083431008505055,-0.16201584092620994
4.934738408,0.9352657491272388,1.3410199748473939,3.5630231757446955,0.6465564500927362,0.30875014541926615,-0.19328284993503891
5.134731736,1.6992707238516433,1.4291817198593284,3.2717123152696352,0.1532268729558846,0.32341779180743246,-0.21521072269692626
5.334729784,2.3453242934264558,1.431980593712624,3.3371551723879436,-0.4821402543615779,0.3828518357766516,-0.21710344075138668
5.534809178,2.8641379600042804,1.1343716624635907,3.271349346723345,-0.8929588156057591,0.4879929602673837,-0.2363486370740677
5.734735127,3.040985134605911,0.5138478024552895,3.387022593071619,-1.278852164370281,0.48274090882888393,-0.22930263778481033
5.934727212,3.0980615620423926,-0.182540827103742,3.4829028088865894,-1.8193584251665826,0.493740380892229,-0.22622805702041757
6.134736122,2.938874840131255,-0.795518878072169,3.4995008835684267,-2.2605356789224067,0.48128128276612336,-0.20981281036369384
6.334740677,2.479367802644275,-1.231702821512696,3.4316021455616577,-2.7341242820108977,0.4398927874050237,-0.18975071824308887
6.534747095,1.7801915964024586,-1.4762148142789833,3.466181396146469,-3.0603511058773334,0.38877883837104205,-0.19717734890538582
6.734728811,1.0390599332675248,-1.4807649787510855,3.2981903437930815,-3.4330539242394944,0.15364922442692222,-0.24320452368805176
6.934730182,0.6703855454790805,-1.1299981217627009,2.9107585907824847,-4.030625021668446,0.4037316508915581,-0.21061235093357536
7.13474933,0.2838241774070016,-0.5217564170998815,3.409591983930725,-4.261604168231528,0.606101168967475,-0.056047562898687654
7.334704649,-0.05504163649667752,0.11141396535594308,3.7684563367031747,-4.155196904995709,0.3961083215883861,0.06189634409001392
7.534733415,-0.5195496038831457,0.7498597055297973,3.745051592477573,-3.9993608867489616,0.24567360677576225,0.12767264672785153
7.734733352,-0.8598323066361515,1.2037798863273115,3.4721773452026574,-3.4997626389086607,0.19699921832803724,0.15311876634987556
7.934752978,-1.545688889897829,1.39657257024468,3.2038785154273763,-3.065839972860721,0.2599988733568805,0.1665914495976145
8.134729509,-2.17430914005941,1.2806883256443429,3.0459376852512245,-2.7010929834380653,0.3680131882205747,0.18186111875123454
8.334729173,-2.691351298429287,0.8885319159883588,2.9978836361072436,-2.070058986110711,0.42157099749651206,0.19532080032116672
8.53473369,-2.871412872938151,0.11026137217047746,3.0753391848239353,-1.694585664362065,0.43005778598818256,0.19169938650499277
8.73474557,-2.7982805239949498,-0.5049774223809429,3.3095549976569782,-1.1362641512343623,0.45002769755430366,0.18773299161580587
8.934732499,-2.4860753836238274,-0.8996838571296397,3.3026978471145956,-0.6913585950189295,0.43034824895042534,0.19367190369125284
9.134858932,-2.110647775690948,-1.3396980993432326,3.194982798731028,-0.2901572102636525,0.43684277633225393,0.19498124927996038
9.334734023,-1.3456929141307294,-1.4752932872745277,3.336943076833739,0.2598611114633132,0.4575230130442104,0.1991031563636031
9.53481246,-0.7847045651058282,-1.2066458113504228,3.214228847222715,0.5433428342310682,0.4098973842632111,0.1901013993079207
9.734734319,-0.3265794511606436,-0.7559024502469466,3.201696806050019,0.9553718180577229,0.4292978323237724,0.15884682672902223
9.93474856,-0.06510409204388938,-0.23646881988342788,3.5620657212144478,1.2000983018364142,0.5592452144423443,-0.024943745988628408
10.134745645,0.36598970822385335,0.4943508485112782,3.6849094924152737,1.2337457885767513,0.40802364091231963,-0.13986623092216993
10.334738146,0.7248497608021989,1.0788370707314594,3.5974107760654377,0.8446470075782105,0.32800500921427994,-0.17712159992168772
10.534731063,1.2491180771669093,1.390326525186182,3.4531606456181008,0.38391885734858255,0.34412539676871917,-0.19823306184905748
10.734725722,1.7577062353333963,1.5369299912275682,3.243617149295338,-0.08882065980734352,0.36029248390516183,-0.21691722858828863
10.934728295,2.410279809264894,1.409523598231394,3.1076572457644636,-0.5868340076496796,0.4343710268489431,-0.2329796485991499
11.13473665,2.8790785342657728,0.9334020359211036,3.444472667309235,-1.1246515382572861,0.5247621984586979,-0.23849184427699052
11.334725632,3.208661427726853,0.32522391513442434,3.3947339135772476,-1.5387847706921494,0.47653348966706316,-0.22956105410902153
11.534732962,3.0355305494289424,-0.4037545919998041,3.462256906711138,-2.02783464743791,0.4916711173189852,-0.21669850400137738
11.734729329,2.8057288415478845,-0.9596877290267349,3.490231555621111,-2.4465785568842913,0.46107647756972603,-0.2006467376490111
11.934734858,2.079268631659112,-1.264566649730243,3.5131283634876502,-2.9018213280323244,0.4071773751139884,-0.2006749658534446
12.134740762,1.3764424784813816,-1.5571171635098913,3.5045262213184327,-3.238496712863504,0.36999440269196965,-0.209203111505902
12.334729728,0.8966802958174541,-1.2452800628965734,3.1747322399553983,-3.664123746966318,0.34176822463588613,-0.20758112258862718
12.534729749,0.38928181673255857,-0.8570413775738063,3.326978765248509,-4.0955486726149815,0.45915920908514624,-0.16500192345496748
12.734729604,-0.014497708367858717,-0.2267148861416583,3.617035885602403,-4.283100145965413,0.5206982655123811,-0.0013744997692265925
12.934730287,-0.4044832691503722,0.42615726257158365,3.787923967892289,-4.202871176562749,0.3131262731437362,0.08521601589699518
13.134774631,-0.8227037506262449,1.0589055741784132,3.664922602136029,-3.8082417770159647,0.18345639110367068,0.14538020252340056
13.334730797,-1.6289318326254891,1.3086108640023038,3.39267780042804,-3.427978213407568,0.17572608690666155,0.16621628331796318
13.534735499,-2.0550619145497677,1.3462328891561548,2.9823819408366594,-2.799654105748134,0.2753764123594641,0.16638504808691795
13.734743683,-2.734904084422019,0.9194419894911621,2.957148695576312,-2.3460287248449014,0.40343430913217376,0.19938827320899552
13.93475813,-3.0560030194042382,0.519788047238116,3.190764234902639,-2.113494326766491,0.45534472454145025,0.20424613060662028
14.134731463,-3.0253610727812212,-0.03448741793094569,3.234026106869503,-1.5366864843599621,0.4518713753213726,0.19894941494511414
14.334728751,-2.861177899357885,-0.6912080831952943,3.2628118854009625,-1.065548237229341,0.45589014342260853,0.197187302705542
14.534742199,-2.4479504207813862,-1.271657817772702,3.327312068011181,-0.5852140986603604,0.4632882597967229,0.19556651116759155
14.734736526,-1.7368511308658836,-1.326709074260753,3.289065239653705,-0.17051465910562427,0.4425686289723892,0.19901392359934716
14.934762376,-1.2086822470293397,-1.2849078433497299,3.2720607678731244,0.3766205155106442,0.4250342232644472,0.19146665603099716
15.134741974,-0.5949674777219243,-1.0460635481151133,3.256974227996105,0.8458888794315061,0.40513919438689433,0.17654134678913924
15.334729013,-0.1590102765451501,-0.2840820925513965,3.2533753347956527,1.1809795917042025,0.4707190252483564,0.08352560745694855
15.534741891,0.0224068890307069,0.18964474286278904,3.5696326721915073,1.2742194946683698,0.5096415186630999,-0.1045627961654016
15.734736927,0.1758995365840888,0.8929312784960992,3.6718247268324493,1.0585277030882783,0.3583926588867737,-0.176314402827143
15.934734289,0.8048579645608969,1.4640209541002065,3.538746248421774,0.4784913149658271,0.32000276664201727,-0.2026980939768778
16.134812233,1.4887702891165002,1.689116512815296,3.386829247701641,0.1719571541640666,0.3604727368876043,-0.21376572131338548
16.334733672,2.076509567765932,1.5328727213446571,3.3808492777329957,-0.27243714252141504,0.4596309401802432,-0.23207707853318393
16.534730592,2.6258160554677423,1.233257032530275,3.3713522747247935,-0.8380580447597135,0.4464027059323791,-0.24716409556473357
16.734727512,3.002169407183926,0.6565821069206543,3.4653206708602737,-1.283037471393806,0.5052908720061761,-0.23968044933299962
16.9347413,3.2087087196592483,0.06379696285150338,3.3908918420529197,-1.579418071247937,0.4916705032730846,-0.24075993099578152
17.134733956,2.950536776060447,-0.5191466002859919,3.3712164085976086,-2.127146191599034,0.4774232732970285,-0.22593212786243178
17.334731742,2.3942370352716735,-1.1642144826516272,3.4785194675259814,-2.48436372187064,0.4402830047012044,-0.2183906711073525
17.534774281,1.8138349310086348,-1.3761324080896145,3.4826712735822896,-2.9949470094467174,0.3753619149017809,-0.21354270438451706
17.734738331,1.2254139048466377,-1.4015803234034998,3.303822835639004,-3.391190946821904,0.36370890813141266,-0.2171631427344114
17.93483326,0.7016680443657975,-1.0214146674475417,3.0611379754876387,-3.943480645103196,0.332430601038371,-0.2598682398143162
18.134736047,0.2823547129484793,-0.48734530406907217,3.427643654944539,-4.23852652339815,0.5919192694544835,-0.07117018417928911
18.334732609,-0.023944093715897924,0.15306410606916598,3.563273130621076,-4.296660734561651,0.4315115196204776,0.04755668260578367
18.534729831,-0.4814386732277464,0.7175289878897955,3.7209513793925506,-3.9302538557008164,0.25400149948829204,0.11287815262485446
18.734733932,-1.102402918077271,1.0518299546765617,3.4406666615402255,-3.4511278398188847,0.18054049122869362,0.15427295185858045
18.934794517,-1.6814639008161059,1.2897425312858295,3.090390091315641,-3.0815460183067827,0.24334069281086962,0.1562281674370864
19.13472975,-2.266085901947034,1.1544573874428306,2.9306488188673776,-2.5549526179790476,0.35642873697676936,0.17291192373536968
19.334824416,-2.776259585453483,0.6955681910021476,2.9376730200044743,-2.182217122717523,0.440572914736328,0.19427806377462287
19.534747223,-2.8779327757750752,0.009279279785384786,3.2118251250588172,-1.668547376382053,0.4364579111832501,0.1830629374528641
19.734731985,-2.9558962226343652,-0.4880676852655086,3.2072720416986975,-1.0184636416013204,0.4343278613219659,0.1824901270365281
19.934735731,-2.498679230087849,-0.9452275467092306,3.205152321662715,-0.7928444005189335,0.4479461577996016,0.18417424641449212
20.134752779,-2.079427161499617,-1.3980457856540358,3.2427276126118727,-0.3202887384996089,0.4464702775406957,0.18294884539572845
20.334731529,-1.252117310549136,-1.3782580769727546,3.3909578117460786,0.10366497888765638,0.4418072880410441,0.17659672957364844
20.534840186,-0.771980063319861,-1.2695694017662995,3.2387368155125307,0.6184922202979377,0.4162546781097506,0.16179191421381625
20.734734917,-0.26615566713363936,-0.8252797350363547,3.3371437066764713,1.0695596111512238,0.4398202726995831,0.13118111347851774
20.934734391,-0.007806616939338019,-0.06812427361785597,3.41082100681455,1.2432842457187505,0.532411694760558,-0.03574381537758677
21.134726975,0.2531677527925187,0.473459056930829,3.6883220485576746,1.1879704274116236,0.4100316986020617,-0.1410366955790881
21.334819948,0.5454412770690559,1.1757157041599946,3.707859716124588,0.7864545242976599,0.32880476225666255,-0.1894406820898579
21.534729438,1.2263836879833878,1.7145933417372667,3.3629452203707624,0.30557062304212124,0.3502314775553065,-0.1966980946519215
21.734760263,1.9553710058187885,1.6363123113625635,3.361416866444996,-0.17375848016960596,0.38183164975292266,-0.20558481016595417
21.93473617,2.5254076458030212,1.4140691224749335,3.2497796859542354,-0.6550018229620472,0.4354539253574342,-0.23116675366351336
22.13483736,2.924009601953591,1.0175271766519272,3.3717382373233122,-1.1958558888223492,0.5049051408409995,-0.23402453290051944
22.334734711,3.1140235233653186,0.28502439015367326,3.4891001048819192,-1.4686855688642098,0.487154592327749,-0.22261269874871997
22.534737357,2.9013249137976795,-0.25030057185960464,3.397341477627374,-1.9589297065167324,0.5072049098208037,-0.21626271497276645
22.734752177,2.6204699678820975,-0.9279886842584147,3.377097099175277,-2.5189395647647244,0.4579026840810554,-0.20450852592555507
