time (sec),x position (m),y position (m),forward velocity (m/s),"heading angle (rad), from x-axis, positive is CCW",throttle (unitless; -1 to 1),steering angle (unitless; -1 to 1)
1.139435286,0.105161904779067,0.41236534693998944,3.620669146038777,2.2295034890385246,0.36284197970493615,0.0886351976926812
1.339438381,-0.19244740395107818,0.9860174453975654,3.559354794927204,2.414438861861473,0.2793834431427584,0.16097260217706671
1.53946083,-0.7426475606613641,1.3111580677650234,3.2686161931975937,2.8426707645313196,0.2800215623711742,0.1737833183712959
1.739515026,-1.5271378388459627,1.2462076903346284,3.055465790612773,3.278370828467746,0.32385221115751,0.18966187862220146
1.939437732,-2.0701773751787176,1.1637530916604102,3.055637052820294,3.753579372734219,0.3250613221119025,0.19867830385017646
2.139561755,-2.402723829895288,0.7709151446896626,3.126640018984014,4.061417295785547,0.34504185360569833,0.19779023836791385
2.339438558,-2.755180410929306,0.2640032005444053,3.022507053387367,4.637016431653806,0.37481045235528027,0.20481973456219568
2.539434376,-2.5630600622303543,-0.3393217071267617,2.986719577452372,5.0704888483372645,0.37866661411760405,0.21700748169852713
2.73946928,-2.4529808524494756,-0.8965471038695493,2.9327588898191914,5.5461030227538215,0.38895380930953455,0.21786290594015786
2.939438016,-1.9750013816507337,-1.2765626808917578,2.848194077463811,5.925024700467224,0.3639308317113468,0.22175501921337556
3.139436135,-1.2104834860787501,-1.1445249308701992,2.9067280131405133,6.339831042802209,0.34908043466554417,0.23338795195450077
3.3395483710000002,-0.844902722989848,-1.124522086442407,2.832920668664157,6.908591376418548,0.37630976268813804,0.21871824576912077
3.539436298,-0.3470960176193335,-0.7950382640847055,2.853997302974746,7.361050207094017,0.42573317616900436,0.19547017401799027
3.739458258,-0.15330565581838196,-0.057287726445664044,3.152867826414599,7.445885221303402,0.4644627909130895,-0.0095519045343069
3.939452884,0.25084516699404635,0.4383393414892949,3.510183495485411,7.351859418100182,0.3562045538382682,-0.14590586307505699
4.139434551,0.6495032486797968,0.884112479548489,3.188852213340821,7.110969240443919,0.26293857933326237,-0.21603834625490415
4.339530429,1.171550356345406,1.446962641200791,3.0213606215339617,6.497138405136086,0.2829350444818932,-0.23252883545767328
4.539461071,1.7943697875294753,1.3915653608651841,3.0201440790388148,6.196946315024931,0.36465851008911476,-0.24127410639845515
4.739460911,2.297295863745529,1.2279681889977447,3.093936653942257,5.656321539122685,0.380524077782501,-0.24715501250987307
4.939457604,2.778957932017095,0.7679890569789527,3.0404905640750783,5.24342551547626,0.39353105113173475,-0.2502372704850405
5.139585806,3.1190462604155496,0.07261951944455029,2.9412206309905544,4.762410599699817,0.39575135326423705,-0.2567178162035949
5.339450332,2.8870193778658737,-0.35496688613501887,3.1023310289903003,4.337539195776803,0.3787827640990532,-0.2536626640184485
5.539434963,2.4218551868298186,-0.877038595505234,2.980856717648521,3.8715397957252504,0.36277325872244776,-0.250863800409991
5.739439959,2.006568624258873,-1.0801967515001418,3.051725382474044,3.3205083875403796,0.37751925299079486,-0.25861391585083765
5.939433843,1.3287287229311955,-1.2105060028794714,3.0217929856520365,2.916329809249613,0.39248782312597286,-0.2675272418003497
6.139432785,0.9229881584507453,-0.9612954734571767,3.0166647282524375,2.4469852164254258,0.4502950481543029,-0.25949330989875474
6.339484495,0.497854165126992,-0.669555383221447,3.217689476187185,2.1021204249442236,0.4654306132383351,-0.17061048077865731
6.539503765,0.10924909774440943,0.1144239538996997,3.3787171322201677,2.0049592311376103,0.4541562417832642,0.0409830098457348
6.7395377320000005,-0.050800253990440025,0.7043420750045486,3.6365668551665493,2.3005225601166854,0.34150914496213697,0.12951911027184967
6.939458782,-0.5403909066031716,1.0909785563841632,3.3176402668931013,2.578860227673197,0.263147010924465,0.18548048024916733
7.139433869,-1.3926267023635528,1.3749058283290474,3.175452373193951,2.9494950291806035,0.28670958905941213,0.18182628586738125
7.339439667,-1.8063774525557839,1.254104312190593,3.158165968959748,3.676547143437351,0.3314093581292718,0.19835402512241113
7.539532845,-2.3749502815328505,0.9416032121499396,3.055956952826845,3.952634259056468,0.3427681681747539,0.2041147364454252
7.739435117,-2.6258810087667266,0.591191155353728,2.870358610128019,4.338418547638207,0.37628574910761287,0.21606733195577044
7.939560511,-2.752054190754603,-0.05591823431887071,3.080073124718247,4.73825772687271,0.41487571197366013,0.22344739808305752
8.139434409,-2.61651039071813,-0.683113539021197,3.045287228935496,5.288713636925969,0.3783028286526885,0.2160776204831029
8.339438271,-2.1459658152355545,-1.2465896855018157,3.169806598792494,5.7033179912378955,0.37807907009917385,0.21243429604638592
8.539456769000001,-1.668867374225864,-1.4411646995342116,2.9729932540491557,6.2000742535474025,0.3704930575212045,0.22485310783106638
8.739463938,-0.9366795369786183,-1.4332166037822833,2.9151078194872415,6.792117478680962,0.3597406784121107,0.22027669758497795
8.939447996,-0.5361292058657372,-0.9591742956146659,2.9331176155812835,7.008180993510518,0.39824775029739484,0.22585848949501713
9.139445974,-0.07424368303576223,-0.3676154142566592,3.079798926794123,7.637576238174753,0.4569364170727412,0.10774812299530204
9.339437256,0.06820701670077313,0.11498752615527032,3.1994687159638375,7.514666231563724,0.42666477510716194,-0.09797493725571896
9.539442171,0.32365797034252325,0.5870595859618286,3.4375115809705545,7.221290748872582,0.31145576299870326,-0.1972789450289186
9.739434288,0.7217478346889153,1.240117262213137,3.191777488395079,6.8173292291139935,0.27374832945172717,-0.2115259333754226
9.939458212,1.468542102352774,1.3316797128611004,3.0621889891455054,6.393836292619633,0.34260032166304044,-0.23001075513863584
10.139455927,1.9226669230297109,1.4184481970397915,2.962005477671376,5.776131842453731,0.4307889612184195,-0.2536483212130819
10.339454842,2.415192252655668,1.0290781333999695,3.0400670190041708,5.395887415146835,0.3934083415880963,-0.24862125971870813
10.539449669,2.876033614816838,0.36278501190952134,2.866531033943836,5.0281318388274,0.3988215736676327,-0.2463382038923596
10.739461259,2.812803491280549,-0.1415262723164225,3.045918555884096,4.607880744051303,0.3763689934865133,-0.23935500298468132
10.939468471,2.557595058259688,-0.7296021135722024,2.964835229157957,4.113851141723073,0.3569432602264063,-0.24739987308098157
11.139436093,2.273575740412221,-1.0955424578824389,2.965094279283962,3.668094657654175,0.36858489700319413,-0.24434557359601472
11.339434888,1.6820370039682773,-1.2806194122765597,3.0049950909372707,3.0963251046189777,0.36816872534760625,-0.257266172142433
11.539433505,1.086946916581306,-1.1988079652076415,2.9513675789776417,2.638926935690689,0.42156334020244984,-0.25746453091465926
11.739461272,0.6698278555222772,-0.7075095764482517,3.0600846190999036,2.2270185943730803,0.462722218008271,-0.22717721947424316
11.9394541,0.2808281178496676,-0.14038710534563412,3.324758057948614,2.008236095452853,0.4644265382301764,-0.04953813815321276
12.139455977,-0.05011318154365493,0.3585098393191424,3.626645776946287,2.1435017410951445,0.3630971094955588,0.08618896813599197
12.339454514,-0.4682992296118076,0.94685042197096,3.3812294469382254,2.0973113584818015,0.26788727467688556,0.16370583546945
12.539449797,-1.0505030019161286,1.2951354893890425,3.102786203401071,2.9120141144763085,0.25298033439105444,0.19321028504585935
12.739435582,-1.6112876264246532,1.38217661356807,2.917560329348479,3.4175158755328585,0.31639834099517883,0.1922231492544694
12.939431474,-2.1779334664788625,1.1785310442642858,2.975601230865415,3.801012674668449,0.3431679850247723,0.19721879441167864
13.139434341,-2.682860504650901,0.9030075430673057,3.0344746083188565,4.188686065418743,0.3525944825196816,0.22804694471443818
13.339434993,-2.7403786306355307,0.36015596939501815,3.079929609889453,4.6599067467750075,0.401598968102333,0.21780863999593716
13.539457226,-2.7426747588455913,-0.2580160415534067,2.9617715924598107,5.102496709134041,0.40333252614834975,0.22631434641438322
13.739493506,-2.6042689543617454,-0.822702032990168,3.0432815017630426,5.54542063040722,0.41256610097113555,0.22286088005020488
13.939433947,-1.953842374790586,-1.2270737848139879,3.1301091665712675,5.835496129907628,0.3856927525815106,0.2084880167855405
14.139527501,-1.3999144199881872,-1.257359752516198,3.0604522181605467,6.3655305491862935,0.35131868787097864,0.2222307032791238
14.339464495,-0.797779520149184,-1.1700269505261591,2.8059680411912655,6.747601718541952,0.3841892521705603,0.22657254285084003
14.539435154,-0.4617042452146501,-0.7378464719531647,3.0785630540485283,7.2637543107957905,0.4265302210853628,0.18659929858131408
14.739530707,-0.15744933312719966,-0.1928404118636931,3.141870386307739,7.289493814693529,0.48292762833122743,-0.0008107296339330064
14.939538158,0.11374122044800473,0.3656051181126885,3.446356034559531,7.339975105295218,0.38998685534307737,-0.13636413049955945
15.139518973,0.3596521967459151,0.9743946906051173,3.2669687048409695,7.168139506104697,0.27669973039237483,-0.20302449374228593
15.339438478,1.0629635350851574,1.2340047354783716,3.140784720509426,6.574600389416691,0.2971637314685541,-0.22128547506579643
15.539564046,1.607919951621018,1.2802149518524644,3.127465044751615,6.079082167556179,0.3628128007015441,-0.23006541666518449
15.7394484,2.3367310960299217,1.1179972161715324,3.0202029951997034,5.6386580351630915,0.38851032379802986,-0.23383486056572245
15.939463875,2.594914915030259,0.7367229909841391,3.0260205992073326,5.340449391777075,0.3975463992041991,-0.2392753686429615
16.139452055,2.822147467773084,0.12642867138440536,3.0046861523885955,4.861736604109892,0.37100565901860066,-0.23952206503845747
16.339539318,2.6709532330024834,-0.4087196956066886,2.961832493673242,4.319354770463718,0.3712986906142501,-0.24307061852214873
16.53955712,2.3038380941314496,-0.9310360376694566,2.907630009441233,3.8269534776514225,0.35978913422885256,-0.24266371703846457
16.739432934,1.8544840725877014,-1.3738912382437387,2.874448112669159,3.4683413117185444,0.3403434524370113,-0.2456007329337223
16.939454575,1.218600435073018,-1.2556754282071982,2.9051890620765803,2.9528261199145827,0.40482606332246074,-0.24854540247221932
17.139446886,0.7698550086118572,-1.103708392540861,2.7714472574011744,2.3954910143183987,0.36418733522500213,-0.261714531797004
17.339450171,0.336423980846489,-0.5917159848887058,3.083250354125277,2.111973685089342,0.5421453191139465,-0.12061172610466794
17.5394347,0.11087025137106653,0.047882451509256144,3.4368288101617903,2.0052699377319594,0.4415030030122267,0.04861012360036857
17.739465661,-0.13833239566092403,0.8327015796007902,3.557449008826336,2.3845726418127087,0.3158442602735085,0.14275257761337262
17.939437179,-0.6860940443715966,1.1376775956556409,3.26253684151178,2.624292446441656,0.26481765695631393,0.18256619588833084
18.139525904,-1.1307702930602668,1.401829387985958,3.1902622652049146,3.1036930566858834,0.3165462054704579,0.18554076661410693
18.339529899,-1.9560921534427138,1.3707121845356767,3.1405177561331588,3.517637262417187,0.32658647411850145,0.19298895951773815
18.539536938,-2.352269469412399,1.124940484776447,2.96107276551444,3.946423442692845,0.3296846612045603,0.22083997940526165
18.739447689,-2.7437973350911564,0.50208621139706,3.075932134026762,4.337177877973014,0.39451594671002416,0.22247382190152598
18.939536603,-2.8175791544482522,-0.11457585299684835,2.9916720091893776,4.872277842820282,0.3953346355498658,0.21167639693088033
19.139438823,-2.7658586638384817,-0.5981227859756723,2.8981715866339615,5.327590127107258,0.39073608708263136,0.21130159105704444
19.339444677,-2.3387121032005793,-1.1435741673537003,2.9246051268629643,5.65932388352842,0.39759017397205754,0.22379164378114513
19.539458932,-1.716893208832904,-1.337644610639234,2.9876387360685457,6.228882849335183,0.35451424526222053,0.22738484056187203
19.739458245,-1.2847194480759137,-1.208688345951862,2.913583298053372,6.624334850265341,0.35822721868009966,0.22060181601887358
19.939437788,-0.6985326138373226,-0.9144730033037525,2.878038489753256,6.996630201492535,0.3988882945339802,0.22674371816767752
20.139433936,-0.29212431569879743,-0.5222586651667088,3.1294802338572936,7.471641447346435,0.45820561419783984,0.10966335797286565
20.339435547,0.022586855599162188,0.1535286620298808,3.22723183636936,7.438872598295331,0.4302082777360121,-0.08837663706809436
20.539508921,0.10875504476853454,0.7917190828106181,3.2176822476276468,7.219293337156971,0.3355115596951714,-0.19348002377505333
20.739445775,0.852116554351407,1.1666802531517977,3.1795874191915545,6.859384432367934,0.2758833688973028,-0.22936308273218467
20.939438335,1.2727147979006486,1.3884917502911092,3.096270902105285,6.4656906275970325,0.3338050640498229,-0.22997201546395687
21.139452522,1.8265868723788,1.371491131624738,3.106938181395952,6.07560525656508,0.38394009871207224,-0.25035937689627435
21.339546027,2.397154959707115,0.906482714860871,3.014180114399499,5.38348000698925,0.3927701079892113,-0.2456800429807151
21.539459136,2.6799331736150505,0.41052914534449025,3.129831574998625,5.070941416543018,0.39315174474013753,-0.24334888335111896
21.739436177,2.839350669821932,-0.09957441291722313,3.070532497621786,4.6132702894862625,0.3780881665573938,-0.23583183547131503
21.939459088,2.5557891409239453,-0.7796436097757377,2.9118366344888726,4.197915646430157,0.3496880204055912,-0.25085959026928817
22.139435284,2.29964129613908,-1.0337415377747952,2.8428872723877365,3.7641245248219537,0.3515136592403274,-0.24889924202948563
22.339437131,1.6430364583059438,-1.2250346169028208,2.8359378802387756,3.227794513210803,0.3795564877180969,-0.2538137783928851
22.539434206,1.0814559574401283,-1.0933045866574096,3.003427188094511,2.8042613293798144,0.42882860055869804,-0.25812395610679684
22.739440353,0.6235934824661828,-0.8861410286005824,2.8801775352549135,2.2748098508661796,0.46493660302684847,-0.23391246121486178
