time (sec),x position (m),y position (m),forward velocity (m/s),"heading angle (rad), from x-axis, positive is CCW",throttle (unitless; -1 to 1),steering angle (unitless; -1 to 1)
1.13268601,-1.5894109611902318,0.9221961621260065,2.994921719691596,3.558821267428849,0.40344772567436016,0.24034730319272518
1.332681341,-1.983654966426237,0.7535295410825502,2.976047562720333,3.9871576740772237,0.3855900766066723,0.22871597044898342
1.5326490270000002,-2.3210970061945777,0.3934112969624506,2.8371351184988223,4.263256156684271,0.30636104977467726,0.22546571982166594
1.732645604,-2.583644597745226,-0.17594997092501502,2.8711352481501806,4.746592730777124,0.2832056126587513,0.23485755881762865
1.932643948,-2.3767898646609966,-0.738236588353839,2.7288388717299044,5.223679062236877,0.3156804563646283,0.2510679124175278
2.132713159,-2.0354110003738985,-1.1936136411754474,2.684598817202986,5.788113942938242,0.31788696808294625,0.2558044869252255
2.332708063,-1.3605545634462792,-1.2436106257323944,2.6576218593988474,6.323530433402331,0.37719233877135316,0.2634618333789207
2.532690498,-0.8792735570703976,-1.2352637413898513,2.7672007114151915,6.638081705261911,0.4038006087104244,0.2469931154282987
2.73264161,-0.3470975290978077,-0.74997152782341,2.8844993430606705,7.140387298504605,0.3920319220079134,0.23068404598759795
2.932702009,-0.17353239406077806,-0.25541757130375836,3.1040765786950777,7.369050413394242,0.43138860861020234,0.07223244403951098
3.132715927,0.08112109657531069,0.2431326910781077,3.1977023265097344,7.267336974321511,0.36686000023828086,-0.10923405754204185
3.332690826,0.5013338507242568,0.9031984862127406,3.082063651813813,7.037314037502879,0.3351504592854548,-0.16086325664697615
3.532691543,1.0192794304026944,0.9783547775895677,3.2288253510218565,6.64902146188703,0.35536249983127444,-0.1578196077299535
3.732725756,1.5752330808879837,1.1139316363753402,2.983273736111122,6.098249169528065,0.33734028488136564,-0.16681832502566296
3.9326459060000003,2.235095939019601,0.7842308206408312,3.014795083345918,5.803290196366911,0.3321145181060846,-0.181536080820626
4.132644151,2.578828084452086,0.44369121181953475,2.688009904801807,5.180014093051994,0.34467749523432967,-0.1839596960517272
4.332643569,2.602297383286425,-0.07418254215043828,2.6649206051151264,4.865716473797871,0.3491832256364667,-0.19586134215396844
4.532641231,2.62650611556748,-0.5752243968864674,2.6243282837321056,4.375310270379259,0.3678893248756348,-0.20574206735213107
4.732720502,2.388681391332754,-1.1060050838198772,2.7441898841620374,3.8586456132940796,0.38855490765662865,-0.20268440323079576
4.932737135,1.8015630131644307,-1.1933746782433592,2.7504445155716692,3.3407052884453687,0.3916701816060898,-0.19831274674736452
5.132713091,1.2641904197568388,-1.3242846523459146,2.7880024003897024,3.0784193764361207,0.4107848048331642,-0.19287043925098593
5.332642572,0.7980753304263751,-1.0382145795229591,2.8734175813036638,2.473815059385872,0.3846831170040378,-0.18300687897834395
5.5326479729999996,0.3397093543362394,-0.6636926484040122,2.802980869334015,2.036644076251926,0.3931284372791328,-0.18003771458798196
5.732648575,0.1908718993848756,-0.05182414033097806,3.0683244886730687,1.8351518839954073,0.4663111716483962,0.03504814668161622
5.932649452,0.024399062659409804,0.4921521113499889,3.31113830771854,1.9378953954164992,0.3286342416864928,0.1830754194739148
6.132651824,-0.3018872773356573,1.0301509423424147,3.23575852725131,2.468847996229334,0.32025894113359293,0.2329041894083912
6.332648105,-0.8721078309861109,1.337649373252455,3.0961189590898432,2.89228983285358,0.36793044155733023,0.2161975619680682
6.532698466,-1.427296682876569,1.444052177578033,3.0366031061989514,3.1937590770372184,0.3946063180372265,0.2040334117571908
6.7327397730000005,-2.0157199818124534,1.2508314096784272,2.8997624622760365,3.665684926504794,0.2519624156877485,0.2505070853226596
6.932709464,-2.468662036555262,0.7854191090350532,2.8787130397383662,4.109697500502774,0.3777088036249224,0.19783890027356393
7.132734227,-2.3600367156117406,0.15492348609454282,2.8580072870579687,4.579871678993469,0.30785991055230155,0.21655556566674403
7.332724087,-2.494480251568335,-0.41939393799221836,3.0110932228689706,4.886482435974574,0.2760397914819423,0.23401753178281903
7.5326940570000005,-2.281393833702002,-0.7015961136462467,2.6555237119120294,5.509607610779818,0.29715850275915534,0.2362817511644858
7.732743631,-1.6783038073148775,-1.0720429612860827,2.6927254820211863,5.9375219534453985,0.3569147172657279,0.2484329791490002
7.932667498,-1.2101644507209348,-1.2577253425087904,2.7141853460742285,6.549830779166228,0.3783040651538646,0.2408060275420982
8.132691403,-0.7149507572801194,-0.9491326904423677,2.8152178111399087,6.9951763822488,0.3817088513147757,0.23622597289535985
8.33272112,-0.3142868508918888,-0.5028129442375366,2.7079388762934204,7.520315175995471,0.37171387617051527,0.20750248775768926
8.53270001,-0.07939411134583213,0.13176455567254544,3.0787313243060535,7.460024984736715,0.4071251735996983,-0.05679111365702503
8.732697517,0.14216319206877756,0.6834263011957715,3.1122208925371146,7.197843030109358,0.3694838395087605,-0.15157775697646783
8.932642613,0.735991113938789,1.149372547951604,3.071190491406114,6.750793165767168,0.37266636901292177,-0.15336551832272347
9.132643243,1.4616876810088146,1.2859824215175457,2.90102583735845,6.2697359997973905,0.3666771833241009,-0.1590264049010489
9.332654013,1.849869944364632,1.1065416485180335,2.9131185096837204,6.005094675636724,0.36876809817007594,-0.1660238145409507
9.532645374,2.2121966203260928,0.803584494483071,2.8238997754499167,5.454272496078566,0.3494868259106621,-0.17108178595398169
9.732718273,2.5891239326946036,0.37119361799852424,2.9175907067288365,4.939176940181777,0.33917705736703946,-0.19175704939242078
9.93269991,2.681565333302899,-0.26219053275583265,2.7497544864790218,4.595435324607136,0.36160123320622833,-0.1918433407869205
10.132721886,2.3809384616834253,-0.8001578364369322,2.5287334045839738,4.004312899667286,0.3698755862617357,-0.19707275025419616
10.332656188,2.083797450362484,-1.1343763521704828,2.6357934493437325,3.713543321786595,0.37919492012793693,-0.18904533149168648
10.532709285,1.463468750335023,-1.2907830012043966,2.757001512038255,3.164127331644883,0.39414939571899854,-0.19245258915547578
10.732647175,1.0217862072865973,-1.2017247221182925,2.765427306243399,2.6621695191743058,0.380668534440046,-0.18930907328377958
10.93270276,0.5625184016740192,-0.7687386775369823,2.715503191274938,2.2352313603323446,0.3765916061716515,-0.18820202446863887
11.132685093,0.27790592533837977,-0.40754816280994854,2.816286142522808,1.8923852506201109,0.4351500570476193,-0.09982512903955867
11.332652744,0.19901473871674913,0.2618244577540399,3.1152230925608384,1.8642056989021443,0.37608949524416085,0.1188427481664812
11.532649226,-0.07999217001790032,0.9517147413166356,3.1032485957297413,2.15457606597315,0.30458101819707595,0.22279483649981963
11.732698047,-0.5225474221751896,1.3343659135293209,3.021672586881489,2.5024745128851302,0.34744234164154364,0.23834894010772908
11.932689166,-1.1285006223976615,1.3111024181023043,3.0574727752644475,3.120330855710596,0.39573565900627966,0.2143241035863909
12.132688673,-1.695148087478649,1.4308678930249634,3.134560004954106,3.461420484024092,0.39899802950354574,0.20722825844917991
12.332626071,-2.1879912860976654,1.0713072423377956,3.1059662054248816,3.8397557238505216,0.34589244011375914,0.21919364570512884
12.532672621,-2.5887348324650894,0.5303897196276564,3.0104439776921414,4.398211865494611,0.30321526355807554,0.21604062957222486
12.732726691,-2.729460829215064,0.116458831984603,3.017474055111679,4.880870427375251,0.2991697817543442,0.22231229305209899
12.932640371,-2.5556457432219353,-0.5734121345349102,2.79690695299053,5.378950434286539,0.27679003888284004,0.2371954756163506
13.132735948,-2.0186269554242604,-1.0099701132280645,2.8196036072061013,5.753336091730362,0.3128569482237162,0.24560915979590192
13.332640944,-1.5926025985541625,-1.1290957518356854,2.7442203633274898,6.203248757979889,0.3767042787051986,0.25301390865711293
13.532710006,-1.0236620931636184,-1.0594503403708657,2.879712756351036,6.812256074002001,0.38739462796433966,0.24554243231941067
13.732668964,-0.5250186450082573,-0.7147062625730007,2.828925722023202,7.108077223392986,0.37745407031993766,0.23707789701097448
13.932701305,-0.23253466981152032,-0.26261775717875313,3.0697988130032456,7.481794519372174,0.40090289120092487,0.08437515033831045
14.132726557,0.06590802107118522,0.4290254850448453,3.1444534644893114,7.403738293428664,0.3681535320853478,-0.10842356975207641
14.332748698,0.3351599545082707,0.7456819802984465,3.1090175929023167,6.849491562180351,0.3552168159354961,-0.1627460372011661
14.532721444,0.8973200245271076,1.2184806004030126,3.096002492080266,6.505238385995516,0.3648159867268483,-0.15862997765284484
14.732644931,1.603415256781404,1.3335669279946476,2.9347910125475654,6.1310374335304285,0.3589327834865826,-0.16133786120627733
14.932701525,2.0987397763983924,0.9869095916496119,2.900271956543538,5.639857092579603,0.3530908899146441,-0.17713944504372425
15.132640472,2.448047947195463,0.6460112396863319,2.7475091913073406,5.201971803592106,0.34209626496543244,-0.1873421049724873
15.332680852,2.5882693549874354,-0.0009952019857580596,2.765048934465169,4.802509799548234,0.3461957200295453,-0.19415509209174373
15.532723902,2.5290590508527253,-0.376765071388547,2.6966412307162706,4.424185519822556,0.3691742001626918,-0.2073173924453153
15.732700227,2.3845813251644272,-0.821475138433323,2.791317490095202,3.900542508740005,0.3919728690480684,-0.19682767500351336
15.932692424,1.7818710425625774,-1.1104041883975666,2.8148926476335276,3.48822166998802,0.3844516716730719,-0.2008010508668839
16.132727596,1.1904758706890244,-1.2481821556703283,2.811707249169381,2.88576520740062,0.39612716155248184,-0.20098220062127245
16.332724348,0.6544043693071919,-0.9092697828762516,2.7371586283083023,2.5083997670849234,0.38779091116194514,-0.18930220757179442
16.532692428,0.42535847493472595,-0.5855242738257044,2.7551429670793004,2.034870177833469,0.39534416512917525,-0.18179463793621975
16.732698667,0.16162419160515448,-0.10847980038011228,3.0728038234415815,1.7021817835343693,0.43798181292915284,0.02018255089680658
16.932643378,-0.035317616243675694,0.571499171862752,3.04209992997005,2.008302249401519,0.3282024024942423,0.17644535898240782
17.13272318,-0.34450634492803867,1.1595934429674741,3.1150875153904853,2.319592306385205,0.298669915185364,0.22453923685520172
17.332648376,-0.8771080191494428,1.3831883509429477,3.077712510138646,2.8686340300589426,0.36270721060256855,0.21702122844085822
17.532731734,-1.5219122854595961,1.5134579034982252,3.097570641091912,3.3378957310321677,0.38914298235130396,0.20744233200368642
17.732702626,-2.1432431010932733,1.2138527455211396,3.0640329815811476,3.793540991169247,0.3669774522265059,0.20594424445903928
17.932713549,-2.508250469489804,0.864834102661996,2.976611230073957,4.210378165634802,0.32428057127258775,0.20149678931258247
18.132748158,-2.6858993950100483,0.30837396703696773,2.9923110815684293,4.625448389359086,0.2943488566113456,0.21069818435023005
18.332699285,-2.47400414547497,-0.39734022382391265,2.908285949125382,5.07623967761184,0.30419402547629376,0.2200657430061939
18.532646489,-2.3126703189866435,-0.8513585955274589,2.9284400772738577,5.5773209897055755,0.2921471609559456,0.2311817598889283
18.732735962,-1.746221391322862,-1.0717752152729987,2.7805752865524562,6.077289447531901,0.33525249803751206,0.23617466854094182
18.932696847,-1.1660157973972631,-1.1021290528987944,2.6791361490376664,6.636349144379103,0.3826123200178034,0.23863465213249213
19.132679735,-0.6231884759651334,-0.9313778966835831,3.024614381473453,6.914327811580358,0.365878328572099,0.22649582287108927
19.332649089,-0.29609175891139694,-0.43658265010988867,2.989293730614971,7.360657800662878,0.3723319836944959,0.18827231483800655
19.532697566,-0.05788973009317548,0.1725228739619494,3.092318382033946,7.310523252270687,0.398657570955469,-0.052100879107499734
19.732649033,0.1801236962317223,0.6141818891643221,3.063866450326779,7.155546405477561,0.35062255148792043,-0.14651427883729556
19.932654247,0.554696669911453,1.1131538469302185,3.084507775723141,6.7432595486749936,0.3661958754632712,-0.16358549063307948
20.13264781,1.2085095170721702,1.3297220003993595,3.046083236315108,6.29747498126539,0.3721927820077421,-0.16468966455162962
20.332645741,1.8302851193517444,1.069440540244561,2.925122616004747,5.947539894557419,0.35651573097651024,-0.1694980816551728
20.532640836,2.255424777228736,0.8289262783524157,2.780622306832703,5.481191288741063,0.34858064975785863,-0.1797930492555395
20.732639427,2.6050912633770653,0.4112782671421168,2.7684488355014047,4.945718176531263,0.34619378187261,-0.19533456942232785
20.932703796,2.5317853721476995,-0.15112367027740373,2.8219053164218777,4.636876754343501,0.3612992892121455,-0.20008632119941672
21.132702526,2.4476597926296026,-0.692257056607994,2.706070423971609,4.142699891050571,0.3908928200035852,-0.20456540705113266
21.332645404,2.0102295810567226,-1.0247912919574766,2.7395504391446215,3.7716719387335265,0.3853986048251797,-0.20238693045606942
21.532694969,1.4769979401740951,-1.318634329985015,2.808137194145862,3.079612735273339,0.39880539799520887,-0.20301208629609252
21.732647818,0.9695389511763359,-1.122178528483564,2.798943068450192,2.7986529718272193,0.41450734395828304,-0.20213656545905073
21.93271052,0.5804738819629746,-0.847743764265633,2.7556525884552956,2.324796864354948,0.3778178743360531,-0.1988004789119798
22.132745765,0.2594323265681533,-0.27977390731926916,2.8355304904862018,1.9075019183889503,0.4247054748912692,-0.10563133014469778
22.332651524,0.06490972732023675,0.2403568136606388,3.10846493695626,1.7784366567830916,0.3738273942048514,0.1124060407133685
22.53270222,-0.11614835770493342,0.909917719684349,3.0796104945356406,2.1822052535789225,0.30038997510261534,0.21383362270909445
22.732687653,-0.6174355771814505,1.286473411544961,3.150395004406687,2.5963126581267972,0.3378281740563965,0.22884784592738416
