time (sec),x position (m),y position (m),forward velocity (m/s),"heading angle (rad), from x-axis, positive is CCW",throttle (unitless; -1 to 1),steering angle (unitless; -1 to 1)
0.133224738,0.17554447720789082,0.17664016176367772,-0.008634336182233308,1.5331531535424052,0.75,-0.6999157175311762
0.333226095,0.1798375156229633,0.33675745510182087,1.6404334424713298,1.399701587522276,0.75,-0.18073604369522048
0.533255504,0.38815757390938177,0.78184275443422,2.8257910366300516,1.0005796524464279,0.671579522455114,-0.22731740294156913
0.733223339,0.814252291348101,1.1864128792040451,3.0040084900684265,0.5457733958698736,0.4704511064549118,-0.2102833409205924
0.933223887,1.3542069738928313,1.373967481377715,3.005351417977051,0.08652627124222066,0.41006054465735087,-0.18573188380039088
1.133225299,1.9511951811406743,1.3298553324986968,2.9799682856944765,-0.34914352305332286,0.3719790627937864,-0.1935420836891338
1.333294903,2.448340315208176,1.0160703676477953,2.895256025789516,-0.8146265848672216,0.3563661901431086,-0.204371856412829
1.533309521,2.776068026080603,0.5284021775014999,2.8302716162268617,-1.2716934794060906,0.3673249019895845,-0.218377268090628
1.73322211,2.8028688398301913,-0.023412157361505658,2.8001560272947748,-1.743130454961144,0.4136063482813957,-0.22109872426565202
1.933226762,2.6118125341256104,-0.5363020862486604,2.8287527391526353,-2.2062376886132213,0.4662981773891273,-0.22299314390634734
2.133292672,2.1746508780052647,-0.9091235141808387,2.8898345857671477,-2.646438805934747,0.43059670462850647,-0.21226900267223933
2.333280183,1.60592162903287,-1.0600799633540998,2.905228366269615,-3.1122080958796308,0.4161206785705536,-0.20819845262246392
2.533223035,1.0594603843892885,-0.9717467927423196,2.884072400719945,-3.558802168485756,0.3763366978732923,-0.19898215532994448
2.733227593,0.6007698616255259,-0.6404336881253456,2.814683218797675,-4.023779743958424,0.35717774743083625,-0.20733673278506667
2.933271391,0.308526424182073,-0.1335745373045441,2.9978459527804753,-4.358475055404508,0.47595732629101883,-0.06275621841567687
3.133229169,0.06382561423715433,0.44783270588618196,3.252778545948179,-4.282062732659681,0.38554323998740264,0.10722768817067319
3.333229224,-0.2595143772525982,0.9817543196030676,3.269897327066771,-3.985984479624789,0.3081968219680904,0.17833814915182594
3.533272782,-0.7821953195328797,1.3655446670424842,3.1946465486279036,-3.5377858127181625,0.32871753565007034,0.2108541403529911
3.733276452,-1.4372894367163955,1.4783971492080663,3.134372591975378,-3.049613445077735,0.40529108457473323,0.19188805790941788
3.933269566,-2.017858645062229,1.3386021974774571,3.023494515426441,-2.616149492498817,0.1776810729479052,0.22436500125021464
4.133228704,-2.4411067838685923,0.940538070462127,3.0279092795059555,-2.168565824967674,0.5230486969051201,0.17098525840346013
4.33322744,-2.6688717234148998,0.36593696820466487,3.126876667203159,-1.7791500235965132,0.3562185080186862,0.17407746137729418
4.533275036,-2.6836047722325618,-0.2542309748971436,3.0485273285901955,-1.3387166549006488,0.27656701959116986,0.19741112578401077
4.733283729,-2.4253314268188486,-0.7753260755712286,2.8734545383402623,-0.8592522289254461,0.27189964941127315,0.21532920642206824
4.933226306,-1.9988543957972422,-1.1177576939636649,2.788888830357503,-0.40486049989156336,0.34065185382554025,0.22228395839582565
5.133223873,-1.4372146714793743,-1.192726564774785,2.846026049980566,0.08361991300990478,0.4156502928304039,0.2319384679987675
5.33322541,-0.9097237975934518,-1.036261786630033,2.930605153391122,0.5670920017346667,0.43711717426981656,0.21180032585783543
5.533255571,-0.4914726184787906,-0.6198320651802791,3.0191347140154394,1.0183300734903384,0.40903687236681435,0.20563817517337402
5.733290055,-0.24794840960641468,-0.05861034967384323,3.2149229281557186,1.2726826852507998,0.5054626399407073,-0.018061602741162797
5.933223835,-0.0035217952845665013,0.5540744593729303,3.369664192659481,1.0577545727299968,0.3910263144334432,-0.1438025912317921
6.133222574,0.4178102622596608,1.0588035968199303,3.308498055778872,0.6617548200874356,0.38239529616471196,-0.16333850472639916
6.333225727,1.0110251366133944,1.377317867543541,3.2138381645395087,0.2425941560206103,0.3926775196051003,-0.15597193036551538
6.533276443,1.6173852869717815,1.4165332993396191,3.1062231555737476,-0.1641130822756564,0.34505756328553083,-0.17095732812391978
6.733328954,2.1732798802323634,1.2149667345994082,2.967717087738439,-0.5762082397160245,0.3406118882333535,-0.19123751229043165
6.933224732,2.5902922863426885,0.7891607152962336,2.910201844620637,-1.0107430939773994,0.36436885093579513,-0.19996116056663396
7.133285493,2.7754924880517358,0.23677631328216256,2.8292695454950283,-1.5013329135367228,0.3733121875343172,-0.21570682550436787
7.333222602,2.6968115601359046,-0.2894475250674678,2.791068692818221,-1.9700804127546436,0.4105132635624163,-0.21956739506892387
7.533279497,2.3559276612785,-0.7532527640787788,2.8188134721870894,-2.4248470092009384,0.4310191752943493,-0.2073909100701122
7.7333045160000005,1.8568194551859463,-1.0203098479236652,2.8684582367041274,-2.880336948011486,0.4122693957865803,-0.21094225848167536
7.933255938,1.3079644933724033,-1.0616838927504035,2.8682857821221335,-3.3632129936209894,0.4140544527044378,-0.20269317641463447
8.133231046,0.7718078316861324,-0.8197599190985918,2.789170276417452,-3.7883568856404475,0.37276179720980535,-0.2006023725884635
8.333221625,0.42117617376360617,-0.40797297862945486,2.862265977989939,-4.2215651040031705,0.4204059755820937,-0.16000738162922287
8.53329692,0.19256237646597874,0.16295174189624362,3.143779283750398,-4.385529844252959,0.46741556951399305,0.0436320903739226
8.733280219000001,-0.09456273449898382,0.7513782988071971,3.297038259555929,-4.201581128282843,0.40308742769478695,0.16115410822032128
8.933227227,-0.4889503151184495,1.2364402712808407,3.219907727587788,-3.765703545451468,0.30084398014238156,0.22512212825903888
9.133271582,-1.0608125477649397,1.5052095776635233,3.0741145899907325,-3.2488051564611338,0.4005911605189397,0.19623424908733822
9.333224395,-1.68769926376945,1.454648649760727,3.160279857477266,-2.8543040169655995,0.4500684783370942,0.18761542531341857
9.533219191,-2.233311510899045,1.157186898381015,3.226677291678374,-2.397063166257846,0.3969269177859696,0.19027620420808877
9.733254203,-2.6140693269706823,0.6580657800565178,3.1864842772080517,-1.9797979623517945,0.35180417421072724,0.1863622631706535
9.933249108,-2.7614238392981747,0.04933949527148994,3.0753172713474,-1.5294623815192983,0.3100416178536149,0.18167264908220981
10.133263336,-2.616239629095489,-0.5442342271408325,2.957323704404847,-1.0938864214110116,0.28365727547571323,0.19599537320194335
10.333259377,-2.252177014687146,-0.9812937621459539,2.8171446216169245,-0.6167632402193141,0.3084131128167065,0.20819056376984663
10.533232614,-1.7332172689562522,-1.1995557405042943,2.827893790656873,-0.15531087414694672,0.36940079672197856,0.22219287881414226
10.733222729,-1.1585709745937085,-1.142280871546066,2.9124051165589497,0.32553521749233905,0.42257713879922615,0.22022155560404788
10.933225468,-0.6915522692924125,-0.8332384591598181,2.9909928354653283,0.7880733091473247,0.42775737781468637,0.20698268046846824
11.133278489,-0.3466427424126428,-0.34771537859885315,3.060363296497204,1.199487529018581,0.4358258318139056,0.1056493828135537
11.333220196,-0.104999327455846,0.27131676355528256,3.321638238806635,1.178934321400426,0.4519874540585514,-0.09285231892144012
11.5332692,0.21732892388334993,0.8355337852002145,3.3645067486569094,0.8280113563370257,0.3628426486264747,-0.1549979241305278
11.733222783,0.726540767312622,1.2712374573344274,3.2395273179702553,0.4419111630314974,0.3692553219903998,-0.1585746131546777
11.933279205,1.3494951594684124,1.4306038590982,3.133769776376803,0.002148822475234735,0.3897823478201476,-0.16372266607056743
12.133320495,1.9651209408484624,1.3367427117354374,3.01276048895666,-0.3767519374070764,0.34358198451405486,-0.1757292740907237
12.333252895,2.4329887116022215,0.9988656735170949,2.9063926866818606,-0.8110924027749701,0.34388131780591696,-0.1974191957283159
12.533222078,2.71444892746326,0.5381943001758925,2.829088352330078,-1.2576934755409985,0.37982191925600345,-0.20911459598980808
12.733226992,2.774264569309081,-0.04511396678945645,2.822847034092534,-1.727132653496296,0.4022006888795233,-0.2137101004062988
12.93326249,2.579969966263087,-0.5626003073822173,2.8336988783549995,-2.1930707667887024,0.4294164528604765,-0.22078982510059694
13.133270505,2.1601711824382273,-0.9389057146218509,2.8527617968039003,-2.682548033705016,0.4356076814207952,-0.20569733694134298
13.333227956,1.5829802545183775,-1.0562912444161916,2.922838260306673,-3.130707267664515,0.4127194222805681,-0.1922052393080086
13.533291785,1.0266941230711035,-0.9394909935338251,2.8770622789324887,-3.568485977502486,0.3746563573366506,-0.20107781545109443
13.733226565,0.5549607348368615,-0.6154784993022057,2.8233584761064914,-4.026281910295196,0.3715830444349623,-0.19982001974752606
13.933299535,0.3157079190512864,-0.11531967170582197,2.945154311253562,-4.390379817852228,0.45626251940814244,-0.06253861284996164
14.133275036,0.0826685789026235,0.4902023359530075,3.2262944558193505,-4.314733003321773,0.40687772932575833,0.11548196164970448
14.333254123,-0.24176317658823382,1.008088838356427,3.2462893149310834,-4.01703318005697,0.3066000373765393,0.19542304869079308
14.533227187,-0.7500032211545786,1.4092238789648233,3.1501979961086644,-3.5194955300255377,0.3380643761940148,0.2130849608904988
14.733226619,-1.369473640355519,1.546621782604668,3.126143234977748,-3.0684981046201183,0.4246277415617877,0.19113006966142412
14.933223695,-1.9806822730572098,1.3667642895965033,3.2146533489453972,-2.6396194183089077,0.42004015100485864,0.19314359981597332
15.133222878,-2.4697569813244495,0.9693597132805747,3.2257840339373973,-2.22562711118514,0.38463542016834695,0.1971118734751684
15.333224725,-2.739707280252722,0.38272472758694276,3.133277179379632,-1.7667996040397878,0.326541781175772,0.1858167377421058
15.533277205000001,-2.7593156978461897,-0.20074536691958741,3.03490544228039,-1.3382457347370518,0.2888131369981822,0.19184104316935588
15.733221538,-2.5093016910158448,-0.7585923943515797,2.929568339727118,-0.8623226996625389,0.29153760042942334,0.2138146513934465
15.93322697,-2.0646415717079134,-1.1058055031253076,2.8558874519294157,-0.41508460473393016,0.3318237798259076,0.23018609767807516
16.133222503,-1.4955165232473608,-1.2155489436867277,2.885531860714661,0.05538193000323896,0.40011517903806665,0.23445169060936893
16.333269041,-0.9572662763129856,-1.047315007136523,2.9653997806061754,0.562616103433174,0.44797053044496593,0.21857045902063463
16.533285103,-0.5274128527013382,-0.6449974215350213,3.0531492925833965,0.9804984337525197,0.4318051974616617,0.1879714658822713
16.733223366,-0.2612253352583739,-0.057336394902671485,3.234928432014907,1.2332104961299328,0.4633519498911441,-0.0004823666403818449
16.933220694,0.016133077847160844,0.5341183695732322,3.391867392073407,1.0340379041215069,0.39426918150470536,-0.1319355751136127
17.133288694,0.42990353924415686,1.0661885133883167,3.346408681010567,0.6649488416035821,0.36228249149052044,-0.16571689759373537
17.333328174000002,1.0038695125285333,1.387089093292232,3.1848498806139616,0.23775812965234258,0.377489102219245,-0.1678344023666879
17.533221346,1.628170653735396,1.4200247984116263,3.103744919668363,-0.1639264351568499,0.35562049230185194,-0.1653833108032093
17.733226713,2.180923025793137,1.2095863484717728,2.979733690964856,-0.5697491404119941,0.3257268708423098,-0.19246564546144837
17.933223033,2.597771674869615,0.8152731665401364,2.8737470600419304,-1.0353780438209246,0.35329358004222616,-0.2078732129905657
18.13327418,2.783411496197061,0.2671738114801722,2.7974850097694337,-1.494263652378291,0.38109629205922674,-0.219928120598114
18.33322307,2.7083341213431877,-0.28746169317447584,2.8188055212871794,-1.9518824544348146,0.4096166258014896,-0.21475308375637378
18.533301236,2.3853724306703694,-0.743331904333605,2.8601839769561117,-2.4180974338200443,0.43164464953578385,-0.22090502289363143
18.733222849,1.8820979067512145,-1.038733764944335,2.854993778672938,-2.8789112441227007,0.41342930422926216,-0.21250520932341851
18.933222763,1.3063453423197369,-1.0634744232534683,2.8463627115916847,-3.3368748082084503,0.3946896196019658,-0.2041335252589043
19.13328423,0.8191537894568969,-0.8243216435617788,2.8145177239985237,-3.814969162693966,0.39246376227837754,-0.20298572874146675
19.33322813,0.44215239340045587,-0.402536762876424,2.8284052876436334,-4.224161563823195,0.4242660750525719,-0.1596337641681041
19.533285273,0.19373503989887564,0.14619588764029792,3.1350714676044102,-4.34272848854497,0.4510083923854533,0.03828623379376108
19.733284683,-0.06122549401963255,0.7250331841552841,3.250192491354269,-4.149616192354525,0.3509732480303465,0.14810979933310497
19.933220532,-0.5221920247059718,1.2083757318576744,3.2223985706249603,-3.749867898696306,0.31084073708231913,0.20495144790459707
20.133296859,-1.095033660369354,1.463933432291547,3.115892091408808,-3.283606469373991,0.3869646589018844,0.19840971903015903
20.333220234,-1.7093505340614654,1.4391321880599282,3.200979669473438,-2.849102547710326,0.4289138547246202,0.19057899720175295
20.533280996,-2.2811725179852584,1.140339676716118,3.204412608362515,-2.453028540527502,0.37891897292459026,0.19660947452814154
20.733262204,-2.666758275039244,0.6408756887641542,3.1698543625998283,-1.9792629262455061,0.3538380706033522,0.1909465708889573
20.93322312,-2.8231759241445333,0.03101677008873302,3.0836581829660505,-1.5264079018241143,0.315310769335256,0.18537083010419111
21.133222438,-2.67186266910138,-0.5465133633871792,2.98073421010521,-1.1140743299030644,0.26474182819186887,0.20292990753004658
21.333221638,-2.3082838465014226,-1.0035419141023962,2.8631708816130947,-0.6341627599663373,0.3017740561085999,0.22239069692045713
21.533219352,-1.79688667326982,-1.2260084550371273,2.8512018452525107,-0.14450018298174988,0.36702147929655915,0.22817889171451305
21.733223967,-1.2469511206141801,-1.1949016036710403,2.926103694644619,0.3155325498671076,0.4145104936912365,0.2255513923526375
21.933333019,-0.741080703861291,-0.8938070824733332,3.0135061255306095,0.7758929476447258,0.4403369328848762,0.20698271802553578
22.133266223,-0.3884388689770494,-0.407287764642348,3.091301434887191,1.1949038447968359,0.4366470659626148,0.12246401163203122
22.333219249,-0.20845487096801826,0.21639990102386805,3.2931261780874816,1.2282402199289117,0.4560437213584639,-0.11232855995008911
22.533225052,0.12630448164980854,0.7773832118176222,3.3191311228081855,0.8441392083749556,0.39863715432590613,-0.16423182135357592
22.733222126,0.6247855841892214,1.2185833698147426,3.2401705119383615,0.4559478192557679,0.3931626413657401,-0.16323158264674986
