time (sec),x position (m),y position (m),forward velocity (m/s),"heading angle (rad), from x-axis, positive is CCW",throttle (unitless; -1 to 1),steering angle (unitless; -1 to 1)
1.001298984,1.4586516558239293,-1.3850623480412658,3.0999754558833517,-2.9960338810621505,0.33408022803509796,-0.2557078524062951
1.041283145,1.3358265971252485,-1.3998145474997663,3.0723880420338943,-3.088274472666098,0.33761936685561084,-0.25728766860016383
1.081287485,1.2133370489384194,-1.4024193691531697,3.0749793007427333,3.102051329269641,0.34822753699035236,-0.2619870163567434
1.121285604,1.0916232566536443,-1.393862620303131,3.0436850929162556,3.0067842383927714,0.3765298995969325,-0.26617134995399333
1.16128689,0.9714824490440246,-1.3739781013522077,3.055594129175145,2.911791823223938,0.42285450012226716,-0.27025558191908544
1.201283543,0.8538142412162746,-1.3429653573608487,3.0358937716572076,2.8166039696885776,0.42515116563285854,-0.2713079579033533
1.241281899,0.7394092828264491,-1.3010757695748885,3.0483734741062483,2.7182435540914454,0.4637568414687932,-0.2723636442209841
1.281282199,0.6291821402402665,-1.248500563838741,3.0509716286386372,2.6153760112266564,0.5002329795685125,-0.27244730541672274
1.321380575,0.5242526489603405,-1.185227416356761,3.0751250526293563,2.5117050024026155,0.5174588430506578,-0.26701065927223794
1.361301416,0.4249990190101297,-1.1121401801349777,3.086599441776736,2.4099514097853922,0.5282809667289837,-0.26355281098764194
1.401330353,0.3330239970492463,-1.0293656924105983,3.1082475129640867,2.307430226356988,0.5534409873419812,-0.2581662595265339
1.441305718,0.28961783860213025,-0.9845809849781229,3.1265177398006787,2.2547745054276054,0.581746337491573,-0.251767220956176
1.481286118,0.17191744864050817,-0.8377614877434815,3.14676201196883,2.1045323487227563,0.5844640010782204,-0.21592045084124759
1.521281423,0.10332608454102514,-0.7299754155213497,3.2143610599662162,2.0167690655078507,0.608528304375147,-0.1646499438345798
1.5612843010000002,0.04236677025059536,-0.6152233191050587,3.2736815332294618,1.943817575238772,0.6464986383404339,-0.12923295388306813
1.6013022160000001,-0.010310687958323126,-0.4934277555944802,3.342189138142167,1.8987509225534132,0.65,-0.06299615052461663
1.641295554,-0.05562484508977554,-0.36531281655516096,3.4292177642648793,1.837365321230868,0.6026409001002978,-0.02476692277842531
1.681294418,-0.09568118747273849,-0.23135616316946625,3.5424576179778224,1.815247813130475,0.5823485399500367,0.01822464814446654
1.7212884019999999,-0.13401315510038533,-0.09278850203208909,3.6274568741482516,1.8398481205940134,0.5642593354803571,0.05276061188888483
1.76128904,-0.17520983815722738,0.04789443373925987,3.6912981342049376,1.894182313681162,0.502102876476281,0.08964073079529877
1.801289171,-0.22347268356883582,0.1873263370991851,3.697844788295311,1.950544253312012,0.4424087342221782,0.11728809907377555
1.841281055,-0.27908374981875556,0.3246785557898832,3.722823331833008,2.00977807013524,0.3977626642882755,0.13075185164121433
1.881375491,-0.3421302232105322,0.4588660333751156,3.7011472752148626,2.071619306959126,0.3663680782500762,0.13532056535277262
1.921298975,-0.41293212303671634,0.5886194238523745,3.6974483841653534,2.137685486755689,0.32263443274823306,0.14078822652807935
1.9612831430000002,-0.49165042839267903,0.7127365152916187,3.6550937104588823,2.213869418636348,0.29102681866177904,0.1460587766291973
2.001294824,-0.5779635591153903,0.8303838862668981,3.6213037559654544,2.2920652054293584,0.2826235172406537,0.15152404498657493
2.041296875,-0.6711324172976667,0.9407924839305468,3.5894385081313787,2.3713489610952494,0.26610385567378164,0.15690393794868968
2.081298934,-0.7712224254213456,1.0422717617623667,3.5484161813333843,2.4550440849145487,0.25014304049566627,0.15982719705246137
2.121282665,-0.8775060214141573,1.1347136327433056,3.4987942859824677,2.5446299274587094,0.24144421157191634,0.1634465987572182
2.161288881,-0.9891759014751546,1.21633636406699,3.4418068512211133,2.6365446798851124,0.24301475698908395,0.16767502885095353
2.201289214,-1.0761634877710813,1.270034359742231,3.3921770094267822,2.701098886284598,0.24124281866647976,0.17333624820098398
2.241285794,-1.2259009209196836,1.3449984322496116,3.3244096846876827,2.8112950307942537,0.2329306679453881,0.17461116396919873
2.281281372,-1.3491059834975223,1.3914467869969955,3.2802653241962294,2.8978187111431333,0.23887785423069258,0.1762846573383219
2.321283823,-1.4740015138793057,1.4260536911589308,3.2135645407601325,2.98735520022831,0.25851505336395775,0.1870083712342808
2.361290129,-1.599716867447986,1.4486729837040062,3.176750765513961,3.0799653693581175,0.2625625053720345,0.19016177754825475
2.401281972,-1.7253644745635046,1.458484684649953,3.1400962800350594,-3.1073655779295093,0.2637609521721439,0.19392958025607368
2.44128307,-1.8495962427208834,1.4566455517991872,3.0987767205402283,-3.008217549803692,0.285285845196899,0.1973441358330139
2.481283438,-1.9713264410121687,1.4426294591733084,3.0335561777058784,-2.909391462695798,0.309416748367688,0.19977310877628615
2.521287825,-2.0899423482984787,1.416576326148329,3.0355857036907063,-2.815814057161678,0.3189827432749919,0.1982150037981297
2.56132878,-2.2044451128179707,1.3797288103312046,2.991127432333426,-2.7281886525550014,0.32897991560531414,0.20179503191635959
2.601283343,-2.314537527340551,1.3319135181395076,2.970408352649932,-2.6481174288670677,0.36374866619147256,0.20569154975210405
2.641289763,-2.4194755322300057,1.273830486121453,2.996823441781885,-2.5642585022443023,0.39080686216145033,0.21074641579454007
2.681283439,-2.5193649340021125,1.206451519217354,3.0011966599977415,-2.4751082867080894,0.41640443248400294,0.21210560772741585
2.721286597,-2.613550685719206,1.1300531864574095,3.039355893760885,-2.383684404731376,0.4370961281274107,0.21968077415172246
2.761288369,-2.7004487432114863,1.0451590534321957,3.0374559647284287,-2.2934782907993188,0.4551545622512542,0.22545397643862852
2.801291138,-2.7803594559162694,0.9520857794010086,3.0521221325794867,-2.1995816197935274,0.48333023565390676,0.22592740650257906
2.841297689,-2.852070333951816,0.851870779448031,3.1006857877145304,-2.097266125456623,0.47349894118008157,0.22567550374197426
2.881294858,-2.9142797012283284,0.7448272734762743,3.092274392943185,-1.9990447920600611,0.4909394914236336,0.22572350113052495
2.921285007,-2.966111684088984,0.6317691856174401,3.1142127875426686,-1.8995208744900223,0.5140414784758345,0.2240122173908796
2.9612865680000002,-3.007885025663827,0.5133860848080809,3.1494541696941467,-1.803234164812431,0.5210551468024777,0.21188281253951793
3.001284223,-3.0388812359715294,0.3912006403905674,3.1578458985279836,-1.712382890549951,0.5304087216171045,0.2099425258448564
3.041285263,-3.058515942256206,0.2657095836541183,3.1835104778883885,-1.6201512424747426,0.5411964860296041,0.2074233158741852
3.081309556,-3.0670017040907376,0.13779573641393544,3.206879603104935,-1.5253600875095492,0.559235064517415,0.20669359913382557
3.121302051,-3.064403287768546,0.008907932875628436,3.245185957253338,-1.4278413975277884,0.5522126643421731,0.2032402424408085
3.161287173,-3.0494600198360695,-0.12014306293172966,3.2516605127288734,-1.3323495473021807,0.5484285893627572,0.19951389129291489
3.201290095,-3.0238657563829343,-0.24812478178999628,3.289151041199874,-1.2388010439126702,0.5560339197804925,0.1948486001390976
3.2412863,-2.9862667983830993,-0.3739787394625895,3.3232721326139383,-1.149124867846279,0.5423328838622247,0.18808514755040756
3.28128607,-2.9374467093366055,-0.4968861001497801,3.3189057174406194,-1.0635861496929804,0.5340210819710143,0.18389400344792958
3.321285982,-2.8780862921391406,-0.6152745268450813,3.3231589369290373,-0.9760674483938334,0.5243929582879355,0.18061223214408603
3.36128529,-2.807912600999736,-0.7282037149920283,3.3204983525889924,-0.8914966397097597,0.5159814740256845,0.17530663375495642
3.4012850070000002,-2.7281852977333267,-0.835127345251183,3.3476192535653193,-0.8071887425318848,0.4964031271800433,0.17412813230498134
3.441286436,-2.6391957069837892,-0.9349615367257057,3.3539002252275467,-0.7286563623646308,0.48439316670922644,0.17300375687247377
3.481287438,-2.5420320037743394,-1.0273197377389405,3.366195718931052,-0.6529971386281884,0.48679288451044095,0.17320267187626967
3.521287703,-2.437510752816007,-1.111348616349486,3.3637690808694205,-0.5774449357599153,0.4548758374239059,0.16946807176201953
3.56128235,-2.3258411810779944,-1.1866867975606386,3.3656476829892554,-0.5031677679088679,0.42693886951043686,0.17138452847529526
3.601286077,-2.209176426004555,-1.252971718939378,3.3576268485668264,-0.42806584716452817,0.4081309125675823,0.17510574198615886
3.641283552,-2.0875474104923555,-1.3095447027478393,3.3500684824588616,-0.346741148181542,0.40768408098204945,0.1793933008773041
3.681383224,-1.9935847260623203,-1.345488277574956,3.359929732121139,-0.28301277790304197,0.3726497600597961,0.17970470220560736
3.721286452,-1.8336188500775619,-1.3913979528597575,3.3163515606078193,-0.18092807120140014,0.3519494240861435,0.18417236528538777
3.761304825,-1.703817409406711,-1.415837456737053,3.2990349933900527,-0.09615263329115323,0.3435143963506074,0.18759183767370918
3.8013702719999998,-1.6059348189334481,-1.4267452519235333,3.27358308840876,-0.03238387688481153,0.32541316114642005,0.19942730858681557
3.841377114,-1.443385477224558,-1.4308050632986482,3.23759462066739,0.07795646292507959,0.3146396422768345,0.19549076587745812
3.881337495,-1.3150636480063425,-1.421082294641157,3.2140097540807977,0.175191555479392,0.3097033234542218,0.197237929093621
3.9213030680000003,-1.1892387809626266,-1.400151137421746,3.164246841232119,0.2714002227069674,0.3247949320671717,0.20538387139680914
3.961293304,-1.067235835721604,-1.3684068696666352,3.1337913546614167,0.36695253630537555,0.32152931795535483,0.19747561090591076
4.001288286,-0.9501267520137563,-1.3256864177196708,3.1042577187883964,0.4636635286184575,0.3180210735515801,0.19878892939127246
4.041283999,-0.8385464807353542,-1.2728651271845386,3.071744963274826,0.5573524321882322,0.3397488286599486,0.201123792405742
4.081366143,-0.7331360145224813,-1.2100947988501565,3.0646189085401323,0.6460080943638901,0.36945731740709803,0.20372464492102385
4.121308023,-0.6343282769147307,-1.1381537839631475,3.0496657592743595,0.7335772144238066,0.39240226076279655,0.20240830910493826
4.161284577,-0.5425889798420854,-1.0576794384121169,3.0432973716203717,0.8238963802984901,0.42486788663042924,0.19603754463012044
4.201287769,-0.45802577861792004,-0.968878279210561,3.06025061962085,0.9110467592882543,0.4549930220411128,0.19072087397940932
4.241285596,-0.38059883959597296,-0.872664795848521,3.105854984969423,0.9993146192156191,0.4961337436635144,0.18761897763835522
4.281302244,-0.31061046714527085,-0.7686468196228837,3.145829206099286,1.081771548542334,0.547420067030111,0.1406225861889588
4.321286075,-0.24749202715977853,-0.6576444148766812,3.2250544430236823,1.1519178498850982,0.5953812087359749,0.09499814803749289
4.361303629,-0.1897573476640988,-0.5400245165666503,3.313962830013334,1.1982526612254039,0.6382501564172467,0.04951493589024186
4.401302731,-0.13631118727562117,-0.41611809321144605,3.403207102189529,1.2179558640596333,0.6093589453019562,0.01595858967694999
4.441349366,-0.08550808073549897,-0.28708429438753313,3.500109764018727,1.2243451936266045,0.5945102580200413,-0.023953318346711237
4.481293931,-0.03437395801919747,-0.15399736171197578,3.5938360542558914,1.221459041999042,0.5811679541229697,-0.05661161664490162
4.521368612,0.018016436780667704,-0.018182623138918653,3.659443115525836,1.21492704654012,0.5727872805665094,-0.08095129636841411
4.561374369,0.07221416427190999,0.11921876873991817,3.7156471558819466,1.206427450954083,0.48141543667685344,-0.09847675822281582
4.601283855,0.12903897101785716,0.257376413590581,3.742181886714849,1.1894875440128314,0.4356513612010781,-0.11740784115210806
4.641284028,0.18908201734901603,0.3956292953159297,3.772320353450422,1.1648865263564177,0.4051495102839028,-0.13597069668448705
4.681333805,0.2527809661423462,0.5324654435598483,3.7628323390484955,1.1271150566391874,0.3841169959799238,-0.15444340080400937
4.721348075,0.3214076957897767,0.6668631749308087,3.7591584798311386,1.071936261233382,0.31489313837948024,-0.16595867831598496
4.761281964,0.396414049989237,0.7967221518358699,3.7371668243599774,1.0048116198167472,0.2768126577312268,-0.1844489528495536
4.801295265,0.4787103904181109,0.920362122281125,3.7019469637168854,0.92706358992291,0.26193042962680035,-0.20007651024776407
4.841288134,0.5682391772400422,1.036471586460512,3.6333672723333006,0.8412334014463572,0.2238477254724855,-0.21486928250515583
4.881283628,0.6649580519939028,1.1438097454799643,3.5904762518932256,0.7501928275699462,0.20190368609631826,-0.21934638185522626
4.921331153,0.7681199911235507,1.2408669854487406,3.5161706130377914,0.6560200765197698,0.1932009845590546,-0.22165365633005918
4.961284385,0.8773298397786305,1.3265195454409036,3.456921332543911,0.5575319555855645,0.20511746895562832,-0.22224255533564166
5.001304834,0.9919073374549716,1.399791501080739,3.3741881941662126,0.46233383365237907,0.21671236557655335,-0.22015676851914145
5.041301417,1.1107058768840365,1.4607558956950142,3.319437011500105,0.36992570025108856,0.21597067768723346,-0.22468090958089276
5.081314114,1.2325759715738573,1.5088005602529495,3.244633537694996,0.28000406512376486,0.2261079266262542,-0.22913780596275993
5.121300243,1.3561398579690342,1.5441113766821726,3.205673254757323,0.18910728712875582,0.2610830767631758,-0.23533008127207053
5.16140047,1.4492934026107338,1.5621890004252836,3.157140986732203,0.11522141278581392,0.29262545986668836,-0.25299600811871636
5.201286875,1.6048478435587772,1.5767316376912568,3.1097610787917427,-0.0038620374445767235,0.32458251612458794,-0.2581606654036565
5.241351193,1.728302454095251,1.5738644054440007,3.0787514527926296,-0.09608491886694984,0.35880571619778473,-0.2627562208168984
5.281286643,1.8500329324997862,1.5595053715322473,3.065908675221394,-0.19502715789518915,0.41473791941032906,-0.27132463995038414
5.321282412,1.9693410512307046,1.532910355429689,3.0594934260201447,-0.2910259098654877,0.43286948572539563,-0.2702365071707468
5.361287298,2.0855526247351106,1.494513059037661,3.0657281423212037,-0.38910457957810207,0.4632233313869966,-0.2734292436046219
5.401289612,2.198097633924477,1.4449379090166934,3.0953538705154466,-0.49029281437500766,0.5016562640450918,-0.2735364975710724
5.441333096,2.305812810996477,1.3840863960894707,3.100371995529768,-0.5885641630326783,0.5283029056900475,-0.2729487491046797
5.481284887,2.408001505902391,1.3125549253978501,3.1217769312955244,-0.6875778996558726,0.5354287401732895,-0.2716474972468081
5.521284979,2.503030549057036,1.2308606260568165,3.146856225971386,-0.791633953948308,0.547111366194267,-0.2690167724482959
5.5612833340000005,2.5902623577142716,1.1398186965185186,3.158864592161122,-0.8949639636279758,0.5814824034139378,-0.2666318652680897
5.601331353,2.6697536716083987,1.0398113420308264,3.189070210095697,-0.9924983647647528,0.5792542829474605,-0.26064565459422306
5.64134166,2.7399251874348396,0.932413604953497,3.2285547459991064,-1.0892461211414106,0.5760448374210504,-0.2553654090987007
5.681294678,2.800561890207828,0.8177646558597316,3.259395550554359,-1.1833652990103134,0.5904348852271573,-0.250151913285602
5.721288256,2.850357329513258,0.6972837871951492,3.262845146301411,-1.2826542877292955,0.6102384604333552,-0.24638717670023727
5.761283048,2.8897247984210312,0.5717681698350378,3.285797691440027,-1.3854521253948893,0.5674403586860428,-0.2395167185449899
5.80128337,2.9164596150455235,0.4429772300408355,3.272027942547928,-1.4890261923288406,0.5523949521468764,-0.23678309406788264
5.841294155,2.930709140361713,0.3120373252387437,3.311250527908577,-1.593409344323632,0.5603707424958828,-0.23240043435255936
5.881297188,2.9323117542786483,0.1802276534984595,3.298382523442527,-1.690765586880162,0.5729359627272117,-0.22655275487450566
5.921335318,2.921743520758676,0.04798679819363151,3.308347699818073,-1.7838532969619045,0.5373632484350171,-0.21200267532284892
5.961294207,2.8990322640256365,-0.08272082589454187,3.316256006830319,-1.8742094555119495,0.5079638272748285,-0.208665779037656
6.001353889,2.86408873054465,-0.2110383405988126,3.3324605595052175,-1.9597927618461135,0.5145088235817799,-0.2081307163802557
6.041390118,2.8174562732336526,-0.33576932006811205,3.329184836708152,-2.041244368240568,0.49108194951904893,-0.20601913901150878
6.081283864,2.7594571989018535,-0.45570600746224194,3.328231778226665,-2.12187838349237,0.46313914035284637,-0.2044257859360935
6.121283477,2.691179078439764,-0.5702806408943846,3.331680174605698,-2.1965540186128476,0.44344593622080264,-0.20529316506155448
6.16138931,2.612825018629501,-0.6786052327166708,3.3493837609101202,-2.2695974835225536,0.443899465325674,-0.20793841295419097
6.201370812,2.548217250240013,-0.7550509975039169,3.3396156063041964,-2.3256177604722326,0.40562329620660037,-0.21218646159566895
6.241292213,2.429989004508887,-0.8725580389918433,3.3470623455182182,-2.423303629388009,0.38338022486050205,-0.21625117348006534
6.281285839,2.3274338327832615,-0.9579365025892057,3.3554187465625405,-2.49963441499349,0.36677035225997845,-0.2216213718511333
6.321286051,2.218540656650649,-1.034297150207022,3.3222443867181566,-2.581406870153558,0.37793700875390523,-0.23227378924635847
6.36128244,2.104057165957728,-1.1019092876112955,3.3334689126929815,-2.6623639315271865,0.33088461291579846,-0.22407985243073428
6.401286311,1.9855527256766652,-1.1595955585050923,3.3025762213542085,-2.748378262924456,0.30541898232306003,-0.2331656255773515
6.441387116,1.8943872584937063,-1.195797456656836,3.2528016751085627,-2.818837910088488,0.3122968682957337,-0.24127909549021564
6.481383694,1.8017247150144091,-1.2259985451192381,3.2367357407518624,-2.8930381093749737,0.2970796305314313,-0.2523260970531946
6.521304471,1.6138623462615473,-1.265217485286828,3.185864736050761,-3.0414899312134285,0.2976948743798006,-0.25631072966815843
6.56128485,1.4882751742160847,-1.2762821892061182,3.1274998893538144,-3.1369882469709154,0.3233232058721132,-0.2652223365080282
6.601287553,1.3632783017104404,-1.274793036575443,3.1352653013416463,3.0534641020166498,0.34980807856192714,-0.2726169649344603
6.641360704,1.239934064970285,-1.261606210430124,3.0944094351729263,2.960723276070866,0.3658630174457346,-0.25314737008436977
6.681282799,1.118855329855216,-1.2366805523614293,3.07476569148539,2.868128079372074,0.40013517257936726,-0.2576572844819188
6.721307876,1.059455791109271,-1.2200018069486307,3.0899106638014255,2.819489511252316,0.4268886060971298,-0.2624835506385367
6.761288831,0.8868829737546371,-1.1532695975583374,3.0917476034792086,2.673866335094595,0.48804236324593664,-0.26601225695866715
6.801295607,0.7773527287953086,-1.0953549635710829,3.0882634477174853,2.577882990911287,0.48152247586844144,-0.2571322981082905
6.841287434,0.6736392305614715,-1.0268435333935,3.109971801824983,2.480709567291014,0.4993058154187322,-0.27153019626587593
6.881301782,0.5761071350280339,-0.9490743359668639,3.1284098951224273,2.3845668578125263,0.5215685494021624,-0.2557576044432658
6.921296032,0.48605838836510246,-0.8618199839927442,3.1218832141527395,2.288108139776564,0.5650389175160832,-0.2541291803953313
6.96129588,0.40282352205486344,-0.7654888654108438,3.192880996815748,2.1965109741516833,0.5597950789498947,-0.21548065419614665
7.001291199,0.3259277787287772,-0.6613765136168749,3.283327826696997,2.1221564411659086,0.5881445311345348,-0.1748699183838159
7.041291011,0.25465556774330655,-0.5494695498621879,3.346939844320163,2.0702345872760173,0.6254490434269838,-0.1340309375538993
7.081326698,0.20379664136853468,-0.4608118710017188,3.4469280204028943,2.0488292727130024,0.6368137532801927,-0.09470942059956126
7.121287473,0.12206646142228801,-0.305590506123764,3.5587369722314266,2.0496194854466436,0.5705940111890504,-0.05894207604796978
