time (sec),x position (m),y position (m),forward velocity (m/s),"heading angle (rad), from x-axis, positive is CCW",throttle (unitless; -1 to 1),steering angle (unitless; -1 to 1)
0.129610795,-2.5096375361286207,-0.00015747694300987172,-0.10693517055817472,-1.4834701091561078,0.75,0.6390044171606416
0.329615822,-2.564557293184414,-0.15710499640349979,0.8008122906605654,-1.5801401859212738,0.75,0.11642179871532919
0.529616297,-2.6668996874751674,-0.38111774929402026,2.3990219293505533,-1.1607244354484623,0.75,0.24371215218061323
0.7296166460000001,-2.319168796423814,-0.6972730053368905,2.720507360847474,-0.9180754390234567,0.3619466358049885,0.2687751249207289
0.9296175430000001,-1.8861921215768636,-1.1734304403908704,2.6077665391408003,-0.30860202858966534,0.3301457159183647,0.2772739768253094
1.12961248,-1.3039610021619226,-1.2205473110582137,2.820338241678037,0.05484192059077392,0.4046175690698098,0.25892855456193203
1.32961457,-0.8134939588040367,-0.8355079435182979,2.9574154854130668,0.6968669874968771,0.4278621514879011,0.23589012738337337
1.529623536,-0.2730791713563707,-0.5956132712945528,3.1683456803347285,1.0902709144415152,0.4312317088764842,0.16574725275426125
1.729661796,-0.04849912948577006,0.1481585644223154,3.2950999020921166,1.1578032691155604,0.4297639965283559,-0.043590852567979455
1.929619411,0.23765483014473987,0.5702714988595454,3.2509187423010695,0.8693624531291279,0.392367601147178,-0.15021889598893312
2.129630387,0.6998753365100197,0.9828913314389539,3.337210737721847,0.589167746111467,0.343355162725469,-0.16104580449428968
2.329619624,1.3000988886926852,1.043665992089608,3.1761464346409327,0.07363910709357373,0.3553825914695317,-0.16001646382849727
2.529619811,1.9891135418008243,1.0937775130433236,2.9006112699871625,-0.31719170794075147,0.3388085442780385,-0.17463275145815205
2.729614989,2.39357472452864,0.8519721497616648,2.94487965977662,-0.6193974908508939,0.3306930701767589,-0.18751117612901133
2.929635023,2.679200106584019,0.3956778964588944,2.766820954885151,-1.2981670336440414,0.3581319643697969,-0.20415490809904843
3.129612871,2.6724612674501294,-0.14077007732344946,2.757146715104181,-1.7793403779258252,0.3716575915165158,-0.20768841294851267
3.329617002,2.489063148828327,-0.7993941052805213,2.8312190016546803,-2.1700081922120242,0.3960717508827956,-0.20860418989265947
3.529609396,2.031981973385133,-1.037623456223392,2.767848559578442,-2.701057143142482,0.40967116869914744,-0.1987628190943847
3.729610384,1.5849579673597383,-1.125091036255279,2.912285887920094,-3.1427221215017695,0.38898089668906394,-0.19633572206056127
3.929607451,1.051490097684185,-1.1206756375305247,2.8453571984622124,-3.5645840168278635,0.38803810176755626,-0.1954325541030921
4.129608518,0.5669565657515797,-0.884831845352802,2.7547752119345867,-3.9416617865388055,0.37535003711908504,-0.19203215620634512
4.329611204,0.304878008348694,-0.28256738284332644,2.9753394849888584,-4.346316490859599,0.44190675093711224,-0.08681189465522987
4.529682987,0.16636775325635256,0.32687227649967976,3.2281265325703794,-4.3728114084464185,0.40618829611260515,0.12015485688770919
4.729621456,-0.15817077130333249,0.8746766724654989,3.1393953822412732,-4.112519508790226,0.31012838253095476,0.19996137283988552
4.929614601,-0.6645575170917544,1.3582445006113555,3.137888437347358,-3.564653127056132,0.33309448997718066,0.2241942428616286
5.129672654,-1.1630460629181227,1.4631606207891634,3.101224436093799,-3.092217741054296,0.4348849058038307,0.20850662867103326
5.329615385,-1.9075224935841384,1.4034431923155015,3.0892096306242602,-2.825529136171496,0.403945925218378,0.2023162939107868
5.529624839,-2.3903405548900283,0.9334814215406356,3.1592265897214746,-2.4236080570553153,0.3668071001571135,0.21064236831023483
5.729623831,-2.6923590355998894,0.5192613868335341,3.057978681457916,-1.792127910903174,0.32249240598332796,0.20627649057534453
5.929617592,-2.763799278412138,-0.19734735589294097,3.111143616956165,-1.3661316479129244,0.2890676899722887,0.20975869268334044
6.129613568,-2.523655101447635,-0.6009726718209004,3.011018234863148,-0.9584814297442108,0.29174319118983183,0.23087660170704336
6.329614501,-2.105734676604062,-1.0299016736877062,2.696510492163477,-0.4266887030019532,0.31870719938070324,0.2398884516982056
6.529618708,-1.6935952106327565,-1.1815136005778304,2.771674580808564,-0.06781688685147606,0.3752898358715255,0.24583256094537356
6.729666151,-1.2097275512051897,-1.1216698219449084,2.967293952287504,0.36602610390462614,0.4207056607773638,0.24626749188789196
6.929614067,-0.593462671252861,-0.6427173333099813,3.0770572108522085,0.9237917630772197,0.41293983716868127,0.2189589302316319
7.129619443,-0.3067967351640264,-0.22206972733592703,3.1060154175028285,1.0891674668914868,0.44165812850077274,0.052961190771656015
7.329652901,0.036051012619645634,0.34750342617137286,3.32782934665851,1.071480509664676,0.4051441997969893,-0.10670027375170113
7.529617689,0.36219118436646447,0.9685340616466673,3.3682956683992944,0.6102809656801095,0.3484955479699208,-0.15108383998244754
7.72961566,0.9748652955062358,1.2707930079338114,3.070184785476654,0.25619976921945825,0.36347239157886696,-0.1521682336226617
7.929610243,1.6161024981516139,1.2579234145700173,3.1014809331962665,-0.0760411801062204,0.34767202334407865,-0.15422415983442395
8.129615965,2.103445617795036,1.0515158607948276,2.903351118569704,-0.5495588196575935,0.3316421618863668,-0.1718704169829804
8.32961896,2.490069130652365,0.483640781129446,2.7468076824103345,-0.9498466919551422,0.3404600076164983,-0.19022043998258586
8.529614447,2.7554214139969964,-0.10001710067815339,2.7959914845026765,-1.441876853404141,0.35291675772457076,-0.20024590364522268
8.729614203,2.6602168008059945,-0.5055129090216268,2.70125587744794,-1.7875231128882998,0.3773286616506756,-0.2066055672576177
8.929616286,2.3374111944742793,-0.9940643268094077,2.8129263230977153,-2.4591041025613305,0.414589799634833,-0.2051191349320439
9.129609088,1.683766581800698,-1.1318044468526183,2.812610765703284,-2.9750565954045616,0.40643541509467573,-0.19611695761911585
9.32961217,1.1403167901933133,-1.1592394023213595,2.9968436674615884,-3.439711577979835,0.39330355430597846,-0.18668966698322592
9.529616058,0.7012711217640253,-0.9776269902153087,2.744157034830837,-3.761208817209243,0.39333196347635735,-0.19221963784375998
9.72961736,0.41882175068912425,-0.5397817813894163,2.905131877563353,-4.3158731344390935,0.4102841174834616,-0.16114016330161204
9.929624636,0.1588082955127,0.03869088075640991,3.116157307339743,-4.510807701951338,0.4340336275920392,0.03274478577391296
10.129624507,-0.03911041320479705,0.643722248296673,3.172135917918015,-4.289758958616156,0.3402311380617225,0.1649116465953996
10.329619973,-0.402542300772894,1.0875330997141446,3.076589940607552,-3.864907586859205,0.30830710083289137,0.23196060331544172
10.529610634,-0.8263904649569582,1.557589850037094,3.072730611312388,-3.4082441609816336,0.37749812218190354,0.22088407075203265
10.729608454000001,-1.5817707097564022,1.5186834645553118,3.0678375948813805,-2.8977283561471667,0.41852655545858414,0.20816238782094307
10.929613307,-2.180192290975193,1.2871635397418075,3.2526836445470844,-2.574332258503394,0.380636655325571,0.21069739419345343
11.129660145,-2.643621730718713,0.8696535737331695,3.0209791290951498,-1.9997544407460293,0.3598549882400503,0.2160602374413957
11.329668785,-2.7616869553261947,0.2651341055982629,3.108421412091131,-1.710318932766198,0.312437013269338,0.2078535693018505
11.52961831,-2.663295629947307,-0.3277252735378909,2.9552980042758956,-1.2104776056225965,0.285847659388304,0.22244768209463225
11.729622278,-2.4307165111353966,-0.7275468686609943,2.865589083189491,-0.8357034681982897,0.30061726582346887,0.24301755779059678
11.929617251,-1.9359378529885205,-1.044981683529217,2.7578366567339057,-0.21074329489252716,0.3524960411734845,0.25310692754365766
12.129611211,-1.370836514480251,-1.1251751077148961,2.791670523317804,0.20320043211139935,0.39592730751581134,0.24892645640289343
12.329609292,-0.8127238385583778,-0.9576391127515815,2.9983197265225905,0.5989069536378451,0.4183688507769396,0.23118678647455537
12.529612310000001,-0.5079946632773389,-0.4856187919936688,2.985281984094656,1.1906851845744046,0.42034913724362843,0.16465642434794753
12.729612566,-0.2515541108975037,0.093465203684861,3.24544353433761,1.1401122780671462,0.42772767468404366,-0.04693148266497672
12.929609815,0.18303463020736263,0.6417439083189139,3.3036436202993413,0.7631828734710224,0.36888162018539483,-0.13573507785906305
13.129613959,0.7220324266664452,1.171420768461052,3.1816570032486378,0.521636922041384,0.3494554721640258,-0.15844383852530644
13.329614338,1.1139732154029869,1.171484108826455,3.1522622869641195,-0.007943466825932,0.3573695533872877,-0.16455806907970738
13.529657577,1.786305045162835,1.1255424989171197,3.073872663783398,-0.3207575040038978,0.32445225211095685,-0.19281246215951714
13.729611815,2.3495497016541314,0.9501754327994179,2.8655410520047493,-0.8062879373886331,0.32922457155687634,-0.1869448061203973
13.929669687,2.710282189230151,0.3896399531786939,2.733977830790506,-1.227562160053337,0.3526080453656911,-0.2055279905701082
14.129612307,2.7450304809569883,-0.1779665865618674,2.8796538364914865,-1.5650530503992794,0.3690151456003533,-0.2113346222190081
14.329663758,2.6064626049690047,-0.7207820287702632,2.651852033855502,-2.1853141455674487,0.3842170594500653,-0.21736540309876176
14.529613716,2.113993604802942,-1.0786985855098226,3.0000378668007546,-2.6159635743310883,0.41942661962724404,-0.21305124185881735
14.729609929,1.668072704417914,-1.150950618183576,2.779598143235082,-3.104088663975376,0.4031000706229399,-0.20906437079891105
14.929613398,1.0757015585674672,-1.0508485226701774,2.770779905407897,-3.577423171878231,0.3878877441860775,-0.2031011261463267
15.129611893,0.57491807820256,-0.8641146195243805,2.780342025997161,-3.981772936057799,0.3864674011161861,-0.20367832433106656
15.329613221,0.2598301234921079,-0.28677140286846553,2.8859601176727505,-4.2406891258181885,0.4231244475412713,-0.11163700689525212
15.529611553,-0.11637637221789178,0.2290484152495762,3.219741623262308,-4.399157426507085,0.3895542763742457,0.09954869577724285
15.729609255,-0.17120968115377608,0.7724004033647357,3.1990874742647777,-4.244368283947817,0.31100151361878403,0.19965828016035947
15.92966537,-0.5147896115738169,1.1846586144459423,3.1793634059982487,-3.548069309429899,0.32964298968813377,0.21087074572717876
16.129612659,-1.2128092392949807,1.4281915519489727,3.1287914129375416,-3.2948813855672636,0.39009488906370804,0.2116820385031553
16.329611119,-1.8550493110530522,1.380989422002279,3.1660911127951916,-2.7711251843557325,0.40346562642753786,0.21204580798943953
16.529611036,-2.4269080538531735,0.9514548828518025,3.1115813042929923,-2.2035809460127194,0.3665925735462561,0.20530854504659776
16.729656219,-2.7394151196127607,0.4193047100766673,3.075559535294059,-1.9810018618750573,0.31591977329274995,0.20725612412704159
16.929612463,-2.8253705707523666,-0.03574070628676658,2.979894099057198,-1.3268257396090526,0.30544506057106846,0.21880316892273965
17.129610019,-2.6082072471096285,-0.4912448501219341,2.959319906394685,-0.9837551829069004,0.2807133326915896,0.22683963252504802
17.329662868,-2.0871514397545163,-0.9924251180578987,2.8856677995735134,-0.450486544939056,0.31793684467530076,0.24043412782635232
17.529611857,-1.5748429421237435,-1.234760837122538,2.790258266644987,0.09326143839605402,0.3858416092946713,0.24483642768331618
17.729608994,-1.0450369715276628,-1.1129933412977768,2.977515766983392,0.4542105840205081,0.4001722018069075,0.23112334283317598
17.929609221,-0.6333699713438541,-0.6553424392297272,3.000786198106792,0.8364215856763713,0.40588803166724013,0.22772306198691358
18.12961247,-0.32815241773991466,-0.18518853935948604,3.1047954869559513,1.2183105711252828,0.42065006658834786,0.05396928661621287
18.329609728,-0.03785851903032272,0.3815831097997295,3.344879918552277,1.1962622717553826,0.38533742825224276,-0.13132969223078178
18.529611915,0.1679492174516606,0.850303852308092,3.2324145604021193,0.7128414455261703,0.3750836373483993,-0.17299492338272424
18.729705574,0.8239928609747488,1.2284767551162779,3.1307947534523755,0.23137848036076306,0.3822689698577503,-0.16564218473506848
18.929615827,1.4949967511610702,1.3884491903939993,2.9481454089940673,-0.07526430881055464,0.35904477933341683,-0.1619452864858185
19.129622823,1.8783570872134203,1.1528954503051845,2.9055771620084876,-0.5587209691568702,0.3438532199067183,-0.18974919493724873
19.329616438,2.517821084879574,0.7168393184940087,3.072852868371227,-1.0857852081117128,0.348540103201636,-0.19305601980403123
19.529615491,2.6659571933724653,0.176107495940279,2.888132083295145,-1.405268260062677,0.35620333673360965,-0.20452373800145152
19.729611189,2.6227872597263726,-0.28516537666515673,2.699415226913337,-1.8510239643608797,0.3863021565943249,-0.21601361910583108
19.929617903,2.2941433413474974,-0.7448270646794357,2.8151663137390392,-2.45324999338534,0.40000071956971756,-0.20338882053746143
20.12963318,1.723786865747113,-1.1529461960820528,2.7911034291474492,-2.8747365544466015,0.4001136523362267,-0.20910058019190927
20.329657994,1.2512690966066957,-1.1364574509373917,2.8219085462213873,-3.22749821084239,0.4054312419238142,-0.2056844032782287
20.529610457,0.7796301789138361,-0.8700405424931678,2.7723525837139746,-3.7797237973882125,0.37651747431583216,-0.20559394875201023
20.729608534,0.4668479533330573,-0.5276590684993435,2.914597323129818,-4.299373561695599,0.3905196021563099,-0.202950645381511
20.929609625,0.13811842447795109,0.08307083086575437,2.9605870084004877,-4.3795786712587725,0.4781268832730965,0.03265818828963721
21.129618796,0.06310241455934362,0.6400996545488319,3.1868967842750746,-4.372392599474281,0.33863128277332327,0.16920245474269494
21.329652243,-0.5619717034233896,1.1053644676834977,3.112458131380987,-3.7901770450921304,0.3134144008177015,0.22204667219282465
21.52965904,-1.0111584628872623,1.4020864308708072,3.041915895721943,-3.4148984625995866,0.3880927454752021,0.221195666933439
21.729611083,-1.5582450692474168,1.4637576315778473,3.218646418036323,-2.96797574519966,0.40955915649667773,0.20742645799046908
21.929654128,-2.0777259976515814,1.2410733845774877,3.178543418358398,-2.5467237954525053,0.38914505578839287,0.20797324733666786
22.129610015,-2.603189438722579,0.7835691394591182,3.142433732889284,-2.0363973358182963,0.37858368813249743,0.20815527411397736
22.329612388,-2.6489045747621307,0.13754996380600792,3.002523509193632,-1.5680271074471486,0.3022770939566249,0.20451626049555746
22.529627653,-2.5602108339316088,-0.4250420380960109,2.887031113467191,-1.2211410895077888,0.28921124814017174,0.21126968390939202
22.729615136,-2.432278424908477,-0.8629296131514682,2.763483318395871,-0.6308318200156121,0.2918958343476234,0.23547695452527195
