time (sec),x position (m),y position (m),forward velocity (m/s),"heading angle (rad), from x-axis, positive is CCW",throttle (unitless; -1 to 1),steering angle (unitless; -1 to 1)
0.129506639,-2.4933239491848194,1.4356231766745466,0.001463349797967241,-2.5969506128796946,0.106374267390006,0.2738966226324083
0.16936050300000002,-2.4932859594111707,1.4356697677716226,0.005018170501294456,-2.596617396980198,0.45294558127786066,0.14144446728715335
0.20937496000000003,-2.493329939500514,1.4356140764647787,0.0020183965829677084,-2.5969043621926335,0.75,0.12907202932974687
0.249373175,-2.4933295107187905,1.435641494002665,0.0018224391596408285,-2.5967935067417454,0.75,0.12452964151414375
0.28935204000000003,-2.4933120880238695,1.4356405241958463,0.004417963348079307,-2.596867516667046,0.75,0.13649437713495857
0.32935468700000003,-2.4933600357726573,1.4356101724821502,0.004125232060873669,-2.5969865066338604,0.75,0.16755192765120613
0.36937965300000003,-2.497530319551075,1.4327942139650631,0.2128886128885324,-2.59906244801289,0.75,0.19805004809003185
0.409353273,-2.51123816626664,1.4232467927079715,0.5423158228915118,-2.5910065189149636,0.75,0.22569637350952781
0.44935685200000003,-2.534336591982366,1.405494051364782,0.846802505637745,-2.5592849948878023,0.75,0.2550372637420081
0.489356818,-2.576967484139581,1.367847200988551,1.2940812292843331,-2.47997485359268,0.75,0.2851564370675361
0.529355321,-2.5973782011450326,1.348215294280935,1.4488093566858613,-2.4407544280551803,0.75,0.31174674699465543
0.569375572,-2.653909248144841,1.2850121358880275,1.890344111455817,-2.316999780336918,0.75,0.3146105732432538
0.609358371,-2.7016171897812886,1.2192597235322753,2.1319556469012837,-2.206751490731361,0.75,0.3150902088423724
0.6493576470000001,-2.748259219904557,1.141054581239811,2.367420338967952,-2.089592029941145,0.75,0.32795870489398454
0.6893555720000001,-2.8004539478711536,1.0266892113132995,2.557695179933564,-1.9407614902835584,0.75,0.3138289070816913
0.7293706240000001,-2.82625610298136,0.9498484009665146,2.7424046362591343,-1.8493023959334662,0.75,0.2883053916826386
0.7693603320000001,-2.8529683800717,0.8394308182069925,2.9000809519899176,-1.7321002755211259,0.684196802574399,0.27386725720528965
0.809350825,-2.8692093716491267,0.7223882205089122,2.972531362862697,-1.6191019163264164,0.624216264767612,0.24966611374294956
0.849360321,-2.873542467376238,0.6021316854493632,3.041318452419497,-1.5165096385769423,0.5793240684160863,0.24296329127764113
0.8893632800000001,-2.8660077207567474,0.4799237178010756,3.0702449965674687,-1.4248782176948633,0.5383084333190605,0.2300331502055025
0.9293625110000001,-2.8397767283577773,0.32707529568415283,3.1200100696249553,-1.3171130771439754,0.5188036953216181,0.21869562664347642
0.9693673410000001,-2.8054331006759057,0.20561424520755434,3.1565306976846497,-1.2316890718534759,0.5092900716030906,0.21062774882296806
1.009368201,-2.7726727221424015,0.1158767919680182,3.2026292556604576,-1.1679270101524446,0.5097318540039817,0.20932292933574162
1.049367682,-2.7192970147803144,-0.0008322552854749004,3.2185693196892537,-1.077850039964313,0.4804143671087728,0.20412787985186856
1.089352965,-2.6554601184394326,-0.113262690578661,3.246627687730375,-0.9864931954569042,0.4726840123837109,0.2060083605746484
1.129372217,-2.5817210507254185,-0.220313567942514,3.260699186947058,-0.893046858499549,0.4783372270402821,0.21427974366099165
1.169366857,-2.4981084601175225,-0.32030410971942336,3.2604108518993127,-0.794472526200673,0.4550217124145388,0.21379925954140347
1.2093513630000001,-2.4058388958852177,-0.41287470630277306,3.2658886165306793,-0.6977081604367114,0.43540098628729806,0.21370346095232504
1.249366108,-2.305332130706347,-0.4963703786661795,3.2747829718724843,-0.5954973716605829,0.4338317576404123,0.2133130944992581
1.289354566,-2.197739880153633,-0.570139168952924,3.2617148396259674,-0.49567360375104064,0.45067835226946973,0.21106914247089328
1.32936386,-2.0839551310321114,-0.6329900237035153,3.242340184097608,-0.40076180679921997,0.4184427356730301,0.21131870428567104
1.369366015,-1.9654029862083249,-0.6848618047577184,3.2336867406811143,-0.3053669859129876,0.4126732092908302,0.20776516649591686
1.409355191,-1.8429045884334063,-0.7249347432020845,3.2201455811983046,-0.2096249438576978,0.42786368742247266,0.2050868637168187
1.4493659810000001,-1.7174039486781243,-0.7528807743966116,3.2161805226758333,-0.11647613319005025,0.4146755613264264,0.20540028578354075
1.489355619,-1.5905379724708268,-0.7688759638871927,3.1960412477100406,-0.026303398479625043,0.4056908431419461,0.20316393269438854
1.529566515,-1.462449698590366,-0.77233947527366,3.2151778690688975,0.06437577036125894,0.41002754736363894,0.20123578408746287
1.569363123,-1.3350913772988666,-0.7642234986861225,3.192279467786621,0.15402936873666892,0.4225651976703342,0.20020248803275031
1.609353588,-1.209067325888732,-0.7440003750172285,3.1833690883955743,0.24753591358723726,0.3952984475504368,0.1970616986837117
1.649433136,-1.0557640212319823,-0.7025097824530334,3.1746320749303263,0.36471565139329065,0.3764644481978364,0.19853679450098505
1.6893716360000002,-0.9666901234991723,-0.6691291700485137,3.1633624337653448,0.43570856696708626,0.3861147242449796,0.20052204001213733
1.729384306,-0.8521970519001109,-0.6151975552809638,3.1772286670887717,0.5271390490356128,0.37124824743363505,0.20226166593836992
1.769373077,-0.7437345286194369,-0.5514429716298203,3.139032178373483,0.6162708306371448,0.3535384678235371,0.19289840370439
1.8093566920000002,-0.64172123420538,-0.47768537721628723,3.149536487706684,0.7107372604354055,0.3558412086015683,0.19841885014326016
1.849363844,-0.5473429801571251,-0.3955505756219741,3.1269743500830383,0.8036719060154429,0.35556128931887226,0.19793867577396282
1.889367379,-0.4612208743873566,-0.3050394807757811,3.1232284831737727,0.8985828157988921,0.37380685443208667,0.1836472819508585
1.929369832,-0.38369091732262134,-0.2072283178086832,3.1272290914298355,0.9865210427085891,0.3863146868579786,0.16101570120569508
1.969368232,-0.31461432132618977,-0.103259092687825,3.122161989053849,1.0633474545196828,0.41136409724739276,0.13845312909323912
2.009353214,-0.25338668981421236,0.006828483439820776,3.155758876292305,1.1296105885357262,0.43003257202720674,0.1147473328613034
2.049362935,-0.19878241631817967,0.1217692826628236,3.2025830746573334,1.1765156601298987,0.4365143904051345,0.0698507307941272
2.089367645,-0.13644966987379517,0.27121046628509504,3.2743319364035144,1.200843802102008,0.4672262450570009,0.020454718161244383
2.129418697,-0.10009967526601987,0.36350333310624383,3.326723095024501,1.2005292298995596,0.49138890007117775,-0.025181828360840854
2.169371172,-0.05088199841574618,0.48861505340844597,3.390809025210901,1.1933885041912824,0.47505501022252306,-0.05860143698472949
2.209350571,0.0014131127878628685,0.6150712194218995,3.4346735610662957,1.1709335051058982,0.44804161526539127,-0.08931377371534509
2.249368093,0.05815613628215387,0.7414472398040525,3.477729773354142,1.1306052240029403,0.4445197299626749,-0.11138964906887171
2.28935108,0.12018610174629137,0.8669425362045785,3.513906838331245,1.0839905990960106,0.4384778096643697,-0.13145986980149682
2.329356346,0.18854714605447753,0.9898104001180599,3.5131365228874967,1.0267117976851963,0.3999972509025386,-0.14731842430644787
2.369355452,0.26441236747436664,1.1086167299675238,3.5267185081321024,0.9609383434798081,0.38218594686544777,-0.15949360719582723
2.409360747,0.3472521572143175,1.2229591416108772,3.536447967900507,0.8926416860764894,0.3754783610019055,-0.1698034520855458
2.449371643,0.4377663042402967,1.3310634671169252,3.5190740530954185,0.8165404737206592,0.36874345907208217,-0.177497823523599
2.489356481,0.5357228327750678,1.4319963959990496,3.5270714020191023,0.7335267909233342,0.3541003379266469,-0.18295926126114867
2.529410109,0.6410005125919119,1.524931437817103,3.5089841375704016,0.650687876301666,0.35079463643924075,-0.18803072743275082
2.56935398,0.7531317912952332,1.6085387745390183,3.4916557025922246,0.5644242164152874,0.3672452523541867,-0.19050090634764555
2.60935214,0.8710665493159575,1.6818224974056049,3.476758624496326,0.4731190593845678,0.35163263789015803,-0.1927005657337638
2.649377305,1.0257028554265573,1.7583059939471792,3.433711570039215,0.3613472185109761,0.352570790909197,-0.19451763141369915
2.689356501,1.1541549675477623,1.8067266315394361,3.4101858414203887,0.2730280880701249,0.364619148278232,-0.19531949056144443
2.729436853,1.2524845088669776,1.8351967063398997,3.4024047873852794,0.20732857397936275,0.38748310286270743,-0.19421791675028732
2.769367564,1.3858271447351935,1.862875524949502,3.390333647396217,0.12549044541123514,0.3767397155958779,-0.1852463275747195
2.8093580940000002,1.5205443116430712,1.8790288869560348,3.3965181900309687,0.04070559041726856,0.38339001413134105,-0.18760683625047817
2.849362919,1.6557996950650524,1.8830503461159833,3.3721826217096034,-0.044591092147133034,0.4026333348979831,-0.19713231326449066
2.889353014,1.8244021734195335,1.8719174936803602,3.3901097148295,-0.14683567992833668,0.40732748384436096,-0.20167886441457056
2.929445603,1.9242431585574507,1.8563736118723753,3.371129254234468,-0.20633267365624527,0.40025823170034985,-0.2035954267349726
2.969357236,2.05555854162669,1.82584896172547,3.371234260671246,-0.29161981818307176,0.41651471881524776,-0.20554989619895947
3.009359556,2.1842131382797274,1.7848790727328674,3.3640177413090204,-0.3756810112118391,0.4253528452741527,-0.2022041310600644
3.049368163,2.308695570984778,1.7328048310662807,3.3682824376929217,-0.4627673038082308,0.42565621741475906,-0.21350466988049094
3.089358734,2.4278859194331823,1.6700387944475645,3.372239323409767,-0.5577770133324692,0.4291433968555571,-0.21444140816240664
3.12935317,2.5415795924865563,1.5972638467664526,3.3680351843754246,-0.6465611652857318,0.44716875503246467,-0.2157949173275723
3.169357408,2.648040116054633,1.5145665540611768,3.3720255262562944,-0.7381151359032582,0.4489030254202144,-0.21643930342035975
3.209432601,2.7701518975199155,1.3982583813178666,3.393522964349565,-0.8531970124700947,0.443396150991553,-0.21384253309334478
3.24936505,2.8366459976472473,1.3222186362302852,3.3655835872976594,-0.9223777774001533,0.4525379109943705,-0.21354752285302722
3.289363204,2.9360508596396016,1.1853944821730777,3.3845640219640467,-1.033792526477544,0.47048653236093374,-0.21208184291340507
3.329437015,3.0043700462814917,1.0683582871514623,3.402320330766837,-1.1187630470307437,0.4491843376199001,-0.20047749668068776
3.369363295,3.0491877113896164,0.9768136515699726,3.3880011695319716,-1.1795917715553697,0.4606527680843744,-0.207354635449879
3.409351983,3.0993794576730522,0.8505374711211908,3.401955125331914,-1.261827039665163,0.458991493210846,-0.20166796984091623
3.449359731,3.139373356430778,0.7197972138627318,3.4199620766814185,-1.346215809897494,0.4756884311909356,-0.2038847431619733
3.489349941,3.1678521790407377,0.5854883185162012,3.43364556878878,-1.4306810454804189,0.4625029502259787,-0.2106130371800933
3.529349093,3.1850045473243096,0.4493507454578932,3.4497092864733254,-1.517871071064775,0.45733614353137664,-0.2126386743830534
3.569356423,3.1905363738291452,0.3116459883784123,3.4355686174400466,-1.6062441840097805,0.46285092825223806,-0.2140338514122494
3.60942615,3.184220377943755,0.17372360749556143,3.441719426699015,-1.6955318164913156,0.45787477551439437,-0.2100324009271436
3.649366431,3.166158389046115,0.03699264738095479,3.4477641526961804,-1.7854208942615015,0.4409111439292413,-0.21061140676143483
3.689360576,3.136308842169772,-0.0976159188043327,3.4420366684089863,-1.8761359965784334,0.44758571977177053,-0.21125057202560593
3.7295131,3.0952204203382365,-0.22949727621977545,3.4406668001048684,-1.961979783391387,0.45954033093994373,-0.21163040129895228
3.769361007,3.0433661694132406,-0.35827897363309824,3.4735895218228863,-2.0388697560276916,0.442854382491521,-0.20958772709022486
3.809354516,2.98031469370192,-0.48139932165537225,3.467683412926618,-2.1246351053205648,0.4393572952922761,-0.2077623970252837
3.84936617,2.9071563650228165,-0.5988780882071093,3.455621029559013,-2.2134553034720397,0.44555823821948487,-0.20790794705810703
3.88937685,2.823932921779146,-0.7094497617234088,3.4805172269417635,-2.3013349451847938,0.450187157767523,-0.21072600921296347
3.929350754,2.7314511177736325,-0.8115439559459972,3.4428424989687882,-2.397264241581423,0.42351130401990594,-0.2063762974663137
3.969356528,2.604338345974033,-0.9272651140767164,3.440830291980764,-2.507326527748787,0.42198885028384414,-0.20618249318376528
4.009357449,2.521981780195241,-0.9894676177500491,3.4346920135735464,-2.572056254093003,0.41868679512199614,-0.20656148032805746
4.049363165,2.406490192738259,-1.063529000185621,3.4224821367344145,-2.6560381975865788,0.4251357487843898,-0.1986084401949385
4.089350937,2.285039959972488,-1.1274923656668319,3.4278251017953276,-2.741591112054802,0.4018760453413239,-0.19185568149111062
4.129361459,2.158550380112505,-1.1816184122577982,3.4531405894220244,-2.8170663210200177,0.4010057002895258,-0.19945056986493026
4.169361455,2.028684581113901,-1.224806735669761,3.424097008260276,-2.898164425222951,0.4099894525243935,-0.2017027051784416
4.209351148,1.895541461326032,-1.2570536061605844,3.4220231390910834,-2.9822312723902855,0.3869213638010919,-0.19896317025190202
4.249358614,1.7604004676861955,-1.2782091941872378,3.4208028646409177,-3.064154887091304,0.3579376869855536,-0.2034577021117583
4.289350324,1.624650705953869,-1.2875216769930826,3.380166599337455,3.1301628109661648,0.36079170815766815,-0.20687011975714925
4.329382086,1.4891534817991,-1.2851666792809202,3.38936243553241,3.0390730611768473,0.36603930927049144,-0.20966431170915686
4.369385361,1.355340606615819,-1.2710712370012007,3.3477760435730173,2.9496228583817423,0.33730128325081554,-0.20871569762830497
4.409376391,1.2244390761083892,-1.2454023949596087,3.327435074054785,2.856170139402199,0.33473987055787124,-0.21001361146253414
4.449364995,1.0974034642934751,-1.208218432665529,3.2938256630601717,2.7630358976050093,0.3264433638775548,-0.21135705878077832
4.489358657,0.9457090990976695,-1.146314808099387,3.271970556775669,2.646816812041104,0.34962719593260067,-0.2134649962359188
4.529423738,0.8591349641914737,-1.1012155537368078,3.252776633175662,2.5782732888611455,0.32654172908377505,-0.21087074443560277
4.569354062,0.7501669167298827,-1.0321487722382061,3.2091238776842066,2.4842918885509886,0.3295531267813911,-0.2119284316027471
4.609440672,0.6245692417596949,-0.933145836386769,3.195058371403785,2.373840493045501,0.3371526808426117,-0.2064524358085603
4.649375324,0.5552890756931467,-0.8671273362606932,3.1953752290315647,2.3102460081006604,0.36291317182669824,-0.21263405405677477
4.689432861,0.4495152630540427,-0.7472435677645681,3.2140405625753523,2.2114171647467114,0.4094469735890331,-0.1829788957401478
4.729441642,0.37210855496526085,-0.6432530433623612,3.2602952995407914,2.1504938670831013,0.44050547559562336,-0.14785029785818346
4.7693789980000005,0.31780214431922843,-0.5610749881218449,3.3074095894512117,2.1133306555165245,0.4750344828882012,-0.12701927754078732
4.809443846,0.24845216158864294,-0.44652997325724464,3.3582373721578103,2.076049790364565,0.47236317792425186,-0.0945274504225616
4.8493673610000005,0.18163316543348473,-0.3269643756748662,3.456315017045133,2.059902709622652,0.47852471862174834,-0.05466532816811431
4.889367087,0.1156490910778962,-0.20365948617759305,3.5397193894109624,2.055317985302472,0.49468021206567403,-0.022742901303552873
4.929439201,0.030350927830517797,-0.04609701237186404,3.615847768845813,2.0704714277170178,0.509641555411652,0.008996031547126917
4.969376413,-0.022499809216556196,0.049277170509483936,3.6408051344143435,2.0802174988597595,0.44456399353235043,0.02690083375955467
5.009357727,-0.11477921160650659,0.20813446480426898,3.676131643367945,2.1098143021487474,0.4081332126861875,0.05012055622216852
5.049366127,-0.17344210129235796,0.3025163056640771,3.7154713478907,2.1333814230315746,0.3748967704398679,0.06754326777696265
5.089351849,-0.25551961582521465,0.4267316336652234,3.7161177529561575,2.1681912988544862,0.3775330989468423,0.086504029288833
5.129350182,-0.34196131461047385,0.5483449800954457,3.735068919830384,2.209943659134352,0.31784404390832033,0.093668758301508
5.169356835,-0.43354745515369736,0.6662400315582457,3.7244651698573463,2.2594880086944094,0.28985283384745053,0.11186256118224291
5.209345208,-0.5308648790915312,0.7792941739949364,3.723328761500788,2.318423571674537,0.2792833062546433,0.12758235166499968
5.249362992,-0.6340023957892149,0.8861232677901112,3.7054651395477873,2.391128657147368,0.2469419559246154,0.1418822302653301
5.289349091,-0.7427128340959402,0.9853644942851245,3.6876768096907013,2.4702257708747397,0.22620893518839263,0.15180121852247053
5.329357003,-0.8570484869717433,1.0754811437806333,3.617881770990943,2.5570838570158467,0.2112835997094682,0.1595693927062675
5.369359263,-0.9764068627022742,1.1554365015586758,3.566152626436073,2.6501767418594477,0.21198096667355762,0.1634009048970096
5.409361305,-1.131006432730374,1.2393896152976511,3.487486718625609,2.7712878970461627,0.19718952817662247,0.1618666511769717
5.44936179,-1.226038994551748,1.2805276173769156,3.430794284585755,2.8436615759937487,0.20200561883224097,0.16393923896183654
5.489354475,-1.3547422289960145,1.3248699313530488,3.3906147480156825,2.940002125480396,0.21277988838178036,0.16481055194941152
5.529357753,-1.484538922850763,1.3560696110013482,3.3265701028511527,3.0343406963714674,0.24146900997883108,0.15734979657769338
5.569359535,-1.6467793445082788,1.3774538179147058,3.252556710673896,-3.1376418953062966,0.24837785675985288,0.1600274639663318
5.609447735,-1.7437091316156106,1.380503962561794,3.2160583148876194,-3.071137937262597,0.2527030047578854,0.16168197652709404
5.649367905,-1.8710500152184402,1.374179521957815,3.181956003131819,-2.985313812285422,0.2801324363067437,0.16445993116522084
5.689368434,-1.9959088043988233,1.3560891665006523,3.1546146411477416,-2.9080536688699765,0.31303388249820324,0.1586894441110318
5.729357693,-2.117865662859779,1.3264883969337924,3.12711568713893,-2.835079705296867,0.3170938560046826,0.16908996902055148
5.769356006,-2.2364476945898804,1.286087006750532,3.135418010090397,-2.7577549605254394,0.3299579678933822,0.17427457305055058
5.809353413,-2.3511201631250778,1.2355938339399637,3.1414326137528015,-2.6720859606792997,0.3548896205390009,0.18238092230289815
5.849376404,-2.4610353008307086,1.1755252396185016,3.13199164731385,-2.5791373273665252,0.3678956862925568,0.1846198178521528
5.889427158,-2.590694468399623,1.0870876841981278,3.129268706361877,-2.4638835897620357,0.35437493715179014,0.19159668281339948
5.9293723830000005,-2.663156009556309,1.027751721243973,3.125967980965442,-2.394600937212285,0.3555883076751166,0.1963676682081105
5.969373885,-2.7529343514953233,0.9407964492464003,3.115156293705448,-2.299646615973024,0.3768534603391806,0.19870271548940846
6.009350262,-2.8343779250142536,0.8467374372283037,3.1187852655996218,-2.207184764066292,0.3762368352679192,0.184525992633124
6.049361561,-2.906501573617147,0.7452430794913396,3.1160152398996472,-2.1122718283551176,0.3764823167999961,0.19371792494937248
6.089355627,-2.9690628031108632,0.6383956129923545,3.07507160640754,-2.0177067110392195,0.38937765973514016,0.19545048475333518
6.12943161,-3.0327558794447764,0.4966247504513082,3.1229030757374936,-1.9046381742921128,0.4113838179077478,0.19769910986869685
6.169369011,-3.06240479539272,0.4085718605969844,3.119034363237013,-1.8370025623443778,0.4031364385921143,0.19853096620263158
6.209416654,-3.092626246316386,0.2877692294722336,3.104937995358682,-1.7499302836473916,0.4204272240019008,0.19768379389701657
6.249373518,-3.111854104880977,0.16451391305207133,3.0952216976198503,-1.6615422489093818,0.41137751924026283,0.19146251758294588
6.289354157,-3.1198979657480606,0.03928769632460455,3.139120401959168,-1.5689355937091363,0.4294687306488503,0.1960888194421596
