time (sec),x position (m),y position (m),forward velocity (m/s),"heading angle (rad), from x-axis, positive is CCW",throttle (unitless; -1 to 1),steering angle (unitless; -1 to 1)
1.121748413,-2.5581173014412455,-0.5385383828738928,2.9349221441283193,-1.2156886842429555,0.35414014890701495,0.22281108925106394
1.321748823,-2.39660684970381,-1.0031193553925688,3.0328981936453183,-0.92392512172962,0.38047839986608784,0.21963773819623197
1.521725102,-1.9040174845423534,-1.3238385014403746,2.82560634966446,-0.38390801897316734,0.3650103822082872,0.22885697448701572
1.721753402,-1.2519733135026343,-1.5522967307662707,2.969397168355479,-0.0943981844367597,0.3685189054299959,0.2350266961959084
1.921814257,-0.7990552562868153,-1.4548677598239825,2.8081515116828957,0.3880913960990892,0.3837199033901814,0.23363620225715429
2.121741546,-0.2898157869286271,-1.0186823765489834,2.9123773845936465,0.8727935823487294,0.44348459470320695,0.21146659055069217
2.321747998,-0.06495417611514517,-0.45281689363700867,3.2153585049185684,1.2839465382681765,0.5310772995449161,0.024959123166957427
2.521748456,0.16722124581921527,0.06433481625180124,3.659126409588115,1.1375512583660687,0.45150226135651855,-0.11761918516909622
2.721747115,0.6217132386446851,0.6810240194267431,3.523556007255912,0.8786039130244314,0.25257439984592434,-0.2023353360725021
2.921728279,1.0535189451288351,1.0141207544594772,3.277504518686676,0.40301184726837747,0.2548374437896818,-0.2196935026681361
3.121822633,1.6881522807355889,1.2474842118612508,3.0090527510098624,-0.019925836726638987,0.3272845863957183,-0.240449000895236
3.321722066,2.225836418367463,1.190314884948372,2.9720857087255994,-0.515234987719332,0.3823325306576315,-0.2515717546515928
3.521738858,2.725561060667141,0.7446647716574547,2.9860015337781873,-0.8071874332329779,0.4123432282206727,-0.2502263439606141
3.72174423,3.055232935386329,0.1546167292002588,3.0485035179272844,-1.4538715286423107,0.4150362898283504,-0.24344389769502967
3.921753659,3.004408946872568,-0.3869241022713732,3.054365572076011,-1.7973213933890333,0.4006434383978311,-0.24266679032551045
4.121728829,2.651753513063482,-0.8301877171031866,3.0799470253267796,-2.2701520078409105,0.37974629793684705,-0.2450636555814442
4.321725848,2.1479332841578644,-1.230412856977665,2.9906670023898774,-2.814879395664202,0.3768053615980015,-0.24217109565263006
4.521731466,1.4138111502929076,-1.4097170434494728,3.0141095430406684,-3.2731886172807627,0.42261613525246355,-0.2500042054351853
4.721724912,0.9495796123465532,-1.1104819957848295,2.9330121158055262,-3.741181062371805,0.450237784392105,-0.24533080139133748
4.921723753,0.5626414408516834,-0.6943923045864119,3.054653934589616,-4.049501417366224,0.5017347912766617,-0.17840487454915488
5.121728741,0.2569286331542943,-0.0947596022007867,3.547760371728465,-4.3238302757280405,0.501891359463843,0.0028850978983572086
5.321723757,-0.11373303435587992,0.4879890944340872,3.60700193419318,-4.091087983815997,0.3224811387890808,0.1170373031746637
5.521750518,-0.6367634793756966,1.0698556102377839,3.4739864388804578,-3.7581002036847706,0.2546033689510472,0.17026030521167543
5.721722828,-1.1770150545213898,1.3987833077091179,3.230004912681255,-3.221629275755777,0.26425174320171185,0.18492496207738504
5.921729129,-1.7619048862308415,1.4624082391613438,3.1069143349636574,-2.8854807870780363,0.2971874208702076,0.20152864503884144
6.121724657,-2.3275067557905813,1.2783538566752783,2.9890633868560577,-2.4047107418766838,0.35305044342616165,0.20646493565475854
6.321727446,-2.7291973793544435,0.7727796069004317,2.9825284421944023,-1.9615063193259066,0.3816516761854245,0.22243484334830585
6.521732599,-2.9323419434234013,0.10381699065795404,2.990125985545647,-1.6122011281102582,0.4148602111514343,0.2114707092148125
6.721725472,-2.6984258222375117,-0.3513677294467944,2.9813393460642112,-0.9785224452955791,0.44023512652499747,0.21464471871892993
6.9217292310000005,-2.5016290972678803,-0.9979743168505832,3.1154814104672885,-0.6185067704203397,0.39764921373800105,0.20989558345008738
7.12174826,-1.893895187326434,-1.1738728042680862,2.9934349007539605,-0.28450763561585074,0.37251779031062243,0.20975967147931018
7.321738026,-1.2362725033097677,-1.278373214951803,3.0749627813122298,0.13320255120356736,0.3661730082706232,0.21871522272586644
7.521728744,-0.7993513724066045,-0.9568261836212433,2.918542385433651,0.7381382536208351,0.36281972604254775,0.2194137658397644
7.721737133,-0.3476990209015539,-0.5858748706010806,3.0048805556723344,1.152310007807024,0.47636470769327366,0.1366811411250468
7.921828939,-0.06281122891267495,0.05889566705453674,3.477756376717987,1.1386470844556755,0.5063924389484271,-0.05966807658090572
8.121723889,0.3299480647779337,0.7670166269292631,3.377219064382902,0.9372866733344869,0.3179202571969054,-0.17207566649223163
8.321794201,0.6502398980796563,1.2300727941004437,3.3794464243331808,0.5718197906474841,0.26248147770655655,-0.21781483635356225
8.521738246,1.27876491937934,1.5226358199019252,3.128034232618003,0.11275646111662142,0.33103571729757175,-0.22670171396039282
8.721745991,1.8399925912139214,1.4244568039596743,3.0936954941592645,-0.2187404201707176,0.39080623196946557,-0.2360912230250679
8.921819639,2.4752111426593233,1.090253524594717,3.0147778240995,-0.780239581816839,0.423785108638534,-0.2445644507570222
9.121829209,2.7541416937036582,0.7086698124520827,3.0519490529206164,-1.2126408212171786,0.42549392874429676,-0.23621732220160507
9.321724219,2.8526072223387935,0.0850767288402729,3.1121881063137633,-1.7227555131048615,0.3926946140592669,-0.2347563027533833
9.521746463,2.768520424378963,-0.46066304123193275,3.0503957814832665,-2.1289434443507127,0.37285890733623367,-0.2391398336454474
9.721805862,2.415443750295554,-0.9631376880453162,2.9706937053522733,-2.5501599488389415,0.3481961498987708,-0.24155917811838254
9.921780488,1.6741533186137023,-1.2193087008807568,2.9875661330247394,-2.8857539600189717,0.3563200852295745,-0.2566586243039761
10.121741361,1.1802442749845141,-1.1203049193137709,2.9141564166561906,-3.3559755636736517,0.4155826176405256,-0.2575428613587709
10.321726005,0.6841825112153169,-0.7997772021987118,3.03817418319754,-3.948845735089637,0.45901250353360307,-0.24525916134986797
10.521720777,0.3319293399095619,-0.25580293808753146,3.169539711570342,-4.152561461107833,0.5087400968067355,-0.10155311880636468
10.721750007,0.15012314113562886,0.2946293272248809,3.4757004135656873,-4.195556198963352,0.42159910213619267,0.07390018668043802
10.921733614,-0.37061470208373387,0.9363576694188152,3.643195302517675,-3.895023980676214,0.27309863489766795,0.15051235158248155
11.121734612,-0.880585080567293,1.2755955958307377,3.401265533615728,-3.496016438664972,0.2519883482488904,0.18071069757069447
11.321733614,-1.3776569666172698,1.4710233622763964,3.1460171533643853,-3.180079543923341,0.3266227810076207,0.18392323249816941
11.521729322,-2.1170783210174937,1.5156347035074007,3.009947204103508,-2.6850314899974195,0.3303133976220286,0.20031275002156532
11.721724574,-2.6678949927907634,1.0118600398282716,2.9592239089291104,-2.294229575741277,0.36434777306167854,0.21729966344773363
11.921727425,-2.8873975205413926,0.5351053825715051,2.9210748392458523,-1.6922430209207968,0.41093508198257017,0.22806009199602645
12.121728312,-2.9039381974841114,-0.13996411802843353,3.024810892383847,-1.3340846115007845,0.4147640373466009,0.2210173393450756
12.321728914,-2.694708162597487,-0.6590839018838848,2.9769889638522162,-0.8118336595239573,0.42302439532413555,0.21796723800380832
12.521833889,-2.2158632331888004,-1.0915233572378071,3.0424107465700554,-0.5225110640996364,0.41014043804560285,0.2168309785218707
12.721817712,-1.583803154788102,-1.2545952269873417,3.128127209836058,0.03599389757503184,0.36530800241628214,0.2107372132782067
12.921723417,-1.0124398432586477,-1.2730290314143122,2.9456584320637944,0.58186460599374,0.35629113502434756,0.21856492892386056
13.121724218,-0.48890597474891206,-0.8441781687124517,2.961793831030528,0.9736865935766944,0.3993979706317446,0.22358158130496483
13.321740755,-0.2459175466001355,-0.2400860477750818,3.1615736106568417,1.10826811840758,0.4945519033802014,0.03684370540817832
13.521843871,-0.1095793488652786,0.3020690606117645,3.514588538546101,1.0893632039572334,0.4056782979049684,-0.11080261693840655
13.72182523,0.3511049424938651,0.8084647192792249,3.4319302825640636,0.9146831982769829,0.31136016838805214,-0.19794587157179858
13.921740893,0.9539222356575732,1.3646445240662335,3.317290412802814,0.34683846607570334,0.2776585979075197,-0.2161358201150451
14.1218386,1.524504310257288,1.3795088571433551,3.2536008468299773,-0.10466300143862922,0.34934001763438144,-0.22710735072482033
14.321843914,2.1889946876736253,1.1955335727288674,2.989377612108315,-0.6482837697156859,0.4218208934938183,-0.23448301272906102
14.521726952,2.5280078929023695,0.8652490405407655,3.108950826382576,-0.8720359106359035,0.4228874992238317,-0.23556564934579258
14.721739898,2.803560556402568,0.33834861300984465,3.0117429655958494,-1.5258697684129894,0.41286072750196795,-0.22900654181482175
14.921737937,2.6564834850707095,-0.3591277413169782,3.0749849200254893,-1.885653620883054,0.3873192407985942,-0.22899063246393936
15.121746344,2.4464213604788507,-0.8469296757439309,3.0165100634988797,-2.281806552737956,0.34439019302578555,-0.23579982941694766
15.321822859,1.947461061723934,-1.2046682375983977,2.879578748179687,-2.740951675593415,0.3515218816043552,-0.2513739886229801
15.521749996,1.4434184333759663,-1.1765279503029835,3.018112998275791,-3.207036947968577,0.389974712785686,-0.24716046449955764
15.721724384,0.827730389049366,-1.0585812080766988,3.0303307945059026,-3.7515805165543306,0.458306053495967,-0.2440856489363986
15.921740289,0.41830652386992023,-0.6336011366338257,3.0785954286381476,-4.207541831023611,0.49924743519256926,-0.21901458519692255
16.1217246,0.24533095603974256,-0.05456263932151732,3.5062852852019337,-4.3579885703185255,0.4804480229607632,0.022675576063192256
16.321734437,-0.2218900586824471,0.6338126581671628,3.562926101268638,-4.321974151499619,0.3334487464708529,0.12558393251577288
16.521886326,-0.571999434365631,1.1088579854749103,3.537283535712465,-3.7748343662299173,0.29301608451393046,0.18598425980798147
16.721722351,-1.1356759865550061,1.5058480183752045,3.2577192449373484,-3.352767879762168,0.2666933641666888,0.19946969004408444
16.921816033,-1.7333940458437969,1.4786044857557559,3.0729557872439486,-2.8784189750371927,0.32101716342222464,0.19533679448635863
17.121767006,-2.3037579018173946,1.294849295292712,2.8815940470899775,-2.516191332179812,0.3361944261347539,0.2536103613834866
17.321739365,-2.6914396596458796,0.7186103155474781,3.031358025847756,-1.9082551657601379,0.4154391563250156,0.20217152557209042
17.521748497,-2.7683905602234375,0.1320347719361073,3.098588402253132,-1.622242557850205,0.43060144254270183,0.21347843691346782
17.721729722,-2.7430099841221733,-0.4070002806815416,3.0733832188252492,-1.196744955832126,0.3946774362849073,0.21557668805440583
17.921845735,-2.291457647038134,-0.9547656900369007,3.175154322611253,-0.63384380729961,0.3893586939713108,0.22148172683698583
18.121756529,-1.7419575155397964,-1.2570869054109417,2.9609455798862743,-0.18063750858748656,0.3710020444592488,0.21430869175778966
18.321726034,-1.1791795849329312,-1.2915312856682317,2.990277691203013,0.3079007304456344,0.35670657699203334,0.2191568536479832
18.521749593,-0.783344090367964,-1.0101848760412773,2.8878911025265195,0.6483120364911449,0.37084745642813904,0.22228145519505738
18.72175621,-0.31080296626844667,-0.5514223979991355,2.9856201433221496,1.169271154641879,0.4607875507163914,0.16017362051173833
18.921724798,-0.10731436350743014,0.16013872193584688,3.2590575691141677,1.259465680709947,0.4731837621155637,-0.0425723528103713
19.121725839,0.25149233212778027,0.6836964563119169,3.616079237539119,1.0747871997437632,0.3375686722253225,-0.16753169279648453
19.321824821,0.7350824914476425,1.2505221066156493,3.4011447802644157,0.6199107148477255,0.2743791835894185,-0.21103051217531402
19.521741449,1.2594957078860864,1.4459084718261623,3.224353517193322,0.15236954804964387,0.29724594836591967,-0.23001039026407794
19.721744768,1.8447183109827778,1.4776772779584724,3.135106847284403,-0.13581515854050638,0.37515369244823543,-0.2296115389791946
19.921758804,2.466749074572026,1.1872643855167646,3.122655908108303,-0.6165861703126676,0.4408063470262152,-0.24446531194254872
20.121726926,2.6913770821542378,0.6978572413344707,3.245610737270568,-1.125337860447374,0.40443642582516687,-0.23782429525221552
20.321723504,2.914963109231645,0.050417141927884934,3.1562904230947,-1.524388045847461,0.3866312733450133,-0.24242967172553204
20.521726379,2.7937254999325476,-0.5854350381090851,3.0577034798907934,-2.076748163723403,0.38266061406619795,-0.24626456166834368
20.721724646,2.270693966016752,-0.9990679135866134,2.9781783334561616,-2.473273399266716,0.3539206054253303,-0.24148118055352272
20.92172696,1.745337882396611,-1.4284752414821544,2.919386704349667,-2.849375245113977,0.3566598200012672,-0.2608388888802739
21.121729757,1.1926803506591446,-1.2126564413555991,2.9409843920148453,-3.5210123824993267,0.4520191921270157,-0.25828013482906614
21.321725619,0.6135559259157775,-0.9242762223570015,3.0029552795951506,-3.9486743815557572,0.46908100177612977,-0.22547363064293616
21.521812722,0.2762859604831099,-0.40086484499792385,3.251336378278129,-4.357948842907217,0.5165639325819008,-0.0922356141397353
21.721725145,0.0873468764515104,0.33317727027308663,3.566522142141688,-4.373151734660322,0.40650929737179164,0.06851433063477773
21.92174382,-0.3350857352368779,0.9360299368062199,3.5418679328022558,-3.987590959307781,0.29526086056674117,0.13839422556818315
22.121725012,-0.9403539789642718,1.2929466667708165,3.3523445179646023,-3.5149745485252635,0.24470330862660092,0.18170578582810912
22.321752802,-1.513579123767521,1.4194667658212041,3.1434036172527473,-3.092218923239277,0.2953285001329528,0.19234600091104745
22.521723873,-2.2093258755151393,1.3041067125014496,3.005264247988505,-2.666342317039904,0.31807997684310246,0.19778471801418618
22.721754171,-2.528630053624586,0.803684209315378,3.0403186701326,-2.2225058271088307,0.35392515308279743,0.22903311468755563
22.921819717,-2.872387555413132,0.432423538103159,2.989528769189659,-1.7376492586541454,0.41965448882639295,0.21392756429411813
