time (sec),x position (m),y position (m),forward velocity (m/s),"heading angle (rad), from x-axis, positive is CCW",throttle (unitless; -1 to 1),steering angle (unitless; -1 to 1)
1.134478233,-0.6663483022647257,-0.8637987272852578,3.335014450998026,1.2092775926903934,0.4334306081350438,0.16081386640487985
1.334479607,-0.40298685013064534,-0.26550044547997,3.530114273672493,1.2690781460723257,0.49592608536572763,-0.04904925671431717
1.534476425,-0.04514963037108267,0.4296459194352055,3.62541546759915,0.8637354555735742,0.3940919868329039,-0.145343004410812
1.734481636,0.44869044476467046,0.8400406737687139,3.5356261086737386,0.5504896531128687,0.38461332201124154,-0.1544008415432576
1.934475476,1.2171759518135163,1.2258131381294244,3.454157622685815,0.09422590767609251,0.35570751842304704,-0.1539798587429598
2.134491298,1.7367824055224659,1.084482981316323,3.483678758586488,-0.33342349283167216,0.3403076405754395,-0.1695753439059257
2.334502493,2.3621209920572794,0.7692406025459175,3.270429410363123,-0.7000906958874933,0.35000559002358395,-0.17054544772860006
2.5344804930000002,2.7817239866092174,0.33318707092599786,3.155700727396359,-1.1455326444347809,0.3588070446818826,-0.17845752186770644
2.734484609,2.9599835808851176,-0.2986279598850117,3.2959805561741207,-1.63095036264221,0.3678871109656073,-0.19324857454864913
2.934475543,2.6556590637172497,-0.8955228748800497,3.1042710619180895,-2.1825433136416335,0.41616209685817496,-0.1965493324518438
3.134476454,2.2301294743197224,-1.349399989096151,3.144957801097945,-2.616484575709133,0.4215937905233529,-0.1908747459497836
3.334482853,1.73438486579488,-1.5546106684719132,3.221245004910056,-3.0512950079847134,0.4153086854170062,-0.1880254170877194
3.534485178,0.988424126349576,-1.5629781606075481,3.1460296630411797,-3.4852937496181293,0.27121603249686127,-0.2122665150650214
3.7344837980000003,0.541118492960402,-1.2897091891786143,2.9092906214079166,-4.112831740880111,0.3867141268237983,-0.2055411029035935
3.93447218,0.1144266735403607,-0.644934283510152,3.286838721780684,-4.400255084064741,0.5568921576261381,-0.08008466652269086
4.134473726,-0.06140757807733114,0.0670176454916315,3.7564073917486023,-4.377398932227749,0.43542210887290983,0.07710301987867893
4.334477459,-0.291419928160771,0.5626135411310292,3.761405656192194,-4.117242988937525,0.2696553921321327,0.16007319717269786
4.534485463,-0.8570157124266834,1.0721388581497633,3.5401551677867196,-3.6887050714850265,0.2371048101189124,0.1844925505261819
4.734479766,-1.5156713307433451,1.3164632941187662,3.1443999200501738,-3.152039919038116,0.2934485500905246,0.17345096732085794
4.934486891,-2.0518960669928443,1.1406205792305182,3.1146937387205615,-2.8359204298548484,0.3400296805318508,0.1836945979474165
5.134478905,-2.5312225836254263,0.8941542333231562,3.160594367877148,-2.3352208997523656,0.3606088593364624,0.19869541811016123
5.3344857900000004,-2.8692687576132863,0.33501772083719944,3.0376516095744353,-1.7599201242146998,0.3557263050024185,0.19855286520388457
5.53448431,-3.0562673185084055,-0.18299136322167348,3.0582218515975708,-1.4328975220310933,0.3443216219192289,0.2123633151648511
5.734481875,-2.8381687703256397,-0.7281549405680284,3.169523421077778,-0.9186532790696066,0.4208014882801674,0.22251566621284025
5.934471618,-2.1424576660927532,-1.0609983280931392,3.259832677941616,-0.4645373141110857,0.45087389506578374,0.2227049020857875
6.134472047,-1.7245422397381798,-1.2336970432895766,3.1555105733728106,-0.03210145193851738,0.4658140591158492,0.22123035994405085
6.33447686,-1.0814495685762338,-1.2982984011093577,3.28570219792778,0.38727887947790934,0.4290522239147108,0.20440587180500647
6.53447727,-0.5214772444140153,-0.9662075220463001,3.1819107057788045,0.9919733725848068,0.3939989742597494,0.19072077014988245
6.734477787,-0.19291869237853032,-0.2645832305508101,3.262740593048761,1.1731639749094398,0.5031055080116658,0.04026252322157642
6.934483623,-0.07891710429302487,0.3256045656294763,3.6739929884397693,1.1298299657391908,0.4310611106756522,-0.12123116174062312
7.13448004,0.3945828786358006,0.9152158270990032,3.5508400679670102,0.7794411250281991,0.3617412123554633,-0.1679787766248376
7.334477931,1.0022368296109982,1.3239067087985996,3.4210392498600792,0.32121003037216234,0.3712146431727189,-0.1657535354934653
7.534476575,1.699281219786687,1.3928804160489865,3.3707121849429975,-0.1245912914848149,0.36510646972943245,-0.17581686243023736
7.73452169,2.2657604411924477,1.2175880753499144,3.213587819010641,-0.6618151545844049,0.39721498924089044,-0.18899192975280316
7.934475946,2.646353433884623,0.6960735119828071,3.2414173176623593,-0.9420199366902683,0.38638366796577345,-0.1790560474880193
8.134480675,3.024266844065699,0.053873069534320334,3.1681013849488973,-1.4592932370403802,0.38830611199058535,-0.19459195118652542
8.334487294,2.9428837382671933,-0.303824716554543,3.1947538275731615,-1.9642406536584498,0.4255745333898077,-0.19377805169209297
8.534478677,2.6014464277774785,-1.0579604611048348,3.130553112940919,-2.3390578086947764,0.41664179246673,-0.19441484472313048
8.734490785,2.1360722375094405,-1.3490116120349769,3.347553501853376,-2.790722893953189,0.4194085877937471,-0.18640119505865554
8.934525429,1.4978630973848701,-1.5086418981172824,3.2185465031080227,-3.1435864716967026,0.38889626659069937,-0.18985728283586772
9.134477949,0.7778649189220294,-1.4054309253440194,3.2597215270372706,-3.5890815191947745,0.3633699834734078,-0.1845634932294703
9.334472548,0.3684342624518581,-0.9802173559516226,3.1272391574588343,-4.189024578584831,0.37360454337852694,-0.19356867861661778
9.534474563,-0.0022079320888837017,-0.2733524605691657,3.4020346534930344,-4.491634724004555,0.49391125587253,-0.006211812172838701
9.734480534,-0.1821415348116692,0.4104535185095328,3.627093792839902,-4.226824357321104,0.34040571927761865,0.11731709067787363
9.934475588,-0.6390393225257999,0.8781518326842759,3.6126584328318763,-3.9657287025317354,0.25378513584165185,0.1772247178356364
10.134538746,-1.200245441238671,1.3441354493710254,3.2761163047555257,-3.3826453359072373,0.24169834606040652,0.18147050989740354
10.334483686,-1.7835261696034355,1.3560438395146177,3.0029447222604198,-3.047297785874582,0.32608975553563807,0.17394763689667536
10.534478162,-2.4245819530354384,1.105522645270535,2.7656465130604233,-2.5444083838038924,0.11305003292016076,0.3131494147002356
10.734476474000001,-2.6413279495627133,0.7320672184038981,2.830919296564286,-1.9687214364653733,0.4710454238884474,0.1656258837792193
10.934480776000001,-2.808348117908427,0.13018981645742211,3.1586601241525347,-1.6661499886229973,0.3963409553195502,0.18592865566189962
11.134478265,-2.8509476661163973,-0.436550424257278,3.196540952606301,-1.0617896906964526,0.36464629936242526,0.21778336271734028
11.334485168,-2.5034662429156773,-1.019044098952681,3.1226935640012936,-0.7540944425882667,0.38813088124192835,0.21804797151642236
11.534476502,-1.953298719128603,-1.2177930929936196,3.1812382324162494,-0.275752841543017,0.44405554353095256,0.22068854994526718
11.734545349,-1.1971976154323738,-1.3031606709101604,3.3028036838791506,0.19774941668435483,0.43394431944012035,0.2139608213994956
11.934514243,-0.7033645019367709,-1.1403393128566877,3.208095111916848,0.7657386388823921,0.4038423789134344,0.20192874073941489
12.134472996,-0.26052027735727395,-0.7248362386838454,3.2622073103873874,1.1796484285965472,0.43014803627645526,0.15517056568286133
12.334480204,-0.025933874437194138,0.07680663780172871,3.454945196469818,1.1273349169038196,0.4679604546131549,-0.04590601158463427
12.534483336000001,0.3719107201817291,0.6776914708283449,3.599880593824331,0.9459087379216147,0.363159615888079,-0.14560467551579276
12.734464667,0.7727616256472247,1.206203204449299,3.5320766755685216,0.5758356692464628,0.33093558512558674,-0.174800801655963
12.934474438,1.5171622314688447,1.2908448461639919,3.300450313779925,0.06489136406913325,0.3494862040072689,-0.17579997539844078
13.134478373,2.0571549739697637,1.3433021729532355,3.322797534702332,-0.29892979272434833,0.3592859621325835,-0.18559241303279103
13.334472586,2.6287349942084473,0.9566361360481604,3.229210482152447,-0.8270552239276907,0.3989182835863199,-0.19532954064140373
13.534474661,2.9965265930064144,0.4252765607078846,3.2677902819992664,-1.2978196415944578,0.3972155615761954,-0.1986019594223619
13.734478713,3.138201101805494,-0.13722795459900766,3.195144974886887,-1.8371815820471875,0.4213539558812363,-0.18460465140099247
13.93448216,2.944517074298655,-0.7085275174064549,3.14454704287012,-2.2038886911848192,0.43233680770820837,-0.20142590593521204
14.134472667,2.5421520478699793,-1.220985181430538,3.267642746959906,-2.555112290933397,0.4222928674568084,-0.19109282699996832
14.334487961,1.888734838131971,-1.4629067604245694,3.3861046757260733,-2.9589005357329343,0.40807892554128533,-0.18762737138349606
14.534478846,1.12330260302623,-1.435938678937246,3.2607389749025657,-3.4523724582792172,0.39344557025148885,-0.18845471322706514
14.734482311,0.6817990859143845,-1.1955850930269556,2.865725433406858,-4.012678564896291,0.3161820269864351,-0.22647227887964427
14.934482462,0.4361878251551268,-0.730536330372574,2.8474420450739464,-4.495742727041112,0.6509046070899552,-0.05944622053195882
15.134488897,0.3367712441498899,-0.1136343902503344,3.5134026408887418,-4.697100756203248,0.5475921080644657,0.1476179302147116
15.334478697,0.21573022060067254,0.6331139137845894,3.7829365583139567,-4.2841741175716646,0.2588124805752605,0.26992698482983446
15.534484325,-0.037929691584965716,1.2793409753126044,3.4514967431650074,-3.762037475475678,0.2292129394814095,0.2659611237125875
15.734482664,-0.5867689584468802,1.5578916937519003,2.8328222358935644,-3.349975953615728,0.4652982645469606,0.2047333744469969
15.934484558,-1.1397230581244069,1.543387474159092,3.1133008886354507,-2.8546312608025106,0.5483187373546965,0.20987443797498576
16.134484812,-1.8616225915604043,1.3507631149270007,3.276231348640751,-2.4580588153495677,0.41096868164546346,0.22486253050324845
16.334480331,-2.2334647161392263,0.9596291043183914,3.2997685257169094,-2.0074906559429517,0.3279602904199342,0.22933299372829655
16.534479279,-2.3631318935242067,0.2234954879789261,3.084440895125649,-1.5112440359586539,0.31605562829734835,0.2144083336592837
16.734481282,-2.227502104671967,-0.2355005670600374,2.9670278318080987,-0.9680768899947609,0.39739406270962907,0.21463609913872597
16.934478423,-1.8923141394663463,-0.7710372059197206,3.0736633301213088,-0.4827010643890589,0.4073257079363214,0.22963741804639673
17.134475917,-1.1678300895124514,-0.9552472711505191,3.00384949589393,-0.0517975702440102,0.4074511838122921,0.22948071792060518
17.334491483,-0.6119941048244313,-1.0176005270348545,3.1062801260185533,0.4140370749786051,0.39568655739723063,0.2283376459064193
17.534486425,-0.15890513997605213,-0.5934438946975352,2.981209002301219,0.8331837482315079,0.3606227197984869,0.22345305565735746
17.734494777000002,0.156968790814092,0.02464191815341081,3.1869703298157974,1.2366045057182007,0.48178799431779545,0.05825977275875214
17.934489496,0.4563579498151543,0.6365959032203841,3.3853286113540277,1.2028103245694266,0.4349251993654703,-0.11398698604268394
18.134474466,0.6740054739311865,1.1447903223341331,3.4655797505247588,0.850153266938271,0.33913462787416576,-0.17796378192579332
18.334499279,1.262047540403977,1.5143696428966416,3.251286080588044,0.4469238000951041,0.36838206717591826,-0.18336032326365884
18.534477624,1.864294808642073,1.5777972628507966,3.283569718719807,-0.16016461476618776,0.3827768992415647,-0.18776188990414097
18.734482655,2.516449119719887,1.3985997521735438,3.318356215160144,-0.5762608785665806,0.4112145210934826,-0.1929314661282281
18.934477149,3.1079944775410175,0.867587473073844,3.2244814680036824,-1.034593605285691,0.4232900481420012,-0.1928581675129731
19.13449293,3.2455175822676456,0.3813199595286175,3.2634469882217387,-1.5036048000304993,0.4243160369877965,-0.19460502691218112
19.334477665,3.1402355428925217,-0.3722244484126005,3.321824279331961,-1.803853177669867,0.44723260864605785,-0.1895429745006281
19.534469148,2.8128588927627822,-0.8936877164885917,3.263546392869614,-2.3155246152515123,0.4175691884153409,-0.19003331406330418
19.734481854,2.1371506128211064,-1.2877227294404896,3.360971450956056,-2.766251478910702,0.4107263490937578,-0.174525990052409
19.934482467,1.600331780880883,-1.2961721911158541,3.3155052190061767,-3.229531496369215,0.39946581122409497,-0.18591001011645808
20.134477101,0.9276859052736967,-1.1941482891633286,3.262816797415776,-3.826981624622505,0.3342314840134383,-0.18513700648618348
20.334475564,0.4163977812091876,-0.8252281271642059,3.1247904474476837,-4.150624892740115,0.3545808924435818,-0.19255356913707874
20.53452008,0.2070013188118125,-0.10366503374523785,3.3079447868578638,-4.448521868393605,0.4807677551519181,0.0015660240438539652
20.73447442,0.00734349170078509,0.3941710260284726,3.666140025410381,-4.190814892528508,0.3523925661286009,0.1261035431486765
20.934490479,-0.5069025248492081,1.0201122594923555,3.591323835123673,-3.973586241178184,0.2710925634614984,0.17554070431666124
21.134484018,-1.0023893833529072,1.2149279106051611,3.332235880055543,-3.3564975529398864,0.26305956004616393,0.18306386188047677
21.334482516,-1.65540243056042,1.4438634976327944,3.2121162400065586,-3.0461194988476668,0.3369629754734276,0.18370519464979237
21.534490577,-2.3734780054266644,1.1565544020417995,2.8899048362727715,-2.552094650434837,0.11406789969958464,0.30780660166300916
21.734483853,-2.6608105083899614,0.7259523732886665,2.942527782255585,-2.0367227753801354,0.4631384247726663,0.16063481694092116
21.934492958,-2.8380620973455146,0.2474795076582453,3.161288957538118,-1.7140769339332216,0.38624821752316185,0.19941712949262397
22.134504267,-2.7946996773056716,-0.4741614705606443,3.0582604476040647,-1.121051482344157,0.36259925641790997,0.2174544972450275
22.334476088,-2.3608038004537066,-0.8869349732806098,3.0955726377036887,-0.8052170845078245,0.40965739641096377,0.21778784248492028
22.534485954,-2.0968183407053185,-1.1021859249220167,3.1689155248365553,-0.252925111557095,0.4521017647249661,0.22920105588797435
22.734478736,-1.1647553110563678,-1.3392744533933236,3.128002581078944,0.265705051160541,0.4298328534751483,0.21141307286387143
