time (sec),x position (m),y position (m),forward velocity (m/s),"heading angle (rad), from x-axis, positive is CCW",throttle (unitless; -1 to 1),steering angle (unitless; -1 to 1)
1.139435286,0.212052756540705,0.4674827089598535,3.657361776219694,2.2220369818220864,0.36284197970493615,0.0886351976926812
1.339438381,-0.23785218983032286,0.7720210209048481,3.4011850150672815,2.5237986348765107,0.2793834431427584,0.16097260217706671
1.53946083,-0.8956509294528663,1.27813577270185,3.3146691961599655,2.804901218394688,0.2800215623711742,0.1737833183712959
1.739515026,-1.47184390933352,1.3676913073933712,3.1545703251494768,3.3039903725280504,0.32385221115751,0.18966187862220146
1.939437732,-2.105727631946731,1.123931354240445,2.8757208475055664,3.6410200858439676,0.3250613221119025,0.19867830385017646
2.139561755,-2.558400496457272,0.6723178214041106,2.9648363673911846,4.182102434604726,0.34504185360569833,0.19779023836791385
2.339438558,-2.645412595936549,0.2841777647018575,3.074728442030571,4.581726570154365,0.37481045235528027,0.20481973456219568
2.539434376,-2.5564913874093476,-0.3380263779667771,2.93679648222029,5.102716265415593,0.37866661411760405,0.21700748169852713
2.73946928,-2.3584666406321717,-0.8501878654629219,2.987617111811386,5.431301405440157,0.38895380930953455,0.21786290594015786
2.939438016,-1.866090731246994,-1.2120248386580992,2.9667963511163093,5.968695370838039,0.3639308317113468,0.22175501921337556
3.139436135,-1.168931263227519,-1.3207346707408725,2.8586951996898984,6.42593928614186,0.34908043466554417,0.23338795195450077
3.3395483710000002,-0.6885895580932528,-1.1007684246182479,2.8230609263963107,6.927081191916107,0.37630976268813804,0.21871824576912077
3.539436298,-0.29924964368367196,-0.7286644098328442,2.8118364530015185,7.2810594854364155,0.42573317616900436,0.19547017401799027
3.739458258,0.023740568076227778,-0.1869672830596525,3.2401055756804955,7.374369228247142,0.4644627909130895,-0.0095519045343069
3.939452884,0.26413311210454515,0.3787782542734883,3.43906754979625,7.3602546597443865,0.3562045538382682,-0.14590586307505699
4.139434551,0.5871335998195015,0.8562693075439182,3.2610702938549068,7.009103581438112,0.26293857933326237,-0.21603834625490415
4.339530429,1.1945672084668777,1.288280594136515,3.090129763756874,6.6182631140103805,0.2829350444818932,-0.23252883545767328
4.539461071,1.7679901355374188,1.3824257077671915,3.0867054902397877,6.159112340326038,0.36465851008911476,-0.24127410639845515
4.739460911,2.3722010251798014,1.194826893398703,2.989247231784568,5.674035698605284,0.380524077782501,-0.24715501250987307
4.939457604,2.707019565064581,0.6674410987132408,3.0052324475408723,5.463886117882057,0.39353105113173475,-0.2502372704850405
5.139585806,2.907369242080501,0.09516137851481844,3.0611062170095393,4.854567881158572,0.39575135326423705,-0.2567178162035949
5.339450332,2.8814623737473424,-0.36619443295496645,3.0505017691683967,4.314702288016336,0.3787827640990532,-0.2536626640184485
5.539434963,2.563307672612248,-0.8961770108506979,2.939482438676091,3.943700045531121,0.36277325872244776,-0.250863800409991
5.739439959,2.003562125413868,-1.1863697012202938,3.01688215918498,3.3389396502418593,0.37751925299079486,-0.25861391585083765
5.939433843,1.433948289917914,-1.1980742394554567,3.034615394576867,2.998678884705649,0.39248782312597286,-0.2675272418003497
6.139432785,0.8383492887804294,-0.9704601034934699,2.8856233288806137,2.409925128991418,0.4502950481543029,-0.25949330989875474
6.339484495,0.45669447265431384,-0.5483586420407608,3.0677329875331254,2.0667891216193324,0.4654306132383351,-0.17061048077865731
6.539503765,0.3224166752165186,0.1003240937495217,3.5104908459401507,2.0011170721380593,0.4541562417832642,0.0409830098457348
6.7395377320000005,-0.19032061941608672,0.6746856928689077,3.582357989166026,2.1865233670366364,0.34150914496213697,0.12951911027184967
6.939458782,-0.5783016003379886,1.0420423725106291,3.4031156144455035,2.612213124909848,0.263147010924465,0.18548048024916733
7.139433869,-1.3595240198004128,1.3201615838499727,3.03599657777792,3.0933417641887413,0.28670958905941213,0.18182628586738125
7.339439667,-1.9095185822358718,1.3203597032662995,3.0550907199208206,3.4939834552376015,0.3314093581292718,0.19835402512241113
7.539532845,-2.333418745076321,0.9411015732440757,2.9523858316986695,3.8433174038003,0.3427681681747539,0.2041147364454252
7.739435117,-2.755943996882075,0.41244031623894595,3.04338421241039,4.321397164573369,0.37628574910761287,0.21606733195577044
7.939560511,-2.6694057410231578,-0.014454482118243253,2.8230661493138793,4.851251406193491,0.41487571197366013,0.22344739808305752
8.139434409,-2.62889924672571,-0.7220512071219224,2.9231515773944947,5.260406297621944,0.3783028286526885,0.2160776204831029
8.339438271,-2.084238758140426,-1.1310466774587327,2.87214347101111,5.837250863339674,0.37807907009917385,0.21243429604638592
8.539456769000001,-1.5992803099046227,-1.3622035817603766,2.9619500351805845,6.165617965595974,0.3704930575212045,0.22485310783106638
8.739463938,-1.1467495059834911,-1.2211108347580943,2.933763147524481,6.655023987306641,0.3597406784121107,0.22027669758497795
8.939447996,-0.5017031370955239,-1.0558266150503144,2.950264234810854,7.124518428937314,0.39824775029739484,0.22585848949501713
9.139445974,-0.2707901968413547,-0.5467622055832608,3.0824188235585783,7.482602171444376,0.4569364170727412,0.10774812299530204
9.339437256,0.09880925354585403,0.19399820268518916,3.3381059267275086,7.492106176897254,0.42666477510716194,-0.09797493725571896
9.539442171,0.17945237012312434,0.6213522124688415,3.4193763828537924,7.235424319471038,0.31145576299870326,-0.1972789450289186
9.739434288,0.774300184741084,1.1089889303499572,3.1975907774785552,6.789788777362412,0.27374832945172717,-0.2115259333754226
9.939458212,1.2158269785510072,1.384141432428046,3.0093423452197627,6.385209766004287,0.34260032166304044,-0.23001075513863584
10.139455927,1.9522887810389893,1.283501245339523,3.024781083560032,5.878841560328666,0.4307889612184195,-0.2536483212130819
10.339454842,2.4369465268734762,0.9765469335268915,2.968250793908138,5.408582604749773,0.3934083415880963,-0.24862125971870813
10.539449669,2.843316817048313,0.578858596312066,2.9104347819192595,4.992092590565155,0.3988215736676327,-0.2463382038923596
10.739461259,2.8553653747350016,0.004249455648087597,3.037043160673678,4.619006270699034,0.3763689934865133,-0.23935500298468132
10.939468471,2.569455108244537,-0.6430213367874057,2.79043008001526,4.138695461223418,0.3569432602264063,-0.24739987308098157
11.139436093,2.087919913833707,-1.2075402346103787,2.977898239737539,3.7001815344579936,0.36858489700319413,-0.24434557359601472
11.339434888,1.4651410217939318,-1.300961246987263,2.910126485306906,3.08492722749721,0.36816872534760625,-0.257266172142433
11.539433505,0.9546482522599882,-1.1018280887269372,2.983922835496401,2.701618972355685,0.42156334020244984,-0.25746453091465926
11.739461272,0.5028536248974351,-0.708690285644506,2.9890773963665414,2.2522252671301537,0.462722218008271,-0.22717721947424316
11.9394541,0.32791815476112923,-0.24118924649774715,3.368884781569979,2.069773352007899,0.4644265382301764,-0.04953813815321276
12.139455977,-0.14323161467147025,0.4751178324860445,3.579698161799962,2.0978197721299816,0.3630971094955588,0.08618896813599197
12.339454514,-0.5395605427438949,1.0367628238600775,3.553227972998358,2.443285843798877,0.26788727467688556,0.16370583546945
12.539449797,-1.0008041265703176,1.3066276288239287,3.303640539516559,2.8500687228906845,0.25298033439105444,0.19321028504585935
12.739435582,-1.6813966456908354,1.4735772082341396,3.027726710609223,3.225818333436152,0.31639834099517883,0.1922231492544694
12.939431474,-2.1438668233664555,1.2829791882565171,2.966296602877338,3.681304477292269,0.3431679850247723,0.19721879441167864
13.139434341,-2.634748828550596,0.8087729678780816,2.9476620670874456,4.28128329884627,0.3525944825196816,0.22804694471443818
13.339434993,-2.893037401148394,0.23588880166057707,2.8481059294549698,4.607874711512305,0.401598968102333,0.21780863999593716
13.539457226,-2.8920173249547365,-0.27280076411782506,3.0680715215459418,5.02608245120653,0.40333252614834975,0.22631434641438322
13.739493506,-2.5528628931633266,-0.9737568725984851,2.983359877376343,5.581614864972104,0.41256610097113555,0.22286088005020488
13.939433947,-2.03496364219614,-1.2345175998829314,2.9649289335508993,6.064516728702405,0.3856927525815106,0.2084880167855405
14.139527501,-1.5240109840065583,-1.2048579516970712,3.058677408173849,6.406291597620028,0.35131868787097864,0.2222307032791238
14.339464495,-0.884378765108611,-1.0198233319047,2.9859235845488428,6.855937295617495,0.3841892521705603,0.22657254285084003
14.539435154,-0.4482988877356134,-0.7646531371337647,3.0725684648968783,7.282517361398423,0.4265302210853628,0.18659929858131408
14.739530707,-0.29148303896452427,-0.17940815973049662,3.1565298591206163,7.5339611905791966,0.48292762833122743,-0.0008107296339330064
14.939538158,0.1328962038583493,0.5710642102201816,3.371196127806563,7.320376789133334,0.38998685534307737,-0.13636413049955945
15.139518973,0.48059185808377797,1.0239222003465953,3.337877427850838,7.026605214758754,0.27669973039237483,-0.20302449374228593
15.339438478,1.0378059949505354,1.252952517144499,3.0781461826041117,6.650983814146141,0.2971637314685541,-0.22128547506579643
15.539564046,1.7637624997841155,1.3205595048791559,3.0274996928936897,6.115618694020956,0.3628128007015441,-0.23006541666518449
15.7394484,2.214005998482307,1.158307812266005,3.038655470160159,5.691126526091844,0.38851032379802986,-0.23383486056572245
15.939463875,2.5479414907180313,0.7466387071016569,3.013465189949846,5.300151694723119,0.3975463992041991,-0.2392753686429615
16.139452055,2.690338717666494,0.2625345563326687,2.9911173798150856,4.717543077764265,0.37100565901860066,-0.23952206503845747
16.339539318,2.7098582447595865,-0.5139944807774878,2.9287855606726194,4.209413436854338,0.3712986906142501,-0.24307061852214873
16.53955712,2.4620719460712817,-0.8864402631299395,2.9739667450036333,3.862445298118997,0.35978913422885256,-0.24266371703846457
16.739432934,1.875220879184503,-1.182077117551216,2.8971581104593507,3.45459885732711,0.3403434524370113,-0.2456007329337223
16.939454575,1.358610753151617,-1.2438061714141764,2.9229632419738576,2.8786229650948227,0.40482606332246074,-0.24854540247221932
17.139446886,0.8362058300672787,-1.0198567552834714,2.740284620117307,2.4715765078205716,0.36418733522500213,-0.261714531797004
17.339450171,0.4845364935274593,-0.46056269680887607,3.0494279862891527,2.064843572292217,0.5421453191139465,-0.12061172610466794
17.5394347,0.20229365707486902,0.10555747469757487,3.463323174287342,1.9924139435768373,0.4415030030122267,0.04861012360036857
17.739465661,-0.13001299832680457,0.7342835474837166,3.5108909793660787,2.163042215956554,0.3158442602735085,0.14275257761337262
17.939437179,-0.6524120322969283,1.1921405048996323,3.47587433373888,2.639231094742632,0.26481765695631393,0.18256619588833084
18.139525904,-1.2109988466833175,1.2693653723505403,3.2071045788917334,3.1031367716522995,0.3165462054704579,0.18554076661410693
18.339529899,-1.8983967367402936,1.2720219972581817,3.086430904845321,3.4628100998802687,0.32658647411850145,0.19298895951773815
18.539536938,-2.391710300789394,0.9958829256160658,3.0345140234869117,3.9225572295472566,0.3296846612045603,0.22083997940526165
18.739447689,-2.768052244889742,0.5522025903939051,2.9357051315959315,4.423840682581263,0.39451594671002416,0.22247382190152598
18.939536603,-2.86997080165342,-0.13188389654075386,2.959045585570826,4.930754069632342,0.3953346355498658,0.21167639693088033
19.139438823,-2.650988498237925,-0.6784514063446307,2.9600375785521535,5.400686100693881,0.39073608708263136,0.21130159105704444
19.339444677,-2.23932070019715,-0.933450508764896,2.964483528106604,5.693310244339245,0.39759017397205754,0.22379164378114513
19.539458932,-1.7303934167694923,-1.1813871076135989,3.0243683159158934,6.325781593632633,0.35451424526222053,0.22738484056187203
19.739458245,-1.086754074572287,-1.2057972102160421,2.8859115425582473,6.65786193700659,0.35822721868009966,0.22060181601887358
19.939437788,-0.5625815690371944,-1.0000811926983877,2.8473034181518733,7.029691631955683,0.3988882945339802,0.22674371816767752
20.139433936,-0.3357639507699045,-0.49036867488655567,3.0579521646617214,7.542379632352529,0.45820561419783984,0.10966335797286565
20.339435547,-0.15800050524434814,0.1270312567786624,3.308679402541658,7.3577016473083,0.4302082777360121,-0.08837663706809436
20.539508921,0.2542463849805711,0.7251378038955956,3.4587801929693818,7.321406380521556,0.3355115596951714,-0.19348002377505333
20.739445775,0.7331795576752863,1.282889995634501,3.1240028406551303,6.740129693508411,0.2758833688973028,-0.22936308273218467
20.939438335,1.3351154013036006,1.4993449605202793,3.1151872207715106,6.473880385725345,0.3338050640498229,-0.22997201546395687
21.139452522,1.84339376495587,1.358616103398121,3.042831160039013,5.989626069862968,0.38394009871207224,-0.25035937689627435
21.339546027,2.4282716153749386,0.9963259591775034,2.985794886695475,5.359132860730083,0.3927701079892113,-0.2456800429807151
21.539459136,2.8544634239949924,0.545891088650321,3.056511356558426,5.108341545249793,0.39315174474013753,-0.24334888335111896
21.739436177,2.8166149374908573,-0.10264979670320407,2.904140568846973,4.586644353636038,0.3780881665573938,-0.23583183547131503
21.939459088,2.669353335951871,-0.7041261920482013,2.8945424963242785,4.143245253437007,0.3496880204055912,-0.25085959026928817
22.139435284,2.07471835978224,-1.1299669024667036,2.874249557449244,3.7705936141244534,0.3515136592403274,-0.24889924202948563
22.339437131,1.7382211999854755,-1.3395056175679867,2.890978877664948,3.1094053043991945,0.3795564877180969,-0.2538137783928851
22.539434206,1.0758829495402507,-1.1731505701296399,2.8887339511936987,2.697874605390107,0.42882860055869804,-0.25812395610679684
22.739440353,0.5898734780448968,-0.7778371310457659,2.972715442243621,2.1945854093657995,0.46493660302684847,-0.23391246121486178
