time (sec),x position (m),y position (m),forward velocity (m/s),"heading angle (rad), from x-axis, positive is CCW",throttle (unitless; -1 to 1),steering angle (unitless; -1 to 1)
1.126808321,-1.5511079840074766,1.1075270489008897,3.1698727929654225,3.3608637078344215,0.4579179068336698,0.2249396822992751
1.32681107,-2.194339913516343,0.8962440575238337,3.203255144440591,3.9119142602737007,0.4544952803570351,0.21449620537316155
1.52680838,-2.621050924979431,0.5147680080685907,3.110909821274463,4.262854803085792,0.4323812086340023,0.2113549751222427
1.7268124720000002,-2.7856827279438896,-0.13226936050935423,3.2711079106549,4.629377549484655,0.3622701085555111,0.20839006817575031
1.926808153,-2.689186109984751,-0.809041484593664,3.02854843804167,5.124064763876438,0.3042224709128338,0.21332363508073443
2.126885292,-2.1648595191731874,-1.2266125276054998,2.8861649481690552,5.64021848666771,0.342189655905636,0.22974828431129501
2.326810658,-1.77606846834315,-1.4661975621061893,3.031280791529963,6.093780850302462,0.4361524176532151,0.24646197995000946
2.526807615,-1.2114857717852903,-1.5316413968667546,3.0882052669377873,6.527854146640242,0.48014875527267664,0.23824088599220675
2.726806663,-0.6493606594854711,-1.0712549833098126,3.2366451434184835,6.9173447524586305,0.4988015282129656,0.22403475592191144
2.926812827,-0.1558346616155512,-0.5814290097454831,3.4476789643818186,7.423000197649867,0.5498085934124155,0.10106517911899356
3.126882368,0.10728489998955447,0.06760598341683563,3.670466793628624,7.454107714521106,0.49510015660264944,-0.0654920171090794
3.326878647,0.53596355100403,0.7102531525374417,3.816119009803737,7.044266639080043,0.3782259195997746,-0.1272111023350349
3.526813387,1.0904088079103433,1.117922746568882,3.514984507529673,6.694016480274143,0.2869518167397356,-0.14832463458565584
3.726810322,1.7532002015306485,1.2674966293496615,3.3487085038993154,6.1964583667951105,0.26677776131832687,-0.15893757455120877
3.926809773,2.2726515378743724,1.1739702913489503,3.003041061783767,5.868826731984117,0.2841419217622247,-0.19053871382291543
4.126809772,2.8915377548157917,0.8305416790125885,2.8439448493066486,5.458369825575791,0.3611770930901086,-0.22266371794475276
4.326810831,3.1550859990398656,0.4445819773933134,3.0232863254334537,5.012595084994067,0.4901542533759648,-0.23864800232542205
4.526815307,3.1326921606780926,-0.17473614411960603,3.103293311875646,4.4250769611932625,0.5315269177997926,-0.22722526338298552
4.726813637,2.8479112108437468,-0.744562328686804,3.164457982945226,4.031657725665833,0.5186583154096311,-0.21724727701083027
4.926868502,2.4897017256807294,-1.118742659771897,3.0916395139711397,3.6058351391844683,0.5092141218035076,-0.20422688218655677
5.126807935,1.8349842808646433,-1.4199906059943601,3.299974849145395,3.214218042411814,0.4284061499972583,-0.1891419011109298
5.326814606,1.1160419612388899,-1.2354506259709397,3.014593604177407,2.7137987127569745,0.3637610353249825,-0.19708429911997355
5.5268478000000005,0.7409307804902788,-1.0196143214138447,3.009522092078666,2.2126969366281175,0.38201352723429527,-0.21079343495379171
5.7268463910000005,0.3256823484597217,-0.4180973251246301,3.234349460297408,2.042086944227988,0.5458648930254515,-0.054764429682319406
5.926825967,0.08287130655149977,0.23687208701453655,3.5397511524820002,1.9296431153293527,0.451627409963515,0.09113183649552638
6.1268117029999996,-0.28675479939695936,0.7856081370547799,3.5177675176500958,2.3706130986376057,0.3263235979066672,0.16216276924422107
6.3268147070000005,-0.9873971378985082,1.3204126927013877,3.4338663426313207,2.7745283167142043,0.301839694915658,0.18996248560133647
6.526811446,-1.527053995770334,1.305794661269626,3.26819674038407,3.2584327930118033,0.36803660447509456,0.1934524297423671
6.726839154,-2.1846034031149912,1.299388720347947,3.229204169959828,3.5733859412882265,0.43416315038842124,0.20817017518470077
6.926819832,-2.5644650249172716,0.8633831352749444,3.247988370962996,4.203214501433405,0.4121785749362216,0.20739966777240454
7.126822961,-2.9834141508703604,0.3628897189091485,3.0955494188826838,4.454844056826055,0.3987004480931814,0.19868910201938064
7.326814635,-3.0200776339300197,-0.3831766921959879,3.2103424329657773,4.955861775759092,0.36277480615366453,0.2026206787574355
7.526814068,-2.764028800980709,-0.899981299262252,3.1322262622193406,5.421958823062768,0.3332983481373619,0.21659531756563974
7.726814321,-2.1047049903315123,-1.296495251508837,3.0113791527639417,5.83126562760512,0.3939553915821886,0.23099947688143205
7.926810025,-1.6532426805082145,-1.4973477129474955,3.009986423068668,6.405634134594725,0.47211556128895577,0.22557711697409705
8.126819174,-1.040499567293932,-1.3816895386161203,3.220012234785415,6.834235447407412,0.4761951270169581,0.22028894043598385
8.326883724,-0.5742525359093432,-0.8552090965231635,3.2218799898350476,7.326195981256323,0.49547986640629066,0.1812220740989142
8.526850802,-0.20162863023564492,-0.35796038484397935,3.6178881674376884,7.409833390567425,0.5464536765137428,-0.0038450517681101835
8.72680799,0.2646479168331388,0.3875541262542807,3.8266379759391427,7.369214288606149,0.4298405593428396,-0.10553667873446639
8.926858848,0.44167590668380174,0.9352725758840243,3.7470235673836547,6.921189206152425,0.3456987507151272,-0.14138609597453142
9.126858521,1.1793845595918873,1.2908574358449976,3.3278215642850593,6.430554660902887,0.29049649544507194,-0.15150946842982374
9.326897741,1.9175100704154586,1.311784461281781,3.176479509534657,6.0773976550766795,0.27015906997181555,-0.17397052455864392
9.526828031,2.462042890449777,1.044106520688322,3.1429053413783046,5.681919622690484,0.3389130097436948,-0.20581533463359322
9.72683645,2.920201456894944,0.8756654422501421,2.9218896464453605,5.183916567849142,0.43247802318671186,-0.23125370622556896
9.926809116,3.0859748996588476,0.07616778229827262,2.882983397012731,4.771668846278052,0.5182923493444115,-0.23342687968014547
10.126809103,3.011974202906506,-0.33312261803725923,3.056862981824191,4.245393873935032,0.5332057848563058,-0.22926809463084144
10.32688451,2.5746890442761994,-0.8414120351531771,3.247333629186299,3.8136585322790038,0.5057477045558473,-0.2112520845600254
10.526871331,2.1037787052623984,-1.231328505255645,3.2773479930359053,3.4810069929201566,0.46816763697281494,-0.20130297645727144
10.726867665,1.3419027039347533,-1.3272639246731615,3.2441634810701476,2.932495560415163,0.3824608578233895,-0.1979982428607188
10.926818271,0.8078577942982553,-1.1067300137569775,2.98591664381576,2.5394206271930346,0.3542622304401877,-0.2083824832345573
11.126811522,0.5044742100140039,-0.5766202052397571,3.023723083839208,2.0465958535520192,0.480117779151038,-0.1601941105968496
11.326845797,0.22302556563646656,-0.10141333104417011,3.451998176037265,2.0017530254052893,0.5461946944860632,0.036247870411932795
11.526810213000001,-0.19233423398324503,0.5306649565728243,3.640590816577142,2.1492686034519934,0.3787199394318744,0.1295593823988996
11.726808474,-0.7137836484841371,1.0256766343432615,3.5101543660812404,2.516120489032564,0.2924108051899073,0.18153033181649864
11.926807074,-1.2317325313947838,1.4065985249454844,3.3539510375634354,2.9168355522097404,0.31965925070236273,0.20031010981679306
12.126863643,-1.991990441831878,1.4634165947574773,3.214963711031935,3.397244925334432,0.40975992710438747,0.2016290208474458
12.326814146,-2.429633608617504,1.174264043871981,3.2867824929362413,3.7637869921360005,0.43356174013199106,0.2085677769413788
12.526815573,-2.9538069094900306,0.6796843687367918,3.287024466147179,4.37347961665842,0.42167276983090884,0.21101064528817587
12.726820417,-3.1396506260701607,-0.058648136648261046,3.2103113239647043,4.7749773647028295,0.39937431686765434,0.19951894542387302
12.926812358,-2.8945690961299957,-0.7636986613260935,3.112390417556076,5.127242002192343,0.31656121996046965,0.2073183380276151
13.126838656,-2.528276528417116,-1.1634950741991479,3.090843184602207,5.648180729867927,0.35267528496492145,0.2236273450815412
13.326888002,-2.0302478151198726,-1.3291232070484376,3.0753829155191013,6.10005936795252,0.44351749174569605,0.23735700182315017
13.526812578,-1.4401807851333124,-1.3896527094292281,3.1847567690071954,6.625977613721954,0.473877679546776,0.22745160134296474
13.726814043000001,-0.7572779204254165,-1.0266614042818087,3.2583986903324926,7.085948034118723,0.48081387392528363,0.21728818754949533
13.926862845,-0.31521126657053755,-0.6224485055534891,3.4494517492208807,7.474788341899387,0.5373329077604738,0.10210488514778493
14.126805874,-0.18846437766485835,-0.007100668955842326,3.6615188705054615,7.409816264414055,0.4961390965531615,-0.06167229854145993
14.326810079,0.29086209022180387,0.7561141362772777,3.909434504889326,7.072151315799974,0.3842527418390498,-0.12911033476898492
14.526860753,0.9417462698000865,1.2337702635538386,3.5975983961827307,6.760851905747382,0.3072577942929829,-0.1342334616404988
14.726856575,1.5686058962308569,1.363050298341967,3.3170431513744862,6.222153937569404,0.2807140554938615,-0.15107618143920484
14.92687626,2.2757195746167507,1.2921380558653703,3.1757227977974463,5.828837402219791,0.27175202998140024,-0.18828059086150853
15.126871664,2.6844318410258583,1.0608484778719922,2.9469426488843995,5.507357929775829,0.38100544919871554,-0.21249810087737347
15.326878794,3.0610792992399736,0.43525185831301355,2.9292898610485483,5.088694271815055,0.48871891465652595,-0.23614823469760865
15.526884444,3.0904480023457688,-0.03874260958884185,2.9154249063500046,4.556164911663891,0.5425270878642872,-0.22593240726076075
15.726816772,2.738053624487793,-0.6580159470824153,3.2128290017217114,4.008831966424499,0.5154738509061968,-0.21766328507224228
15.926884356,2.39815061121964,-1.120309634642078,3.2667943308383807,3.7898390693702098,0.4930262727845479,-0.200841578218678
16.126812759,1.7279821796271886,-1.2619468639404112,3.1318306792728015,3.05211884600483,0.4461352985697581,-0.1963686931933211
16.326858023,1.0598600217179515,-1.2465354718460848,3.059833752817097,2.698089007292874,0.22596219810921545,-0.2553277690424988
16.52681569,0.6551952648074182,-0.850875608743348,2.690713367965811,2.1844811243109192,0.44644365301870614,-0.2143784527994384
16.726842383,0.40041653169221464,-0.31074422502293175,3.3111281941721087,1.9392148787076087,0.631476061490852,-0.027638594471420672
16.926808671,0.11065488352060365,0.22588422490509003,3.6773909710115666,1.9903534025054053,0.4376350080237276,0.08522067959898351
17.126873729,-0.3452201073799224,0.8886253299095918,3.6965057047918384,2.42292663342677,0.3190306255127735,0.15279745541889578
17.326912717,-0.8924571144463507,1.2290095957108709,3.499520310507778,2.7320145794562625,0.3160544746243384,0.17485643423513686
17.526810368,-1.5480074417402112,1.3610654002883367,3.242504195514715,3.2137975004886976,0.39083736169793154,0.1816790313203739
17.726811423,-2.0766214981100997,1.158540615362768,2.9846474014614346,3.6777388206990826,-0.020606932857372664,0.2583729361167485
17.926902599,-2.7280865931213127,0.8550724959054237,3.0511943582805747,4.114459871161954,0.5792635084420429,0.16080764386261295
18.126848923,-2.8689444076700497,0.15132746557437918,3.290058617929008,4.381921857793193,0.4199156311304494,0.181901184604688
18.326816785,-2.7536065289414773,-0.42858136428515264,3.1725079287053064,5.019832013928524,0.3178274209207599,0.19269925474170235
18.52681062,-2.5388755091255906,-0.9481979928606955,2.994281928237099,5.464307298516439,0.3123410954600113,0.19856563717421882
18.726806558,-2.0921632217155843,-1.325656508820222,3.0192176373343904,5.911132654070816,0.39336214483498705,0.22229093830006413
18.926856281,-1.5381405512994906,-1.4577324244782477,3.048390217577515,6.420208521075043,0.465843198699373,0.22307087924310742
19.126810063,-0.8820990456067603,-1.1941296986027907,3.254045448363421,6.874488872214752,0.47304295409162395,0.214472700956195
19.326882399,-0.3501934182699496,-0.9183489245360071,3.3302569160351676,7.335766459328156,0.5196595898602163,0.16278351819868397
19.526867762,-0.14352904675903078,-0.17515189055194844,3.6632439571411846,7.551187563286293,0.5343029039616003,-0.007377949377182966
19.726805411,0.33589864250085816,0.45240975705542097,3.828401546553228,7.331800732290498,0.40538422337115315,-0.11814010272678908
19.926816347,0.7110247659282758,1.108504399654884,3.776273709896443,7.002699897713696,0.3193244864795947,-0.15385121380149208
20.126845049,1.30937563331619,1.459787471450509,3.3543376189218708,6.6543854254590125,0.291394411595756,-0.16528417489407393
20.326817974,1.851489908682573,1.446735984108384,3.190040323486026,6.33705668216358,0.2784341663549909,-0.1873026976587009
20.52681398,2.5157208889697453,1.3118304889794326,2.9814490198123225,5.796348352215608,0.3201506336713024,-0.22030237661252208
20.726861454,2.953651198090075,0.9257804928145962,2.938261571548952,5.3421600622305725,0.4529217155910491,-0.24515778919983466
20.926866833,3.0414391160142067,0.3071194814959901,3.1442466406130856,4.781890954098142,0.5323622287172299,-0.24245111316753742
21.126806074,3.0869144489419043,-0.264243856830914,3.1649683160322764,4.373669494348464,0.5551840378141386,-0.23145753371430938
21.326896261,2.770703557181841,-0.7506758816133865,3.212224495156382,3.942602541674004,0.5125625394643495,-0.22017849457986818
21.526886858,2.190560171268028,-1.1360058875490595,3.2627471297073063,3.4701531599863533,0.47197109880704613,-0.20504772100109728
21.726825878,1.5604395912987898,-1.3426968586902779,3.140716452926486,2.9969828698523333,0.38687017225800274,-0.21448498831524998
21.926811223,1.094340763782667,-1.051433980201104,3.0048677717552854,2.6214247567354643,0.33529813411834053,-0.2177309458123004
22.126807042,0.6590854280892305,-0.7718571911349451,2.979525116783175,2.108100886230796,0.49473376639647404,-0.15181926769231666
22.326869537,0.2978058942848059,-0.07023423989699665,3.4431521793802538,2.0247632235144337,0.5728167175731648,0.023900959479082287
22.526808235,-0.2171699162851065,0.47514629143086384,3.633987202739649,2.1942310405022534,0.3802983489262314,0.11613697766406049
22.726866186,-0.6775073645190309,1.0537974351918034,3.466796369347898,2.481944619582137,0.2861968621831705,0.17246364084696514
