time (sec),x position (m),y position (m),forward velocity (m/s),"heading angle (rad), from x-axis, positive is CCW",throttle (unitless; -1 to 1),steering angle (unitless; -1 to 1)
1.122655121,1.693298849965036,-0.9465118609881745,2.78977724965581,-3.415902224296659,0.3937523564344334,-0.2211274493075288
1.3226543099999999,1.143978524017625,-0.7243974175028284,2.773309329202673,-3.9115179431537186,0.3545741716811643,-0.20483086023191643
1.522652023,0.8956394323272046,-0.2659779111279663,2.8402869109273237,-4.333085956947387,0.3954294219493351,-0.1433658016806585
1.722658142,0.5903461730831543,0.37744967967252085,3.1720360325030454,-4.3563242295216735,0.40719861765630483,0.07123661707380682
1.922649715,0.32144332492503425,0.8974302539951678,3.1804345017570137,-4.123747888418779,0.3361169788248478,0.1912674735594629
2.122653564,-0.17059366478644544,1.2843813045874066,3.1541339180924695,-3.675468223647296,0.34531625628575846,0.2177084572009127
2.322656852,-0.7761858402675095,1.4570835144512764,3.09230718004201,-3.303648468951501,0.381369105710926,0.1988035448614552
2.522654669,-1.286726362608894,1.440990330048906,3.1496635373675193,-2.8075816332625187,0.36729806971714024,0.1937390152169016
2.722652856,-1.9182121636762213,1.1221490434425683,3.0358636960517735,-2.4621749518001854,0.315896697838273,0.2097639242741763
2.922652704,-2.339501245045786,0.5623662839614602,2.991380566047149,-1.8405766022651426,0.29989748636616603,0.20151725019185693
3.122651048,-2.1613820835942215,0.008389517371568157,2.9813692794935562,-1.4807834158623472,0.2805825137426255,0.20577889832731125
3.322652042,-2.2740731333252753,-0.3974282721709043,2.6755997197470167,-1.0751736287918985,0.2801826245487923,0.22776397774954676
3.522653425,-1.7853348390715842,-0.8901992317391123,2.731129893915106,-0.6494855639323897,0.29014057652085606,0.23351196150364167
3.722696646,-1.234378714548808,-1.1271216215374775,2.672415383284804,-0.12480810249134966,0.3266102519017272,0.23422273475522407
3.9226657190000003,-0.7369790144825431,-0.9940375379619778,2.788961751378068,0.4216665573766783,0.36024090195004765,0.2374854650203196
4.122649171,-0.27629451311982645,-0.6505985534644524,2.8105122361998935,0.8162725459557958,0.342886045959459,0.23484099944729542
4.322726188,-0.08639945340135392,-0.22033236218914454,2.9133651572241765,1.2593472443846996,0.37773311758640754,0.11576112252281974
4.522651921,0.19421679284363527,0.28998852908239614,3.05098450120834,1.116711307700827,0.3405228865050477,-0.09479649614253553
4.722653344,0.5064709092502937,0.9393535441878487,2.957977577984287,0.9604696744628058,0.307356615476362,-0.17733872103496398
4.922653232,0.9999854758312428,1.2009985325393422,2.8871232580705697,0.3469951192507916,0.35113896438630876,-0.20372102743325085
5.122653163,1.5491550125006943,1.2798233685753317,2.836537634950598,-0.11457117085410967,0.36279236130193193,-0.20215341601432624
5.322651423,2.033357866224551,1.266227754684718,2.8543733896522148,-0.5057088488978105,0.36395873406362866,-0.20763852972645538
5.522689467,2.4543426654105986,0.7747496393251438,2.8420253706032073,-0.9076831928498947,0.37967357895929604,-0.2146481248462967
5.722651173,2.699461510691169,0.3709594975143069,2.753766524123393,-1.3561247882262004,0.3724646850385874,-0.22018798945085233
5.922652161,2.765046143642158,-0.21144254442829544,2.749651010192935,-1.839646538155108,0.3766637065285066,-0.21657476274936793
6.122704542,2.4394342005756933,-0.7246323379480447,2.7132209889838195,-2.2718003395246975,0.3897216596832595,-0.21404361935843733
6.322651198,2.047729551246016,-1.005362597915252,2.756147451785913,-2.7424190742943355,0.37383233417389083,-0.20857760173774453
6.522654898,1.4704172107346172,-1.0838442586771222,2.7774720707072564,-3.113520047534889,0.3724120979000145,-0.22251212042207208
6.722655748,1.0097581823470203,-0.9586522824753695,2.68983210400539,-3.624847191595311,0.4015052206266379,-0.21860298425503374
6.922651221,0.43284243218345614,-0.5654585956487949,2.730246840618703,-4.167976993773957,0.3647433310701259,-0.22078461310759967
7.122649292,0.33608460061723905,-0.21084918710210213,2.949708824719766,-4.424117913011911,0.429191805914903,-0.04185853668045396
7.322649302,0.12383715090006805,0.37623369461042827,3.0928637196594115,-4.1784072242468335,0.3463798378512519,0.14357436630474182
7.52265242,-0.10373564745000217,0.9902633816688546,3.0181435657375006,-3.99945999108439,0.3054153451735469,0.2100578449157659
7.722648573,-0.7540015894608767,1.2515238953944408,3.007202559171362,-3.4487349590072864,0.352355864579574,0.2117585763890672
7.922651371,-1.3102234007410416,1.4110916961501436,3.0363493711255596,-2.9847929967009965,0.36253416189004745,0.1985580569659022
8.122648679,-1.9274572988926144,1.2466688783049409,2.997996362517083,-2.5232126937878188,0.3445990426800778,0.2020724393730734
8.322650411,-2.329647845996763,0.7260238249004292,2.998428213942942,-2.1578625922851096,0.3144490249102963,0.20230110019401615
8.522646322,-2.4739047736817175,0.307031895238691,2.8695031281325196,-1.6836622035199391,0.29159863643651396,0.200194709397645
8.722650934,-2.5321137146356727,-0.45693657067461957,2.8858158925561423,-1.2329579767523653,0.2985229059129996,0.22130244438976412
8.922653503,-2.1285179564699144,-0.7980165860662015,2.7403203627835864,-0.7511911556217191,0.2875274487359937,0.2312811063008542
9.122652814,-1.6710581358600975,-1.102033350512023,2.659829256700459,-0.3084717325968638,0.3272777617398921,0.22864699003317726
9.322656232,-1.1680599686251596,-1.1849445430415733,2.697419016333321,0.06719546992912202,0.3734604941428459,0.22802690185894448
9.522656699,-0.6382029887240815,-0.9388356882988881,2.8559013719988258,0.5886216692783923,0.3504084688100756,0.22146936456396682
9.72265287,-0.3433844437759505,-0.5182563727198453,2.8330767734250184,0.9883021339020169,0.3481683337006481,0.22736147149896055
9.92265286,-0.07074727325341998,0.01695638865270115,2.9954123271471427,1.4739165575034512,0.3783368334547886,-0.026042374161693704
10.122657715,0.22193802942896174,0.5501466892558265,3.1072962156813206,1.0760027302686053,0.3318873493322982,-0.16155672107327285
10.322653698,0.5249323906000484,1.0383008263758642,3.028777290755288,0.6333955392336821,0.3490337765751935,-0.19124938347805984
10.52265751,1.1747748569298164,1.2728983400314315,2.815038015912424,0.13652397984378647,0.36849846292354727,-0.18996739846942987
10.72265207,1.6942661116740065,1.2033193006795166,2.8792468672983715,-0.29964710675835593,0.35523525517620813,-0.19364738579097726
10.922708974,2.1324159546996615,0.9384783183688035,2.8224115742025013,-0.6402939148470436,0.3665339863513662,-0.20412044522282105
11.122651611,2.470754373039102,0.6369793509153676,2.810514677592924,-1.2417354993234095,0.35791270878209314,-0.20536332217209916
11.322672833,2.5673597310038723,0.00590195473267728,2.7269267184144437,-1.6036268666557842,0.36852198805463027,-0.20940420280323468
11.522651904,2.4589707674750705,-0.6181394989777582,2.700746596973642,-2.014116174426024,0.3736526608067302,-0.21859717819295896
11.722652849,2.0701968882496296,-0.965718925694305,2.6288152091566657,-2.458678118611305,0.3670525136442072,-0.21329965739495935
11.922652816,1.567163138708365,-1.128639871433051,2.6967618805973994,-2.97804151538811,0.3691951327810685,-0.21709675876385182
12.12265272,1.0278002054898674,-1.0782923187548767,2.6780519543158356,-3.4911057909117402,0.4045661985755368,-0.2146288187742519
12.322653071,0.634600211943296,-0.7928929288557629,2.8441396836780815,-3.920737050226162,0.3793490938670132,-0.20953192885307975
12.52266397,0.29472087764546506,-0.3865649521364575,2.6658741577830156,-4.370295153964832,0.396048989052644,-0.17008987219224417
12.722651907,0.2084162573042749,0.18399626856798,2.898186964603968,-4.381018479333152,0.37311465093971746,0.07120899621057517
12.922665665,-0.072971032981301,0.7300627974770642,3.1735078590567283,-4.306024414086984,0.30863111700499,0.1972890658361319
13.122663076,-0.5785476768336947,1.2035938198506857,3.0701344044623595,-3.6167515441628972,0.31479527270335694,0.22563637037822773
13.322657058,-1.10962907493769,1.3761987140972622,2.8795347481196956,-3.3125029738192975,0.35881862065224635,0.2084657888569642
13.522649758,-1.6444269405095941,1.3269042829610627,3.0929899303051216,-2.941992840471064,0.37472294410203627,0.2065762359914896
13.722645793,-2.154011703850377,1.1186524947066223,3.0130397585350206,-2.3482110409217674,0.32270310877220515,0.2099885758892044
13.922691756,-2.521576039428843,0.4550174722341404,2.8153595881561806,-1.8314815214081785,0.3118963226100629,0.20724467157005763
14.122695002,-2.4225765080844366,-0.009526347562158817,2.85588275526125,-1.5520607198546141,0.3152854663009287,0.2130559771384116
14.322698887,-2.2889209985549672,-0.46787745963038746,2.937902142813779,-0.9880813069663696,0.29237211275889985,0.21406377250744857
14.522652119,-1.978105649498929,-0.9142859134639113,2.7449569885150944,-0.45853006756000697,0.31876732462758733,0.2203482148504206
14.722656972,-1.5253421537030116,-1.1605999788167807,2.7591452477549345,-0.04430897775668724,0.3657048019354322,0.22442175341485776
14.922655261,-0.9141876284413686,-0.9529950007804062,2.8457134087797282,0.4859106477462516,0.3453965930779549,0.21527076075921517
15.122654907,-0.4373314975098333,-0.7509980524142209,2.8748025775523924,0.9127936416668999,0.35117195706495363,0.2094886736019527
15.322650321,-0.21632467121045942,-0.26639476811614826,2.9396932786376806,1.2696052767457031,0.36015131549627694,0.11300737779422951
15.522652861000001,-0.062463330208091014,0.46074348065462234,3.014457258795417,1.1810347501614706,0.3404036947301792,-0.1178099437325264
15.722653854,0.22708762284462694,0.9227727338718515,2.876206953331438,0.99484786219482,0.3462536404122874,-0.19970355156735545
15.9226492,0.6572825932936066,1.2792548161100725,2.928107802183457,0.3765000195687417,0.3703612545075843,-0.1933375251356728
16.122656976,1.3409838163611605,1.4205796026336173,2.8515888641748437,-0.0796167825712634,0.3858388190809307,-0.1865946436171409
16.322651844,1.7659334117514285,1.1336041902160123,2.8212682419530486,-0.42690880241621915,0.3892722986116407,-0.19646913526886653
16.522652009,2.2165039326351046,0.8993161961916288,2.8001968680656675,-0.9481849781574213,0.35412541561836275,-0.19912581231686757
16.722662039,2.5239637939957063,0.36762721744743304,2.810112076112185,-1.3570515350160308,0.3619285974917265,-0.20388446877011898
16.922674052,2.4238768859245874,-0.1882766332063036,2.8475515352310974,-1.7600897719813375,0.357153411558419,-0.20857600599247877
17.122651576,2.155831879222693,-0.7077131962456593,2.7143639165500963,-2.331846133213414,0.35936114823475596,-0.2126654090812036
17.322653172,1.706880360822192,-1.144312536950751,2.638349499969406,-2.6664006550824166,0.36975357437721806,-0.22026066582348575
17.522657154,1.2680212141764085,-0.9750058000003587,2.586189970370602,-3.1461348865814784,0.3613476645706497,-0.2168829638240567
17.722657906,0.7317898158235815,-0.9660455428873832,2.691572819697064,-3.5488873678444732,0.3765216457538852,-0.215298038781974
17.922708218,0.38680015716267985,-0.7093305468682991,2.6172481600728816,-4.1737698948474,0.398109029380701,-0.2174807869666219
18.122655501,0.16053036087594286,-0.016180172742926505,2.9760823369068605,-4.450268226410886,0.3933224599730141,-0.05158292939016196
18.32264998,-0.0817055394266915,0.37136198531205833,2.9836064604417913,-4.271314695382782,0.3279155651992863,0.13690773205644147
18.52270432,-0.3582852475004218,1.0135175577012243,2.9802779930281487,-3.971749156808468,0.3101102765755396,0.2203951693298727
18.722655144,-0.8639916852574722,1.3483970735185054,2.974715902826833,-3.501244515379765,0.3269112717043868,0.22014678497623674
18.922653562,-1.468620012332505,1.3086123322507026,2.8866283601716467,-3.004049138340501,0.3728018496199672,0.20228859128737975
19.122657959,-1.9927234367458897,1.1941936467012408,3.0661764314292337,-2.472002362319628,0.36803564040114317,0.20884839222223314
19.32270187,-2.484624352802736,0.9201168879343742,3.0282140990152513,-2.153578514189794,0.3244306047323942,0.20312039256646827
19.52265455,-2.61149942475723,0.280505441084085,2.9912180227465575,-1.5929429607633712,0.3183061484973428,0.20434047218565063
19.722654857,-2.5530375594603307,-0.3365921675521404,2.8045308877064303,-1.2130644683022278,0.3121342910513528,0.21122729335790136
19.922731057,-2.282402373460757,-0.7566226369571593,2.8132914075203077,-0.8826101436056906,0.3024238446565472,0.2198582844884702
20.12265522,-1.7077708297975738,-1.0339205600568204,2.749604344615123,-0.3365277368087486,0.3346016597876344,0.22393196159829443
20.322652248,-1.1147573640724255,-1.107248389219634,2.845106815804267,0.2215644328194435,0.3457518537641367,0.20860606880819815
20.522652798,-0.6879919003716666,-0.9426368730867831,2.8633379031283726,0.5832090393798192,0.34629350602665876,0.21699464248047923
20.722658205,-0.35881984248552545,-0.44935665973723604,2.8288145984164577,1.0950164508674423,0.3545800255910469,0.21608124247107494
20.922652476,-0.10429289300852917,0.03907220342926635,2.9878752740942773,1.2538294632263998,0.36625252928462665,-0.023516258976862884
21.122655914,0.025880282883013334,0.6896055519324671,3.1005681123290545,1.0083577202692722,0.3305212539562897,-0.15843670106075539
21.322700157,0.43037885785098234,1.0096319045373743,3.079718562028977,0.6237595739324503,0.3672848033486365,-0.19734544321698794
21.52265225,1.0777416245671159,1.2153321142721512,2.857154140933125,0.18247516077903916,0.3622178519566113,-0.1996245877911588
21.722659501,1.580099837118786,1.3006999469010028,2.8770177150731078,-0.29313666113559944,0.38151325252863755,-0.2000679746973221
21.922646909,2.0971450503139226,0.9847648051202963,2.900429587435531,-0.7252032935094566,0.370611445796476,-0.20582544619578155
22.122652107,2.4683407959778547,0.6457544352450638,2.7658050453096803,-1.1524205904218205,0.3544209088539724,-0.2137464968666247
22.322703379,2.605030687555875,0.09403365733132248,2.8094731449813786,-1.544732173535809,0.3641825062419926,-0.22122952241923774
22.522651949,2.495869583607577,-0.3804584750824858,2.727611117241274,-1.989971936624928,0.3674216605125554,-0.2201682611115043
