time (sec),x position (m),y position (m),forward velocity (m/s),"heading angle (rad), from x-axis, positive is CCW",throttle (unitless; -1 to 1),steering angle (unitless; -1 to 1)
1.1364855600000001,-0.19367891621051214,0.40102786671269813,3.6536011230273795,1.1633232523774262,0.4632769299795736,-0.11125558113072384
1.336488433,0.13248863171241274,1.143446852915065,3.667622291972405,0.9574550967306797,0.2966214784798845,-0.1885270019736991
1.536492798,0.6562827704546464,1.4925441742259367,3.3987691485943996,0.5310957622216428,0.26413937498297463,-0.20902844341328328
1.736488267,1.3612837806829023,1.728860122763231,3.242499858520271,0.00548769330082358,0.3645585704636403,-0.23542965783201156
1.936479806,1.9106490197352857,1.548347853227605,3.178281658210375,-0.503893972903405,0.44702098004564306,-0.24452729058329667
2.136488681,2.414841483081931,1.1681092547246636,3.1187842191409505,-0.9766853974883424,0.494844977665369,-0.2440183254540922
2.336578818,2.725780893690562,0.5794266973558138,3.368918292846331,-1.3943208468812378,0.49878901211008875,-0.24109496487344012
2.536478928,2.723303157181504,-0.05470502506876309,3.3078843038318437,-1.835766085019745,0.4152174666075764,-0.23060166416368327
2.736495051,2.505144437999996,-0.6852844179531841,3.3303774121143532,-2.235949836896245,0.37040197014718435,-0.2339041365587977
2.9365608,2.048834018983825,-1.1656772918756437,3.1488325072006726,-2.6720892269248,0.33565660472076114,-0.2407813857605045
3.136479907,1.4249621195694049,-1.3136939740571885,3.1055590601396736,-3.090311494337748,0.3508067176865187,-0.2616584801492191
3.336483636,0.9829848133692467,-1.0890074487925876,3.045686719798396,-3.6026513580657036,0.4646127133253252,-0.265164728088682
3.53648232,0.3866843396934753,-0.7750409071854293,3.023197647366,-4.222423285509856,0.543754044737146,-0.22538614259262163
3.736492568,0.1352562688083603,-0.15605059063713173,3.5826780011517214,-4.424061432235387,0.5599752243876167,-0.0018064651879922868
3.9365383510000003,-0.26568413641272215,0.39518699847493366,3.699224412534807,-4.063431847278822,0.3805254433978018,0.10205145049127086
4.136497519,-0.7022768666960172,1.0150816854876195,3.558614414561787,-3.8877922087433405,0.2584372017101507,0.1539175132695882
4.3364809,-1.252303424192323,1.5314931022115972,3.3394644781051483,-3.4268566198420194,0.2307110897275411,0.17833169315277128
4.536479038,-1.8947101936456539,1.505972866069363,3.257741507622123,-2.936661191349099,0.29054925516783714,0.19678795573145602
4.736478881,-2.4384232617672548,1.3228617378357423,3.0686778458805977,-2.5023446825162563,0.352339486124124,0.21939726420102126
4.936479177,-2.9274617404110916,0.9635810849011159,3.0058655442999362,-2.130912957561695,0.41690599633314734,0.23376485746044945
5.136498311,-3.257999721716596,0.3928962980445559,3.146125308862158,-1.5196409777901303,0.4927473583415067,0.22580390857143753
5.336487741,-2.975166339494916,-0.38332837733976144,3.146805703851045,-1.0974981654091356,0.5058528173310909,0.21033370220140063
5.536481303,-2.6963963941202307,-0.8262424716936186,3.2766666214910645,-0.6763578953308049,0.4662183752922148,0.19576553270025418
5.736534795,-2.0992477869093857,-1.2193194334301571,3.1779786383729434,-0.2813004145606963,0.40924936971695763,0.20164998839342932
5.936503377,-1.475260528931096,-1.1917668906768482,3.146633747123246,0.1255870666114723,0.34247399498056263,0.20931391105035232
6.136488968,-0.9241760570720883,-1.1914835001584538,2.9695506104201996,0.5412426009912868,0.3636797562997273,0.21519298913215068
6.336582038,-0.48195460304869847,-0.7450091169132244,3.006004110057217,1.0125578036792782,0.46945458419161656,0.17921357690103454
6.536480165,-0.25328797531303626,-0.13945437255248153,3.5410823026091185,1.1519942258480562,0.5485007743834945,-0.02921599075108749
6.736562711,0.12560662031470748,0.5312261281499686,3.6983696480156087,1.0627885238603934,0.3967716727389893,-0.139174223995632
6.936481795,0.5050462797749297,1.0619828653168697,3.572456044677812,0.6390080541147607,0.2654141597259345,-0.19439297169118408
7.136486689,1.1926725275188321,1.5790731558058613,3.2927328214054956,0.2646927645385704,0.26726156663640616,-0.22101945414785631
7.336500152,1.6475426962074156,1.4124077323819941,3.023161406827983,-0.12675457649683428,0.3827579612506922,-0.2486040353679779
7.5364816359999995,2.2957964741704915,1.3444656627050982,3.0710061643656337,-0.6728032718698447,0.46741422505999736,-0.24755011562344328
7.736478901,2.8738341394745954,0.8162251172131253,3.2120768431395925,-1.141275709862106,0.4785687068915533,-0.24587891576085144
7.936503337,2.8560135832768228,0.22617684384643486,3.356826998223795,-1.6863981961889516,0.4551262655692685,-0.23786106075422014
8.136491312,2.74101443202359,-0.4688209279172667,3.2556594209858436,-1.884617297545047,0.39981945393480384,-0.22624093414990148
8.336491748,2.4193722322065714,-1.0251709952191084,3.1948376328836923,-2.418175397456706,0.34578251991843045,-0.24150702953820924
8.536629696,1.8761169086060563,-1.3053371048664277,3.115821418924589,-2.917008178844044,0.35091111313286943,-0.2548632731971615
8.736577082,1.2322500950641628,-1.3646527813292726,2.9928777622906497,-3.262873610425947,0.40942637498628576,-0.25580910657599104
8.936479131,0.5765395374763835,-0.9482077846068875,3.053879950814351,-3.899441086392927,0.49882009720439496,-0.25675560771534706
9.136581835,0.30936442027354616,-0.5708663466949194,3.3221419914885586,-4.369256257174852,0.5837955835972315,-0.12279318187845738
9.336541681,0.03004569587112694,0.037283686254598575,3.7436176632262836,-4.291500773079248,0.46490352918449285,0.049469349297916056
9.536478436,-0.39865575901579525,0.7842813358635397,3.8138412825942924,-4.062180301571121,0.30523671789223067,0.1319576569126356
9.736547634,-0.9017152518830837,1.1269240900949182,3.6145176983707974,-3.5864041437418788,0.23208790766011855,0.17410898387928686
9.936479021,-1.4883816071866587,1.4247874434038303,3.3311112095959867,-3.283157279912946,0.25179359434168624,0.17954919055487023
10.136479573,-2.2005650875819,1.5202093386166182,3.1205565281834655,-2.7693251666849488,0.3146523192483551,0.20087920647194143
10.336477498,-2.611216554542406,1.163545121690274,2.976525049964703,-2.3729263706032993,0.3960554644094532,0.21877141766152605
10.536482879,-2.8930082640769705,0.4415204058628408,2.9709830730127393,-1.8196601683773792,0.43176996004242235,0.22386784786002642
10.736530334,-2.9678384901977357,-0.01779975645622456,3.1864809320499483,-1.4072702151695,0.5091646881609899,0.21517375848640863
10.936480591,-2.8943629293969932,-0.6368866441350396,3.2307651731229985,-0.8355144247405715,0.48290613871498483,0.2061679802476726
11.136571576,-2.4136674687423723,-1.0689996762927798,3.1929491314899296,-0.6655429138796571,0.4386454186275838,0.2043679813122588
11.336563581,-1.8511183402336315,-1.2914294817751153,3.2562466688266136,-0.07086675472741703,0.3880547324957025,0.2144377340803967
11.53648734,-1.1418730513575486,-1.244890009689047,3.0664951331999553,0.2621922694868218,0.34423342491917525,0.2103114966115332
11.736481924,-0.5803093020352659,-0.9824261176483757,3.1216300094414766,0.7799271780906716,0.394881442743848,0.21958618043704423
11.936482534,-0.3601849337270523,-0.36817944648426504,3.288993781406557,1.2573485432402722,0.6052286154509612,0.06333520954091425
12.136487064,-0.020978285696326524,0.22947931223552728,3.6675236489559033,1.1345246813033805,0.47653911949127586,-0.09341482478859331
12.336486734,0.4535164344810137,0.9450616015443033,3.638866152128339,0.8268355699420448,0.2991629306532198,-0.18261610609127352
12.536481653,0.8263121360596638,1.2113666065634716,3.3983917589429993,0.49073034990645065,0.26171203687216554,-0.21280695322317666
12.736479254,1.395065468445904,1.5890722576816967,3.1772051631847766,0.06627455342215571,0.3163533192031617,-0.2324671184022634
12.936482576,2.095924418921538,1.3030669970927093,3.2098033721551547,-0.48315304831050543,0.42857964164921164,-0.251801457844754
13.136475286,2.558089484492525,1.0181416714672238,3.2330716173335525,-0.8051065295522571,0.4784211119880423,-0.2543930057458535
13.336479352,2.952138983902277,0.5176043037215045,3.2314081867002225,-1.3007924150807142,0.4622296834185535,-0.24928327074528442
13.536569848,2.961353102613277,-0.2508212262077715,3.2911172971574003,-1.6433627288500032,0.43272712936245133,-0.2380676736859517
13.736482999,2.6591830638089182,-0.781076002867093,3.0877632867217617,-2.1659867469304364,0.38261198930724294,-0.23961809011770038
13.936483411,2.196655588833109,-1.2788333533522958,3.0569168208018938,-2.6542323346861836,0.3563361704979433,-0.24276520801157378
14.136499307,1.6375459892419426,-1.4327480619159745,3.0656322417212962,-3.0847796971697425,0.3916829212401273,-0.2592548123031875
14.336483839,0.9036230414387002,-1.3142166282167735,3.189990032479169,-3.6259842488069025,0.45329769878788145,-0.2582990356089344
14.536500599,0.5693026045493143,-0.8503367735883021,3.2009789202574455,-3.9976004698538445,0.5448493006658425,-0.20843343924626206
14.736550225,0.2258554339601282,-0.33387603807617866,3.6344584764867394,-4.3498342603586515,0.564616716960216,-0.021605118502364136
14.936491886,-0.10538119328431891,0.3502144311157966,3.769456106653943,-4.207059595267655,0.368643510532049,0.10062799375495146
15.136497666,-0.511692842731948,1.022262719104048,3.6732919368676518,-3.944056727569869,0.2521476745949646,0.1527676049035638
15.336497096,-1.1406775643945914,1.2181521520003984,3.4372565334269725,-3.4034973052486404,0.2445842991449312,0.1747951102721573
15.536481167,-1.7943465974825148,1.3982912830469698,3.128805357896159,-3.0420991333888585,0.2774626328768338,0.18821663217239937
15.736572319,-2.4414999322286843,1.2241037468114633,3.025428821200893,-2.4861487080628977,0.3603547338356621,0.20095123065076295
15.93658433,-2.8775573381627026,0.8035559291285195,3.0123944401506138,-2.0919126833761665,0.42856235124981273,0.22237478821458417
16.136479188,-3.1080708881572012,0.2388363242256046,3.0642555271857637,-1.6701540003561195,0.4590116865737192,0.22191710324756805
16.336500533,-3.0465521007136367,-0.4563810170975394,3.129615407885659,-1.1369888344279075,0.4868535190230946,0.20930104557260903
16.536493993,-2.6218346743093006,-0.9955318771073793,3.1552016440196966,-0.7513248604660473,0.45034052244255957,0.1966157635588129
16.736549951,-2.1034915552880804,-1.2537569205490124,3.248416960611766,-0.37979634299235193,0.39975322715977535,0.19985253546114778
16.936480588,-1.4229464318941252,-1.3298177518302223,3.126954816157014,0.2209125720894896,0.35627544369026887,0.207837905736132
17.136544939,-1.015177225105195,-1.1267134497769005,3.063054498463713,0.5747819253007302,0.3664240646273088,0.21057139151968285
17.336480119,-0.5035504679746062,-0.7692227876874406,3.0353659249475347,0.9824528286567297,0.49039416750803666,0.15567151686601463
17.536481021,-0.12636509477381894,-0.13489946456636073,3.508376626395068,1.2455446436891462,0.58042834288152,-0.04004767638262714
17.736480149,0.2664013973671733,0.5627651612530145,3.70222657068719,1.027908579326663,0.3738283923928216,-0.1361066469697878
17.936551595,0.37399299874221537,1.0663617475722038,3.590242337674341,0.7813111088090222,0.24852708750673458,-0.20193011304563588
18.136496559,1.108907094257128,1.3833500670948764,3.3476049838149535,0.2360296855454554,0.2585294536078767,-0.2246757426090149
18.33650862,1.9343170769646958,1.5592780429311872,3.1655520393583396,-0.1993270801588852,0.3801702707246313,-0.2547730222296354
18.536491175,2.325203162498521,1.1115971049795683,3.0634425643128766,-0.664484142113524,0.46604531041839825,-0.2564036873345726
18.736575692,2.7517943792620327,0.8054372426579189,3.233660176300368,-1.0348099135644304,0.49857880623947853,-0.2549315035966279
18.936481661,2.9244222384879133,0.10512155616220087,3.228428690912124,-1.5110472875900243,0.46575068494176114,-0.24394408545103607
19.136524366,2.7826124102314393,-0.4205381827808628,3.2852597962440284,-2.006428742472676,0.40509238587749424,-0.2424025995061396
19.336487593,2.4567356418726676,-0.9060124173830093,3.1701693242944455,-2.376010403434015,0.37590664777658,-0.24564202681939964
19.536493203,1.8676186259098513,-1.2108569705313552,3.185454224919683,-2.9230861862453237,0.36006426126401264,-0.25315925136400713
19.736478307,1.370867982141268,-1.2179081968542453,2.976799031827465,-3.3337277158006,0.41077064399157154,-0.2687583010194699
19.936478579,0.8632998189570509,-1.1509871637868583,2.7236766640497474,-3.8414752606634863,0.19493463690443397,-0.34660953921258497
20.136480517,0.46555503037444157,-0.5759558457416242,3.102088097880387,-4.200050539538923,0.65,-0.11466131595223066
20.336480028,0.13032446088651548,-0.08140873429641732,3.7082422509240605,-4.217251973856681,0.5034558508437553,0.04276879803507794
20.536479591,-0.2154711862979914,0.6895994774380919,3.924019113615614,-4.063921339810084,0.33531996166047273,0.12331821483909376
20.736494047,-0.8446567830655071,1.1730785075344252,3.609483303958072,-3.6142607220791745,0.24472767671822762,0.14979230352215053
20.936480173,-1.4838356384243556,1.2695175821092195,3.4064846377095606,-3.264922027467395,0.23151668205318507,0.184594191255922
21.136498232,-2.166457452354288,1.3300950703121468,3.056473183037301,-2.76177397906218,0.31525962775490773,0.201195283871474
21.336494782,-2.4925690087700416,1.030431212328474,3.0671112347623706,-2.325179874369848,0.381717906380776,0.21380838348846756
21.536485062,-2.86066467716668,0.530850839360888,3.037833678438923,-1.9112651410150838,0.4341846315659375,0.22980910807635377
21.736483324,-3.118956500796009,-0.05367575616014712,3.1307486027255176,-1.5112324367143264,0.48656333711911914,0.21750962178933891
21.936479442,-2.7945974125915307,-0.6645847098025872,3.1100016996037163,-0.937515689136719,0.47680146147118607,0.2136435703877277
22.136479371,-2.4287546363891486,-1.133487002889535,3.168470068394829,-0.6177522120893678,0.4357493829347959,0.20865343042515572
22.336481126,-1.798934186348236,-1.299425940915129,3.1693904282446073,-0.17704029813171868,0.3742427037942696,0.21198319206530733
22.5364802,-1.2274406764342758,-1.3032667874984254,3.0397384401659875,0.4061790985590221,0.348720837838258,0.21961321349207233
22.736477445,-0.6532968252700356,-1.0306424965326944,2.878164861476827,0.7745550495251726,0.40589719876606434,0.22032722625825238
