time (sec),x position (m),y position (m),forward velocity (m/s),"heading angle (rad), from x-axis, positive is CCW",throttle (unitless; -1 to 1),steering angle (unitless; -1 to 1)
1.131963455,2.6398251020320407,-0.24472622476332517,3.077629630348956,-2.327985427994443,0.3988535435794996,-0.2298115928632281
1.33196297,2.036950380059721,-0.4711236302841344,3.0535210291416344,-2.8018794309886017,0.3549486104821836,-0.2165484947303297
1.531979471,1.5180616792879615,-0.5784529714043881,3.045726354748854,-3.1620518052370667,0.3392627727585487,-0.21470580296535782
1.731980347,0.9995003984761873,-0.559908997014987,2.9723486242710973,-3.5966318622431386,0.31539193323379877,-0.20374686010005558
1.93196395,0.4263788472867027,-0.24008393871073658,3.0160070194256496,-4.0244204896588744,0.3350484298934802,-0.17936316460886675
2.131971194,0.1366671373205,0.31878529903831754,3.222040074949687,-4.235810204789572,0.3921167984931103,0.005855633571819794
2.331973669,-0.15355356051797167,0.9572913060603822,3.2761129786788405,-4.108396539494893,0.30224299621994366,0.13027221250539486
2.531963973,-0.5684409462350711,1.3657781520122427,3.3905051518263414,-3.7220481489094577,0.28157623756647876,0.1764479036211315
2.7321070890000003,-1.271248759263826,1.5968021627288158,3.195699857850826,-3.2239401879027123,0.3341748216620205,0.16920517721904968
2.932010399,-1.7898458650361337,1.6685638016150173,3.0376482002666405,-2.8196200516523766,0.40440076343247344,0.15898928178725796
3.132015774,-2.3112571764394665,1.1471972883378097,3.061791277322607,-2.440522521072975,0.3462556820266597,0.16667067127137872
3.331964881,-2.728468846311225,0.811746028982066,3.13169935225946,-1.9528126186511408,0.32397017432308095,0.17842313347758848
3.532066336,-2.8980504340006292,0.1009379851559893,3.075721645708369,-1.4884105049446583,0.32061335562463994,0.1846743200264122
3.7320483280000003,-2.5602267350878036,-0.4019935531672011,2.917490933223004,-0.9651508769361593,0.3378925233090317,0.2006199350229732
3.9320180440000003,-2.218559712610315,-0.7714444290076021,2.958698850097112,-0.6174340581176797,0.4015044911393767,0.2042694567756082
4.132028675,-1.8067514675098983,-1.0240103220189383,3.0674065160171162,-0.01845188477000334,0.4089474827097189,0.19566419307647
4.331965783,-1.0759366156243564,-1.079366999285662,3.075202919689098,0.3668604825566109,0.3838321420729713,0.1884979329476173
4.531962738,-0.5488085731661634,-0.6958304235171853,3.1359179293315993,0.779947243046256,0.36465879388413275,0.17949612782865496
4.731969645,-0.23739967677972035,-0.1500894075221753,3.0779066717882193,1.1299695520730908,0.3676958687098852,0.1015389021684968
4.931981848,-0.024183079909833767,0.48313986313313884,3.2605460514269407,1.266063334397092,0.3982572454221664,-0.10290741486419072
5.131966807,0.36600867440696655,1.0374309211865151,3.1776079422382058,0.8268688590809996,0.338601132869503,-0.18343495327317105
5.331965169,0.6400041406193178,1.3932280987850205,3.135614934355462,0.4676979278388507,0.37692891545943663,-0.18975291679247494
5.531960956,1.314977055998937,1.6133592444288876,3.1972738567451584,-0.006702660428725395,0.42462494365547176,-0.1779190678762501
5.732024487,1.9749266248904294,1.6131817465321483,3.150043709967391,-0.3414344544592234,0.3844263841232965,-0.18020473380627697
5.931965616,2.413694305445866,1.202217901160794,3.316074938357512,-0.7510560191210341,0.35536662842092015,-0.1845565830288124
6.131970074,2.83278359245975,0.5602822747486556,3.1239216277355935,-1.1810089576734601,0.3585481938346726,-0.19710898561986576
6.332003061,2.848417243137499,0.09883555785623291,3.169994099273086,-1.6545196572369953,0.35423511324063295,-0.1932148923903137
6.532061254,2.7503384746888995,-0.5034402826528523,3.12543496693547,-2.1970851885688765,0.3659427216910952,-0.21008772011727675
6.7319759900000005,2.3185687951010596,-1.0567435340409603,3.2083831017117688,-2.556291877000322,0.4009964201833814,-0.20965984820058725
6.931969364,1.7452060194900383,-1.3036237732483411,3.115040968761448,-3.0695248638254746,0.3739492547006645,-0.2025562923159694
7.132051994,1.154509198903052,-1.072556722972883,3.2254515828366013,-3.4879006821313,0.3516287259563859,-0.20509652134196274
7.331981851,0.5656204734994842,-0.8231475532583002,3.0575312307222853,-3.9675311501111103,0.3333145738888652,-0.19598981127713166
7.531964077,0.2665868076471088,-0.34495192705385014,3.0896750439393337,-4.373422298584402,0.3969087417031523,-0.09561186790475137
7.731971737,0.04905839806983165,0.2405653359902244,3.3469513289891486,-4.325474483938565,0.37120875124421915,0.10501419008261038
7.931967861,-0.3292079405042396,0.8507379112906958,3.4255390097102745,-3.9144022915266357,0.2919609776312068,0.16466160292967413
8.131969545,-0.8528161543266133,1.2089278678071629,3.240309288754973,-3.5574411345924424,0.2866146826669346,0.18935989044500476
8.332049723,-1.4546004808990411,1.3693407793237906,3.1418923739937137,-2.9776523721130688,0.3439758907198928,0.17409820136224388
8.531965834,-2.1853654905558297,1.229250969129716,3.058060442115942,-2.7075812294810806,0.3480118505590604,0.17540669607766182
8.732065463,-2.5675981903280256,0.6982894350268528,3.0927181006411546,-2.179749655416787,0.3073478526663033,0.1715066352567161
8.932062972,-2.884493737699124,0.2201813075115938,2.990164676563763,-1.578384995832648,0.31098366351166085,0.19056741843399808
9.131961145,-2.666607126258837,-0.2746285458394666,2.859970461414825,-1.2531987648277867,0.3132575329014692,0.2031512337787238
9.331962551,-2.441118173365827,-0.7833443549336406,2.841570697085281,-0.7980147060233876,0.3646749385619061,0.2131313169307387
9.531975653,-1.9463962225261433,-1.1020750545256912,3.047397697663877,-0.4628706854492807,0.43896313298294104,0.21569765050812642
9.731967219,-1.3909746313768159,-1.2889763507340561,3.0674105906815643,0.15872986163883263,0.4036620942253964,0.18924864233929187
9.931985637,-0.8127570463762014,-1.1327512961021284,3.107070410742444,0.5413647013812596,0.3848796428480941,0.19068799817282306
10.131962886,-0.3789555010267585,-0.6483633247543843,3.155382718289705,0.9948317446979245,0.3735203022629074,0.19060604035049836
10.331960625,-0.18245968897020934,0.03585535524192878,3.2405873440592816,1.369966295211695,0.39309963305587575,0.012677359162355437
10.531965976,0.02738482970332632,0.520970775064018,3.3060765950589195,1.021412803722289,0.35092600848876526,-0.15174751801103611
10.731967123,0.4891723542604348,1.036042115402194,3.2382906260721738,0.6203632838561202,0.35319771863277666,-0.19066659350118445
10.931979624,1.0436965690955105,1.3966163150222157,3.197606727686009,0.227063569661327,0.3756161319508268,-0.1773660874673898
11.132058872,1.604509131223203,1.5355046145036095,3.2303143977563082,-0.1628327139145957,0.37183484621463997,-0.18414037357942423
11.331982475,2.2575495169481155,1.3482517933232945,3.112169639684177,-0.528486095856169,0.370025421958595,-0.18424643482477257
11.53198591,2.624586761356154,0.7446915724593178,3.1312479921708376,-1.0552526538400944,0.33514027787614836,-0.18944483105859503
11.731968189,2.9180790291410417,0.22308919205802796,3.138912640391787,-1.4947091848306895,0.3458729712274925,-0.20069958418639158
11.931986887,2.934461471058603,-0.3347353595355802,3.1017303070185522,-1.9525982305771343,0.38518346418399896,-0.20603095564015897
12.131981639,2.564992722395156,-0.9286753367589525,3.045757181792738,-2.315742354866475,0.3756459060696173,-0.2051509579684351
12.332060121,2.01761675553977,-1.2257519802542491,3.222026851874414,-2.8753621597831533,0.3954782634666193,-0.20401061337753978
12.532045606,1.4284201911361833,-1.4162669806859225,3.0104968376683297,-3.3753230213767136,0.3754416798584075,-0.19583648566991477
12.731968227,0.7267071884239436,-1.108114160901457,3.1051123018779414,-3.8802547110538566,0.3463121349511666,-0.1948389344203417
12.932012705,0.4274963825472619,-0.5973540492614667,3.006822129848899,-4.188333236162291,0.35237493777400375,-0.1740690685307807
13.131986608,0.17446854622570906,-0.0505041189016222,3.2616139179244383,-4.379532483023414,0.43013657482842593,0.03351612598897499
13.332062515,-0.09602613166993107,0.5323963274635076,3.486868940108179,-4.216401930173218,0.30591313102452145,0.15714120648298108
13.531994336,-0.48116360326160296,1.0731089590636067,3.3609086115792723,-3.7717759970896645,0.27566090368361573,0.18903890957995184
13.731960245,-1.1843348239923395,1.4226547306925355,3.1599489544640535,-3.3291098213153085,0.3368784132493793,0.15275709917771285
13.93196784,-1.7182577223365636,1.308704126125065,3.1016690698919995,-2.831883373146205,0.35500194492592896,0.16837650927456158
14.132012949,-2.300844468766055,1.0107963156731385,3.1405545442291465,-2.34973056412854,0.3365321463823369,0.17094764774289753
14.332059502,-2.622646823831081,0.46468421057967246,3.0739278152440366,-1.9332939044265511,0.29711765991937017,0.17451856817639333
14.531966159,-2.894943141610512,-0.07147736793853,2.893328583867246,-1.5648630144681794,0.29665753913970505,0.18623304675772434
14.731986791,-2.5834108673729568,-0.693804350148497,2.8964541789725633,-1.0676442406907871,0.3493683381675656,0.22002331604109102
14.932026805,-2.272494030163556,-1.0649965019621637,3.032177005863053,-0.5408715012880225,0.3877611084800928,0.21634165676526718
15.132042397,-1.6718576410496047,-1.3749470949538662,3.13844218914811,-0.20414575422447728,0.42560902682252616,0.2158257323614448
15.331983125,-1.1726003559097091,-1.2481848190720837,3.1391906506106886,0.29486140479630607,0.4034078357271407,0.18702503534081605
15.532130784,-0.5065407666610728,-0.8938534019191575,3.0810634143732645,0.7974216037082745,0.3709401392943964,0.18652938165147112
15.731973361,-0.20446972197112745,-0.3587873096203728,3.2516485539049187,1.2205892652411328,0.38231612644913376,0.13004880412842754
15.931970069,-0.062104960582667554,0.28711748152701216,3.307153212194887,1.3127656886871395,0.39178260879739607,-0.0947653173592808
16.131967889,0.38200742393318954,0.8427743466099826,3.3503761869451063,0.8893822148826193,0.3257228943945147,-0.18210226874369326
16.331968842,0.7762939265193076,1.3519685419243543,3.229641420343727,0.5145555324004872,0.3713083152802009,-0.1988258141615714
16.531968352,1.3266345892298002,1.4673728018754102,3.1270858262200982,0.08094814106091712,0.3812865315822796,-0.18291416350786363
16.73197727,1.9834704521868438,1.3825807544672788,3.3381588510990503,-0.3723583950722835,0.3763910905260747,-0.1887731896370688
16.931993652,2.332562129975272,0.9966605361259641,3.287673502897499,-0.7127544925049779,0.3673775652148078,-0.18895024600197033
17.131965305,2.932560302179079,0.5594383321319781,3.107006888532581,-1.198561875891664,0.3334003829084701,-0.1894309875978459
17.332058144,2.9445225618256927,-0.04180305108936282,3.0584080451201867,-1.650101207065598,0.34279047233053567,-0.2046612031153079
17.531978585,2.919653317036859,-0.6919007441543054,3.017381627138558,-2.0051582471813836,0.3785068573141852,-0.2096342653888135
17.731984588,2.414228067753994,-1.1002252594978457,3.0017333381962645,-2.471131695662592,0.3866801637672053,-0.20350241147224574
17.931976979,1.7703672877489558,-1.3452062286790558,3.153816595975768,-3.04707107828435,0.3757980461349045,-0.20527719407706632
18.13197017,1.2461924711180148,-1.294218997682599,3.130904141635682,-3.496341460443889,0.3604580475018796,-0.21012352538152385
18.332014602,0.6963608004565364,-0.8745841663681079,3.039180944283704,-3.9665915021150155,0.33756128287387294,-0.2043118364766633
18.532076425,0.2612924393432499,-0.41074375373474714,3.139413008671434,-4.327008299696663,0.43833594812858456,-0.08021422200680967
18.731979339,0.1284923891385083,0.1723196624854259,3.5883812105702195,-4.201062488854128,0.3727750099821844,0.08917992490695402
18.931973408,-0.38375796694333275,0.7242379574772806,3.4886403853331602,-3.93586027296362,0.27403238210866143,0.16737203491513866
19.132021511,-0.9061484349636233,1.1355745246052273,3.3777090057856145,-3.4945614697893452,0.2887818209797408,0.18556864275678522
19.331972918,-1.5608654209814907,1.2601351336671076,3.046740921807106,-3.090370402869656,0.32873520932877,0.16255356003907676
19.531994018,-2.098414676570485,1.1771335391363467,3.1816498168472,-2.703562162160238,0.34395766976138287,0.1666028691037644
19.731977788000002,-2.550475702676439,0.7228557096793716,3.158452520878137,-2.1682573211440346,0.30360486323601527,0.17211829785133176
19.931968788,-2.7209871278975433,0.10659790168640422,2.9811424176852057,-1.6438829072068735,0.2914595742124854,0.18573591937681178
20.131965095,-2.8252293545449176,-0.5272095843942525,2.831589877897103,-1.2546917935892719,0.3280096909151698,0.20374431435182097
20.331967114,-2.491769804122918,-0.9742793968434068,2.9491125840461767,-0.8229239725322363,0.4085354771115986,0.21363297304937734
20.531975996,-2.006405073252189,-1.2723263742829398,3.117805014783578,-0.2901341145992338,0.4037280092666261,0.21253002063547186
20.732056526,-1.3092262101776544,-1.3110171395769512,3.067750936227925,0.23019852710907676,0.43216903126930484,0.20481805844286047
20.931967923,-0.8322519878030809,-1.1470354881187512,3.0476546184567646,0.550760571957633,0.3897833390477681,0.17560566316965653
21.13197472,-0.4005983884545811,-0.7166865408069685,3.154946615890633,1.0222051767686546,0.3574008993650377,0.17246623333687466
21.332030126,-0.27880444813183325,-0.06608498508810008,3.203761070213848,1.3940705195542733,0.413627927754276,-0.011195308881817814
21.531964777,-0.09198834060012404,0.530369613536454,3.4338791061725593,1.1397851815716724,0.35544474731945574,-0.15945820855359819
21.731988907,0.37839611535239837,1.087942796138117,3.158126672300182,0.7552355363314749,0.3473387376604192,-0.1989467955512415
21.932052176,1.0302306894678541,1.504074765494774,3.2555735926433584,0.3768785874085369,0.3825944185893491,-0.19236840123707624
22.131996795,1.6941381062336547,1.4842347980247952,3.3184687231743624,-0.1609476005782997,0.3843078494787928,-0.18228467040963983
22.331969123,2.1726293341367193,1.2172519282227559,3.243087626248227,-0.6537704221818633,0.38028077788884346,-0.1883811113866819
22.53197773,2.66048121869742,0.8189197652838728,3.2168507225928145,-0.9947115604532796,0.33105318524964605,-0.19205568785992005
22.73206294,2.961303335614775,0.24214552183034702,3.126544357318889,-1.3163584537035222,0.32934585527782645,-0.20444219668512387
