time (sec),x position (m),y position (m),forward velocity (m/s),"heading angle (rad), from x-axis, positive is CCW",throttle (unitless; -1 to 1),steering angle (unitless; -1 to 1)
1.138100522,-1.3116681248170974,-1.0838316707390823,3.098391952919972,0.2721625748287324,0.4708845273262964,0.21290750245521303
1.338102213,-0.6332998080553025,-0.8792685614595839,3.1268446720915657,0.6453373631927531,0.45048731950787463,0.2067056946793942
1.5381074460000002,-0.2006583161319463,-0.3685170519975856,3.354408991042896,1.1674003864842046,0.5388498836013905,0.09385233933468176
1.73810228,0.0889998325881834,0.3245343547334962,3.6568021486693847,1.2034586902613231,0.4910523442376935,-0.07158762784846394
1.938094413,0.4823215826470638,0.9449505379249254,3.7868965052192465,0.7950848903462816,0.35862811345185114,-0.13624385596354732
2.138101656,0.9434056861647635,1.4896439807889381,3.5074450012131795,0.5042936364891509,0.3118363295898144,-0.16836897187773717
2.338094486,1.5737405569251472,1.750350922351056,3.186810658881026,0.05115780022535137,0.2963884927227663,-0.17341552208685454
2.538104793,2.2009357408970454,1.6669349307179673,3.041746599106955,-0.3497551333577512,0.3051537895334094,-0.20375178482810785
2.738106415,2.6029638896812433,1.4148521214447798,2.9304542629391803,-0.7950226863895805,0.43478769459872074,-0.23274443705168849
2.938125842,3.0194745233090057,0.9236427802013215,3.069354672323511,-1.2012287149203054,0.5304819716537156,-0.2330990437547685
3.1381043220000002,3.029999235303303,0.30193867300419425,3.2973280934105733,-1.643576899391398,0.5620356560300944,-0.2269449492433112
3.338108839,2.8588684572909675,-0.3263805695837337,3.4281218195870933,-2.1860513494969553,0.5184888551908221,-0.22568710390529512
3.538110299,2.448039618261904,-0.8455613463912672,3.3711981473261887,-2.6154058526785318,0.4776827087384276,-0.21042887340003102
3.738098269,1.8211176150029402,-1.065882305107878,3.2082061511974946,-3.0206406403583483,0.41202780382492116,-0.20227174121033054
3.938122898,1.358053454397238,-1.08094267041328,2.996583582119262,-3.493571992989986,0.34871745305535196,-0.2037089583432576
4.138104509,0.691068384872154,-0.8463527854515926,2.8825163230358135,-3.859206425629588,0.35266292370161395,-0.2213849012413863
4.338161563,0.3007552409088845,-0.46443173484800604,3.2393656876973567,-4.249893996081616,0.5623960107044622,-0.07997486508016254
4.538096593,-0.027333112253617432,0.213585091265938,3.604581182480037,-4.086352692279068,0.4636275141340147,0.061175615436460676
4.738157782,-0.3919466411092819,0.7502679875392203,3.606956011114489,-3.8805565379209495,0.33307961734063546,0.14439488517275537
4.938105367,-0.9497900089935916,1.3067161535300371,3.474485447315694,-3.5392270149264693,0.2901246261655998,0.17372929421990754
5.1381000629999996,-1.6182352331940648,1.3477855642501408,3.256278348392035,-3.1269746508839513,0.33582553490669587,0.18151935489707577
5.338103341,-2.1596419700078973,1.2374374950480997,3.271328705572202,-2.639913292022531,0.4265576534066572,0.19105796325006447
5.538104804,-2.8311323164097737,0.9291470995130571,3.3218402563208107,-2.266722763289872,0.43163697504101767,0.20571675047616214
5.738095419,-2.983476085457144,0.2386268370906758,3.2721516799289403,-1.63345340612329,0.4231707557698143,0.18627233467856588
5.938100547,-3.023160487142342,-0.4301321808510217,3.3200849861597064,-1.3062834869921243,0.398731943104265,0.1871676620507197
6.138105093,-2.7228334950038486,-0.9525766563183995,3.1650938303890928,-0.8209486838671268,0.3468644156746744,0.19942336206917696
6.338172397,-2.1666638801040445,-1.3128501068156417,3.1756380242268154,-0.4755742527046991,0.41507094340043016,0.2060798820172083
6.538140159,-1.7006959607903234,-1.4796780606682678,3.0100590945483496,0.12501698707121217,0.465705938938833,0.1994255517204068
6.738105334,-1.101063368990706,-1.3065827562351644,3.260175239335502,0.5193210626189937,0.46068837479518854,0.2047953466789688
6.938103315,-0.4992912514324967,-0.7553381121298607,3.273284264017574,0.8951013500487659,0.4712232647295137,0.177163499603132
7.138102985,-0.22808521456570796,-0.14881983856485909,3.5538766751698425,1.2030402862850162,0.552169200524969,-0.014912377178509443
7.338146021,-0.0015716503101231571,0.3651465014522223,3.8002888431854713,1.17868130779174,0.424127794149542,-0.12162202659096721
7.538138554,0.657597317654325,1.1196554323786707,3.5796336558519815,0.7307721919202332,0.3371503612682278,-0.16008684889496777
7.738103279,1.2081382208041225,1.5461728468999514,3.4466596524622943,0.2220269194129728,0.2980038550444685,-0.1730221284961992
7.938114274,1.781446008095578,1.5676171242201464,3.0830061358791347,-0.06675842050471505,0.29145773026125116,-0.1850821419549582
8.138094478,2.3962197733019552,1.4308144365857662,3.0005350438401672,-0.5437610536332264,0.3373449063735614,-0.2166796110466027
8.338106241,2.740278749911192,1.0103847265951367,2.8842157558724684,-0.9447539840585835,0.47732320488314195,-0.23281292358534011
8.538093764,2.962523800009874,0.4783854618479131,3.1625878547196655,-1.3805817583517486,0.5497581317170046,-0.24274869059937682
8.738185306,2.9252678806095544,-0.12254028698288948,3.197000414230321,-1.889089740075994,0.5435630612376259,-0.23318145362166223
8.938092261,2.748307691886149,-0.6859427197014697,3.202621208072659,-2.4135396292656495,0.5013266952020491,-0.22565960987381967
9.138100182,2.1995279522796216,-1.0640000420163842,3.2787130573965597,-2.7995168811561597,0.44373775996808174,-0.21119280766856824
9.338094249,1.540399173836118,-1.247964040608653,3.224082232552543,-3.191774939427045,0.3846899612190875,-0.21554375023693392
9.538095594,0.8484313704588667,-1.0810975184331857,3.0228542619344365,-3.4899413136117663,0.33639202373445753,-0.22097467509140667
9.738122454,0.49828501575017387,-0.686132813894063,2.944227860509035,-4.179915833904715,0.48889882275543356,-0.16890190914596775
9.938094068,0.1447937832823371,-0.1384053008574112,3.443272277606807,-4.286659920857425,0.5940037993950051,0.008311977332066567
10.13809803,-0.14991651664373037,0.43991497577848676,3.5439885305012364,-4.054017738413872,0.3867584879029567,0.10355285283731631
10.338096478,-0.648738317808465,1.0228132123666192,3.588601311489688,-3.8879070065270307,0.27722788527464987,0.16410423277540817
10.538092735,-1.4086097864974594,1.424896866227011,3.3422755680357894,-3.301908882746299,0.30066864113066083,0.18205103337473216
10.738090177,-2.0061733299772646,1.2607957328983634,3.156914380131564,-2.8411083282395357,0.39041986737081924,0.1798060238611384
10.938133189,-2.5182920202727006,0.9247136098743317,3.1282300517203736,-2.3602642184223157,0.4479992749544978,0.18640785092868953
11.13809208,-2.9299604745304246,0.3807366994356239,3.2909690645792367,-1.9369064956074424,0.4556837345632764,0.18842264988051322
11.338095555,-3.0908830658193422,-0.21358855203085286,3.2618938644599726,-1.4659448216382098,0.38285550527781015,0.18240662968408533
11.538094256,-2.8398562445894027,-0.7227051675976061,3.069184338190216,-1.0836065415068057,0.3594476018985219,0.18347086860534983
11.738093067,-2.489633905513534,-1.1262626945036331,3.1196699070447536,-0.6113493150480266,0.3744791591644578,0.1990560742355105
11.938103838,-1.8707602976204354,-1.4307245501010253,3.0087153312241695,-0.00485320400486175,0.44590296293106807,0.20506487585841865
12.138152684,-1.2260029408539812,-1.4238045542388296,3.2834835941904483,0.39788365719245283,0.492197540631402,0.19958428497620212
12.33815859,-0.6664706390900446,-1.020395119152506,3.2603719847542028,0.7818495285207574,0.5242727701775414,0.1913664984252408
12.538107575,-0.319196916847317,-0.4882111951003225,3.4836559244856335,1.1372240806924863,0.5206896183518436,0.0892609223504781
12.738090964,-0.09793766157167619,0.22662657466657102,3.6969512155726068,1.1543301957559666,0.5209094231541884,-0.0869611552415631
12.938112009,0.29759763230355313,0.8618111492046127,3.738415497568439,0.8598789671838408,0.357867887247461,-0.14153259689813413
13.138097488,0.8566827947417941,1.3713656840361244,3.6121701797035857,0.5231099667870195,0.3102381421334413,-0.1578314344621802
13.338094075,1.4500445774858877,1.5391769859664088,3.282387435963414,0.18045752068354473,0.3016164480303724,-0.17812049007058695
13.538095851,2.1945023440909823,1.5195450818138507,3.122943999775613,-0.28657594908716477,0.33024182171936656,-0.2026106083017111
13.738090654,2.6173218548818227,1.237910224793921,3.0108197025265895,-0.7104277625756976,0.38983830842343825,-0.2365100994510366
13.938096469,2.947056883058056,0.792195360959381,3.0421400630783246,-1.1864064823925233,0.529556845464465,-0.23933892483133745
14.13810448,3.1396352642028917,0.19869316775270357,3.255869642080845,-1.479654447156077,0.5558790169632913,-0.22882356903486775
14.338107203,2.798504409843197,-0.3920166227125282,3.227285803757121,-2.14900368415262,0.5259709997941581,-0.22615851081073526
14.538101896,2.4985337504342318,-0.9348137637245809,3.2371770562439037,-2.569860008589688,0.4967068261710982,-0.21975888323189263
14.738111814,1.8119851165536143,-1.3493008258019485,3.256121131334288,-2.9929954106374663,0.4115540526474261,-0.2107128028625276
14.938101375,1.2357260578933305,-1.1039177354437786,2.9843071976424542,-3.4845929270012386,0.3603578752009434,-0.21434666849117265
15.138152347,0.7345566255515488,-0.9542118063588876,2.922373890092282,-3.885445085280866,0.3906276795632,-0.22101251972726765
15.338110301,0.4303547597367263,-0.33400172481747165,3.165485352047467,-4.18106737467799,0.5664324146189238,-0.08233560263241196
15.538103866,0.045615779467252676,0.19493364461094473,3.5410150594211443,-4.126802448108048,0.4985543228172436,0.06435865473383913
15.738102023,-0.4176897597639563,0.7760628309445646,3.6085277228028265,-3.904387412375069,0.31973306242720984,0.13724262415290922
15.938097094,-1.0286786465867193,1.150601950060367,3.5078562220977023,-3.692423052864994,0.2847453291926752,0.16539484905127136
16.138106288,-1.6388958881551434,1.3284979767735443,3.308475104121913,-3.1302182115929202,0.3313304903675055,0.17731851349565478
16.338105812,-2.2809069167277496,1.1454023191434026,3.28836184251699,-2.5833097278107062,0.41368313140708846,0.1812918558391869
16.538148318,-2.6052492974383377,0.7146173538361695,3.302521137492774,-2.109584824934189,0.44808736245048647,0.18919777007424396
16.738099946,-3.04995815974303,0.17190090292897772,3.177286825440381,-1.7885471130853419,0.4256959842758376,0.1841365876149431
16.93810433,-2.984279131720336,-0.4654586184133747,3.301145469346497,-1.2574235543067025,0.3523947532678043,0.18391195412837166
17.138109079,-2.694919879188051,-0.9573423218511701,3.1088307888303075,-0.9002770856461951,0.36293519962767423,0.19409983564447408
17.338095174,-2.188367835656624,-1.3726287749420139,3.041411067359231,-0.45865340788891196,0.4191517874684406,0.20934168405137007
17.538108376,-1.6857982519444026,-1.410708922445526,3.1262698115915164,0.14793408648032574,0.4604201692604009,0.2042260318266193
17.738096723,-1.0164528364269347,-1.227330604568111,3.1704601069419005,0.43191801189262435,0.4873654341290015,0.20186569815059577
17.938099598,-0.45672537925867357,-0.8325955423571205,3.2870492466136323,1.002287517582365,0.5058516355970658,0.18780301545433864
18.138099758,-0.22802989957317193,-0.189551937932327,3.611653559441589,1.2984771745757218,0.5545179974958236,-0.019363494732289776
18.338113604,0.03079839493335007,0.48491384440931884,3.7714238088251673,1.1443300187034497,0.4338950797426406,-0.12901878448379595
18.538102403,0.4987476035981247,1.0607714731144557,3.658593180613972,0.7442976181783466,0.3279286285048352,-0.15962336653391868
18.738097322,1.0768570142359366,1.497509088776636,3.482238085941341,0.3544484255913206,0.30619302953395183,-0.17039267617127407
18.938106049,1.5946892039372456,1.4808759648959948,3.1678922632110407,-0.015763729333860145,0.31321457567847216,-0.19183824521187964
19.138099142,2.3386655075928418,1.4092574632473063,3.096306408838684,-0.49101771217939305,0.3318217534359345,-0.22810388983135732
19.338116506,2.7151921609052208,1.0834848072604089,3.0707517136431446,-0.9440574092981642,0.4646336701932202,-0.24160012627994515
19.538102766,2.9425713428885825,0.5017318174444797,3.070276917641003,-1.3513000469514977,0.5597043864841188,-0.24241231252822357
19.738099406,3.0070696907450833,-0.09321494936933142,3.215335811215288,-1.971246702209562,0.5418501496734355,-0.22930291297438957
19.938106085,2.576114449526806,-0.6373758067748734,3.302541509087316,-2.3529336160526366,0.5086618732210998,-0.22750600443150096
20.138099463,2.099264743859598,-1.1133866857942536,3.414265837050459,-2.721427367345815,0.44854488728724146,-0.21582293443802184
20.338107761,1.4357105933217407,-1.2728190604727423,3.0962208203264807,-3.1724651547789327,0.37389686218428836,-0.21832677036470566
20.538124018,0.8979978350495997,-1.0393420537486475,2.9784773203583566,-3.6326182253017385,0.36422339118839725,-0.22707503606150525
20.738102762,0.3841511123703102,-0.7731155840216525,2.88519241348717,-4.101605005146438,0.48423228659104706,-0.18473224939065502
20.938101567,0.20287293591636565,-0.12078126066831871,3.437373265824794,-4.202689961490309,0.5752274175593919,0.006533313617731918
21.138120185,-0.10553642789978933,0.44809192042836804,3.621059446934419,-4.168490744283002,0.390874491311235,0.1009601181636934
21.338098216,-0.7019891393092256,0.860426899401702,3.566201841660349,-3.8045460359426277,0.28528648464874484,0.15304636192305288
21.538093545,-1.3790683965815673,1.342360601537226,3.415727043157612,-3.397697269114797,0.285615251463795,0.18657867567049263
21.73809188,-1.8957878686993894,1.195369059012624,3.207221142594856,-2.751433489724793,0.3712375445461848,0.17862597339270156
21.938090733,-2.5482749970163616,0.9398551085873711,3.1916099236510274,-2.5088690550581343,0.4326082657135466,0.18280293662857758
22.138094832,-2.9468292578923356,0.4464744968645445,3.208926032331125,-1.9290085566166209,0.45225336045565606,0.189552796681691
22.338093181,-3.0229418148357534,-0.08457932272338617,3.2583285949057585,-1.5551317171589392,0.3797788762713638,0.18289351989800748
22.538098743,-2.8779341203348583,-0.696401843634612,3.2476147142629657,-0.9609918686820481,0.361814854867982,0.1846808956125128
22.738098281,-2.6104250526747137,-1.2253704349475798,3.0318377391077553,-0.5938644789722248,0.3810231048455157,0.20059643358998538
