time (sec),x position (m),y position (m),forward velocity (m/s),"heading angle (rad), from x-axis, positive is CCW",throttle (unitless; -1 to 1),steering angle (unitless; -1 to 1)
1.12961248,-1.2343416144028623,-1.180560471343722,2.7327363891665777,0.15153700413880333,0.4046175690698098,0.25892855456193203
1.32961457,-0.6920047093264305,-0.9427036603649905,2.8874264806191943,0.6336859152816064,0.4278621514879011,0.23589012738337337
1.529623536,-0.41335112623985704,-0.540661252028518,3.056127576351217,1.0273907800408246,0.4312317088764842,0.16574725275426125
1.729661796,-0.1331986466310232,-0.04392019611103034,3.3379159791879704,1.2371622078893145,0.4297639965283559,-0.043590852567979455
1.929619411,0.19712850369035007,0.5843097035766498,3.3382738358177804,0.8465250708055746,0.392367601147178,-0.15021889598893312
2.129630387,0.7580997823409464,1.0106651750337907,3.1769663268030524,0.45174138023221044,0.343355162725469,-0.16104580449428968
2.329619624,1.3450028687821856,1.121603043976522,3.099220280387646,0.06534755968982627,0.3553825914695317,-0.16001646382849727
2.529619811,1.8379277558974818,1.1012987660606115,3.044993238138734,-0.3445669675060045,0.3388085442780385,-0.17463275145815205
2.729614989,2.332661300860546,0.7842471555156282,2.867356144138732,-0.7545004644202142,0.3306930701767589,-0.18751117612901133
2.929635023,2.7738578155218985,0.39104633769916775,2.856874794243241,-1.273799933927092,0.3581319643697969,-0.20415490809904843
3.129612871,2.7352810693838414,-0.24250536764464914,2.7968066545399055,-1.6184254675179666,0.3716575915165158,-0.20768841294851267
3.329617002,2.6115867554816927,-0.6941766502097043,2.819613174515165,-2.1474152461216987,0.3960717508827956,-0.20860418989265947
3.529609396,1.9844090749201053,-0.9548114793792756,2.8130336709206736,-2.616391373281462,0.40967116869914744,-0.1987628190943847
3.729610384,1.574677517825271,-1.117634149525454,2.8030108575579256,-3.1483428028203377,0.38898089668906394,-0.19633572206056127
3.929607451,1.0102793917679105,-1.1750674036495055,2.7739378409855324,-3.663509676495528,0.38803810176755626,-0.1954325541030921
4.129608518,0.5146621875512137,-0.8029746734903522,2.802080952793581,-4.054526395991566,0.37535003711908504,-0.19203215620634512
4.329611204,0.2854402966889467,-0.4098069685300324,2.94273619938983,-4.411182844507137,0.44190675093711224,-0.08681189465522987
4.529682987,0.09997477766016674,0.2685701145939973,3.300808821732652,-4.448808027511886,0.40618829611260515,0.12015485688770919
4.729621456,-0.14536396005588267,0.9857698363939348,3.27340220514099,-3.928495917026602,0.31012838253095476,0.19996137283988552
4.929614601,-0.5756699103424148,1.361756877825695,3.153503956011464,-3.604614163709819,0.33309448997718066,0.2241942428616286
5.129672654,-1.1568221065488427,1.489272745954966,3.128988952598558,-3.0881349196761056,0.4348849058038307,0.20850662867103326
5.329615385,-1.8535922285540316,1.437738461109219,3.1557750394910626,-2.7764548055521963,0.403945925218378,0.2023162939107868
5.529624839,-2.3981199910574396,1.1068445104006412,3.211096484631854,-2.3896917332115684,0.3668071001571135,0.21064236831023483
5.729623831,-2.6144867198843036,0.45049441843132887,3.0978787855803533,-1.831360187786082,0.32249240598332796,0.20627649057534453
5.929617592,-2.677925545343033,-0.13571448108964396,2.9954045512121272,-1.4205528148289606,0.2890676899722887,0.20975869268334044
6.129613568,-2.5949425691185115,-0.5591743810383768,2.8407262789038947,-0.9133975430964257,0.29174319118983183,0.23087660170704336
6.329614501,-2.1596565256012266,-0.9863202963707856,2.7216770992063166,-0.5743192644880133,0.31870719938070324,0.2398884516982056
6.529618708,-1.5676989498838445,-1.1233569254597586,2.7416542563023363,-0.027963527224948187,0.3752898358715255,0.24583256094537356
6.729666151,-0.9964979880761261,-1.0828110662861072,2.9348153447850276,0.5647283156625874,0.4207056607773638,0.24626749188789196
6.929614067,-0.5872553637649381,-0.637770933013686,2.8669198132556857,0.9610153529632572,0.41293983716868127,0.2189589302316319
7.129619443,-0.3262739696194531,-0.1036410101841625,3.128930784856856,1.2601782953912162,0.44165812850077274,0.052961190771656015
7.329652901,-0.0001025475649253163,0.33367957405374865,3.297953353610949,0.9977593714969017,0.4051441997969893,-0.10670027375170113
7.529617689,0.39598261000214785,0.9249976394984698,3.3068154068419804,0.7146209167749797,0.3484955479699208,-0.15108383998244754
7.72961566,0.9045145774952954,1.0973498974050864,3.081290792510719,0.27565226239884066,0.36347239157886696,-0.1521682336226617
7.929610243,1.5333807778235955,1.1440040530134181,3.083023523583005,-0.18681598141386518,0.34767202334407865,-0.15422415983442395
8.129615965,2.1471247508745868,0.9717556203932296,2.9667732532767106,-0.7406613272858397,0.3316421618863668,-0.1718704169829804
8.32961896,2.5072860232585437,0.5381855489375598,2.7906013784001225,-1.0138409714895553,0.3404600076164983,-0.19022043998258586
8.529614447,2.623327341348952,0.060122079776743186,2.8194971885125986,-1.541736587819327,0.35291675772457076,-0.20024590364522268
8.729614203,2.7328869231457236,-0.4637480986752339,2.5828356551680995,-2.0453138287429593,0.3773286616506756,-0.2066055672576177
8.929616286,2.3750149197146144,-0.827138301199913,2.8132635386028273,-2.4715810767764563,0.414589799634833,-0.2051191349320439
9.129609088,1.8776898724797286,-1.2592625078526398,2.8858903851574866,-2.897991835740147,0.40643541509467573,-0.19611695761911585
9.32961217,1.2538318007262066,-1.1885367962798683,2.788617965465412,-3.286529514950307,0.39330355430597846,-0.18668966698322592
9.529616058,0.8331815398155702,-0.9229343151856632,2.8342864520897986,-3.789386819895831,0.39333196347635735,-0.19221963784375998
9.72961736,0.48105073185784275,-0.5465294192705737,2.8701850680489227,-4.264862356838476,0.4102841174834616,-0.16114016330161204
9.929624636,0.226238640425335,0.05986235561251315,3.0997811203667895,-4.47999649077078,0.4340336275920392,0.03274478577391296
10.129624507,-0.0451931275682056,0.5746533623322678,3.225055456871437,-4.274804845036421,0.3402311380617225,0.1649116465953996
10.329619973,-0.39456733867822125,1.1130827427112495,3.284559168571534,-3.879805924707785,0.30830710083289137,0.23196060331544172
10.529610634,-0.8643828851414987,1.4545500023722113,3.053856802515289,-3.3883906798323262,0.37749812218190354,0.22088407075203265
10.729608454000001,-1.4425974620337891,1.3690852821885706,3.144365579399163,-2.8963343007998015,0.41852655545858414,0.20816238782094307
10.929613307,-2.037822609274715,1.2668646320158732,3.2778112090407374,-2.605611051963384,0.380636655325571,0.21069739419345343
11.129660145,-2.495421364680035,0.7333450706321554,3.137980597981474,-2.126910554763729,0.3598549882400503,0.2160602374413957
11.329668785,-2.6696251612910022,0.21687376249093238,3.0511704792111245,-1.6401254332370805,0.312437013269338,0.2078535693018505
11.52961831,-2.602624936425502,-0.344592347610739,2.8934679967647905,-1.2740494861271912,0.285847659388304,0.22244768209463225
11.729622278,-2.4571776154249316,-0.8320974428976923,2.8305155030861404,-0.7507624267896693,0.30061726582346887,0.24301755779059678
11.929617251,-1.90914172307018,-1.1241398737946624,2.7439995651269387,-0.19754597788776754,0.3524960411734845,0.25310692754365766
12.129611211,-1.3491014243039234,-1.0616161442857286,2.896692992132552,0.1545843116768881,0.39592730751581134,0.24892645640289343
12.329609292,-0.8154712355619513,-0.8808804035745398,2.908888395392784,0.7523864091914343,0.4183688507769396,0.23118678647455537
12.529612310000001,-0.37720221271776555,-0.5900770205979745,2.91626025142369,1.097814921174465,0.42034913724362843,0.16465642434794753
12.729612566,-0.2033288949862718,0.04722671240767325,3.1853906894475688,1.0967189364829377,0.42772767468404366,-0.04693148266497672
12.929609815,0.07930885545473985,0.6255220910703674,3.364718250059457,0.8445327580149172,0.36888162018539483,-0.13573507785906305
13.129613959,0.7409534584827631,0.9502072427536009,3.2985147959812533,0.4869995878130786,0.3494554721640258,-0.15844383852530644
13.329614338,1.3010148233266512,1.4049443016830807,3.0016499856017322,0.0910711721798187,0.3573695533872877,-0.16455806907970738
13.529657577,1.8314251382848559,1.2695622027094753,3.1210580774063206,-0.31595014328936466,0.32445225211095685,-0.19281246215951714
13.729611815,2.3209382667152187,1.0149303842409036,2.8391760912581168,-0.8458840219044962,0.32922457155687634,-0.1869448061203973
13.929669687,2.6505791157375014,0.3820081805590283,2.777052288756603,-1.2204272523928863,0.3526080453656911,-0.2055279905701082
14.129612307,2.716436703610078,-0.1437226899151132,2.6897516985998347,-1.674917075173417,0.3690151456003533,-0.2113346222190081
14.329663758,2.570904704350535,-0.5570590517835905,2.7735255063257673,-2.1200755273503615,0.3842170594500653,-0.21736540309876176
14.529613716,2.172619166690815,-0.9946848844661428,2.8239424525506824,-2.5880877762795866,0.41942661962724404,-0.21305124185881735
14.729609929,1.5692047549096357,-1.227390182675684,2.7857220993669793,-3.179362474470012,0.4031000706229399,-0.20906437079891105
14.929613398,0.9828348114043644,-1.0650335653476533,2.7298122155028532,-3.605541602085539,0.3878877441860775,-0.2031011261463267
15.129611893,0.6138835917536541,-0.7557249539100807,2.7597158839310554,-4.08821088936718,0.3864674011161861,-0.20367832433106656
15.329613221,0.40592604961081924,-0.3397997924474756,2.7524298234578723,-4.242791925976928,0.4231244475412713,-0.11163700689525212
15.529611553,0.09869097722522506,0.26978140797771194,3.1524311958489664,-4.462165075566114,0.3895542763742457,0.09954869577724285
15.729609255,-0.21785571385439342,0.848308864564914,3.2084017184642444,-4.143611040688139,0.31100151361878403,0.19965828016035947
15.92966537,-0.625202163622101,1.2539735669904828,3.216889085406346,-3.61463875232394,0.32964298968813377,0.21087074572717876
16.129612659,-1.1626744569428473,1.488892905469408,3.0762282692242375,-3.146858492459591,0.39009488906370804,0.2116820385031553
16.329611119,-1.7580165350465247,1.4644463106757928,3.1540272356818506,-2.680850519786221,0.40346562642753786,0.21204580798943953
16.529611036,-2.4194993952318535,0.9944771356878596,3.251401484053759,-2.345271096570489,0.3665925735462561,0.20530854504659776
16.729656219,-2.72757573190992,0.5006921228082842,3.1472545919482298,-1.9426533191429332,0.31591977329274995,0.20725612412704159
16.929612463,-2.6800780872830257,-0.16933445617017037,2.8727014657252727,-1.5399307425708544,0.30544506057106846,0.21880316892273965
17.129610019,-2.5990362012819803,-0.6303943004125913,2.7797828078802245,-0.871585964068443,0.2807133326915896,0.22683963252504802
17.329662868,-2.2159724786209285,-1.105691120098029,2.827233831277338,-0.4108770385727438,0.31793684467530076,0.24043412782635232
17.529611857,-1.6701600730353532,-1.0881683471431132,2.724934359016184,-0.014326354099151024,0.3858416092946713,0.24483642768331618
17.729608994,-1.0603331615029628,-1.1125136951044972,2.8149023657218297,0.3542842511456151,0.4001722018069075,0.23112334283317598
17.929609221,-0.5742391225507446,-0.6343557470495509,3.042407251089302,0.8437607909894489,0.40588803166724013,0.22772306198691358
18.12961247,-0.26051160094853176,-0.17115033376758473,3.1837016946637577,1.310680056124545,0.42065006658834786,0.05396928661621287
18.329609728,-0.15983048309427716,0.4173390073877857,3.2851169490079526,1.121129040476618,0.38533742825224276,-0.13132969223078178
18.529611915,0.35630808305193223,0.9120389117625755,3.136271574080679,0.6856079981153095,0.3750836373483993,-0.17299492338272424
18.729705574,0.8192769390295501,1.2920305243870338,3.234660059286886,0.30070582628342335,0.3822689698577503,-0.16564218473506848
18.929615827,1.4901812286077947,1.237528215487822,2.9238533581916792,-0.05335220773700826,0.35904477933341683,-0.1619452864858185
19.129622823,2.0217228611164217,1.04754083398191,3.0006077477816064,-0.5619937874822424,0.3438532199067183,-0.18974919493724873
19.329616438,2.475727246396789,0.73909294829078,2.7986682484973087,-0.9224306100977909,0.348540103201636,-0.19305601980403123
19.529615491,2.6349251143102035,0.25913816822228725,2.8733348986508958,-1.4058852807674762,0.35620333673360965,-0.20452373800145152
19.729611189,2.5652363172164705,-0.299902373288009,2.8559639164259054,-1.9195349148840488,0.3863021565943249,-0.21601361910583108
19.929617903,2.250947658508285,-0.8528976646868072,2.873047234661162,-2.38198181845124,0.40000071956971756,-0.20338882053746143
20.12963318,1.8536148661340952,-1.0126403049238988,2.860816626219404,-2.8203235177586725,0.4001136523362267,-0.20910058019190927
20.329657994,1.2628335227991188,-1.1354485396288276,2.6699357944585564,-3.2650639264459502,0.4054312419238142,-0.2056844032782287
20.529610457,0.6383638811013927,-0.8966498985484777,2.7700498007185015,-3.6766055766277446,0.37651747431583216,-0.20559394875201023
20.729608534,0.3235017445699428,-0.4260386897427175,2.841308957005926,-4.259513526211212,0.3905196021563099,-0.202950645381511
20.929609625,0.16635386144487133,0.16356442232172927,2.9673735967435633,-4.378852932986267,0.4781268832730965,0.03265818828963721
21.129618796,-0.14736631498561803,0.7281511671662093,3.1632875371668816,-4.273552045001106,0.33863128277332327,0.16920245474269494
21.329652243,-0.4002960963974789,1.160911136205709,3.2067357291631016,-3.8848860215183034,0.3134144008177015,0.22204667219282465
21.52965904,-0.9814698362931783,1.5048673319147796,3.134987782202859,-3.4059938141694626,0.3880927454752021,0.221195666933439
21.729611083,-1.6191572137576613,1.5612048760532182,3.0673738733255194,-2.87729445854976,0.40955915649667773,0.20742645799046908
21.929654128,-2.2062751153883426,1.2116151076841115,3.2213168495397815,-2.5502961613594897,0.38914505578839287,0.20797324733666786
22.129610015,-2.5495126258618233,0.8656870648331534,3.094099183438866,-2.0340676215856006,0.37858368813249743,0.20815527411397736
22.329612388,-2.666648979396699,0.15704566478029144,2.968479608632334,-1.612875840919823,0.3022770939566249,0.20451626049555746
22.529627653,-2.7670191797012818,-0.3472160066211211,2.856746465639375,-1.1687621893083322,0.28921124814017174,0.21126968390939202
22.729615136,-2.3691283625856343,-0.9104895554934096,2.809361886144863,-0.6235364555136484,0.2918958343476234,0.23547695452527195
