time (sec),x position (m),y position (m),forward velocity (m/s),"heading angle (rad), from x-axis, positive is CCW",throttle (unitless; -1 to 1),steering angle (unitless; -1 to 1)
1.036481951,-0.36044425088379795,0.04054400425946276,3.5691514306393533,1.2258988625200191,0.5137598795497823,-0.05648563188611596
1.1364855600000001,-0.20829175208599932,0.25178132706821565,3.7497937558227554,1.1591658388310333,0.4632769299795736,-0.11125558113072384
1.236480828,-0.0032257687475887795,0.7046374396008389,3.6531829198918353,1.0036204352372295,0.35838328592183133,-0.1581332807086021
1.336488433,0.1429879269636126,0.8859696297900341,3.6598757044396395,0.8513838400439236,0.2966214784798845,-0.1885270019736991
1.436480103,0.41698199454802587,1.2176817745590405,3.561753697009333,0.7106616914901204,0.27506544158177654,-0.20197577696284902
1.536492798,0.6503572809960448,1.488953493125913,3.377026965254778,0.35014887978154124,0.26413937498297463,-0.20902844341328328
1.636496277,0.9371429381150146,1.6397078850698046,3.269718395162743,0.31129830573933326,0.29387203471454204,-0.23211889257670754
1.736488267,1.2810426568279754,1.5593971265030828,3.126474081821696,0.05243908946256581,0.3645585704636403,-0.23542965783201156
1.8364788810000001,1.5902255364828188,1.66927122509988,3.2448972224464416,-0.16617247752693012,0.4027550065078786,-0.24199201269630238
1.936479806,1.9322884332134755,1.560638492716482,3.1987592364748805,-0.43066870826017695,0.44702098004564306,-0.24452729058329667
2.036480046,2.3022230229810416,1.3939333144947483,3.1729305212314727,-0.5391110525000121,0.5184438894877477,-0.24983148157833496
2.136488681,2.43720593906742,1.2013610353463795,3.208920324910917,-0.892995510269108,0.494844977665369,-0.2440183254540922
2.236477356,2.606768810781949,0.8641727557550909,3.2565460129755777,-1.0674401947388044,0.49210981623885064,-0.2467092380142126
2.336578818,2.7373850442144114,0.6120941884804734,3.298961018527666,-1.4003608372061422,0.49878901211008875,-0.24109496487344012
2.436477728,2.6507122494560313,0.31726145944326944,3.2858925195721915,-1.6208956459170347,0.4505552833864821,-0.24477504992788493
2.536478928,2.8449178476226598,-0.09235761503525924,3.3052608403865227,-1.8376599343056963,0.4152174666075764,-0.23060166416368327
2.636481653,2.6740865483352,-0.3413000795336538,3.3305771257941545,-1.989530360835306,0.4217035445499447,-0.229301614493736
2.736495051,2.4583466748926948,-0.617629894345498,3.2456859952409975,-2.28494004831956,0.37040197014718435,-0.2339041365587977
2.83648098,2.321153786665676,-0.9925673194900557,3.3238226716530117,-2.524539486570848,0.34085026376109945,-0.2374563158206043
2.9365608,2.1049523368921204,-1.0211915406111902,3.2286162158176492,-2.5993837058729694,0.33565660472076114,-0.2407813857605045
3.036500173,1.7742708995118137,-1.2659134403164745,3.054590302970097,-2.8892635844100405,0.3343396747602059,-0.2536120885567341
3.136479907,1.596603015905274,-1.3041850983525618,3.086946609737415,-3.064285916111897,0.3508067176865187,-0.2616584801492191
3.236494027,1.1503975269109408,-1.1880441098303336,3.1062419277132887,-3.3867563898235984,0.4038297188840204,-0.25996933383278664
3.336483636,0.9553916970365931,-1.1643377833589583,3.0147715425619945,-3.5785909426520837,0.4646127133253252,-0.265164728088682
3.436476064,0.7002201544431544,-0.9767762605066225,2.9892896176528607,-3.8473037079155668,0.496093712461898,-0.25199494356876206
3.53648232,0.3685465874086652,-0.6343526869552907,3.188968103695834,-4.0746787733090555,0.543754044737146,-0.22538614259262163
3.636477249,0.20734707115734208,-0.5891682824449105,3.2887787423562336,-4.391204644002301,0.5941504301704819,-0.11115699981748556
3.736492568,0.10443761621127212,-0.25385343768646074,3.4578777104700302,-4.301961323865061,0.5599752243876167,-0.0018064651879922868
3.836482803,-0.08241991053186012,0.11024034573563268,3.6737753289068324,-4.399823585862729,0.4708198167694096,0.06463943673215669
3.9365383510000003,-0.17164440167396283,0.4523055621379297,3.6146529485345598,-4.2556881804231494,0.3805254433978018,0.10205145049127086
4.036579073,-0.5315497416369608,0.8075083845718374,3.725205878460159,-4.087560669367695,0.302940787087845,0.1312095692314647
4.136497519,-0.6150644153684436,0.9691688429545905,3.635573978139626,-3.8956965775113934,0.2584372017101507,0.1539175132695882
4.236480263,-0.9209466710640208,1.1968847521028019,3.5607812568331325,-3.581747831922776,0.23239956603158257,0.17270832239320127
4.3364809,-1.1542685132039125,1.5041988832263324,3.3943962186309378,-3.542478659547187,0.2307110897275411,0.17833169315277128
4.436479383,-1.5485628314298425,1.3874863043497085,3.1595925170823334,-3.260195797558071,0.25762403854832255,0.18748376451738763
4.536479038,-1.8453849197090628,1.6088241422098637,3.176137069508385,-3.0546927323759627,0.29054925516783714,0.19678795573145602
4.636559268,-2.3343327670125777,1.5057620435589714,3.000488608031811,-2.785517029940275,0.307229441594617,0.2067936147769647
4.736478881,-2.4120347355428686,1.3984738757205377,3.0229475500117298,-2.5057304978628046,0.352339486124124,0.21939726420102126
4.836479936,-2.61789008433461,1.1971100677996696,3.081937909842982,-2.293051668944265,0.3999542988907499,0.23822569547146635
4.936479177,-2.944854208068523,0.9794533950472172,3.0108351635940167,-2.186908620389379,0.41690599633314734,0.23376485746044945
5.036483877,-3.051528792587666,0.6890794419917111,3.0786043121406275,-1.8351086722520715,0.4650056117144654,0.23187524555871564
5.136498311,-3.1779635563505506,0.3983622289101173,3.1046511807803525,-1.6397123121456625,0.4927473583415067,0.22580390857143753
5.236524599,-3.1770221075991047,-0.004718338477995299,3.1260737044895235,-1.4424400395695103,0.5045179628820473,0.2190279538594115
5.336487741,-2.9899579750273877,-0.2825349579788512,3.0784103515117742,-1.2296832029225413,0.5058528173310909,0.21033370220140063
5.436537467,-2.913454478711637,-0.5323225249955872,3.215343432670716,-0.9314063622348085,0.5327554914994973,0.20301657909636975
5.536481303,-2.6698744662182086,-0.6917275292641641,3.2638196545075315,-0.7935857334560292,0.4662183752922148,0.19576553270025418
5.636479571,-2.396629957964142,-0.9378855067809002,3.1593457927848747,-0.5412434066417608,0.42904313017355156,0.193696292196744
5.736534795,-2.261045939239365,-1.1247037666294637,3.2956443270406868,-0.25621594029353595,0.40924936971695763,0.20164998839342932
5.836479573,-1.7982128045136012,-1.1408626162266855,3.2330663073556356,-0.09650872181979316,0.37285456294509595,0.206109684455194
5.936503377,-1.572484294895824,-1.340853374043222,3.1792541505069742,0.01616677912102185,0.34247399498056263,0.20931391105035232
6.036477791,-1.1972453079288339,-1.300805652258378,3.083500038272264,0.25255383669723996,0.34639451611274313,0.21941812058822405
6.136488968,-0.8743901079109745,-1.1487887915301862,3.0436923572727954,0.5421948407334933,0.3636797562997273,0.21519298913215068
6.236479498,-0.7780509544262404,-0.8017163003802144,3.0323568219938632,0.7862519840950561,0.39945623855406126,0.20565028663878954
6.336582038,-0.4980348862328515,-0.6161758347133942,3.035432505201337,0.9115460914328949,0.46945458419161656,0.17921357690103454
6.436570276,-0.30613956864088865,-0.3833343754601141,3.2652003834859933,1.2377495773236842,0.5771436063976907,0.05751716051258986
6.536480165,-0.12117026007322285,-0.04196627259888883,3.4187933126980097,1.0921954436127859,0.5485007743834945,-0.02921599075108749
6.636484682,-0.1640715641450628,0.23870720420489192,3.656727575428907,1.123870653389191,0.47825324883713194,-0.08502149064142789
6.736562711,0.21595545136084235,0.538649522847503,3.698047410934067,1.0540730379507954,0.3967716727389893,-0.139174223995632
6.836479741,0.25429075285032116,0.8957789821405169,3.6743479945551862,0.9762301377063293,0.295171425203612,-0.1792643301946566
6.936481795,0.47598730172506654,1.1520625383200778,3.508311803960566,0.6847925877977574,0.2654141597259345,-0.19439297169118408
7.036479067,0.8253342915874846,1.419166714047237,3.4362031741970847,0.4529547308176855,0.25302487747047336,-0.21333524377245153
7.136486689,1.093662388178249,1.4788585588529763,3.2138566766584526,0.14271056927449421,0.26726156663640616,-0.22101945414785631
7.236481917,1.4232226844005638,1.5584719252624006,3.3478061739356098,0.047557379566348305,0.31720613991937563,-0.2380748547505212
7.336500152,1.7795759139254017,1.4861506919026546,3.288190218171808,-0.0712558788290665,0.3827579612506922,-0.2486040353679779
7.436480285,2.0543785736010163,1.3751293121442483,3.1862901271630166,-0.42070760915778005,0.42458673990018003,-0.2533100987309987
7.5364816359999995,2.3065299762708302,1.285842545521623,3.1671726317908684,-0.6666343976809461,0.46741422505999736,-0.24755011562344328
7.63648384,2.617228403600299,1.0146779426311774,3.169748564582282,-0.8584590539434189,0.49866627938315566,-0.24984877705908384
7.736478901,2.7579545729695067,0.7552385916427639,3.229802123273471,-1.098371040923302,0.4785687068915533,-0.24587891576085144
7.83648002,2.8141262706619936,0.40557656082627636,3.3654437154149504,-1.2974528974545023,0.4655564391396134,-0.24690826011813446
7.936503337,2.897513411558151,0.17210692363337426,3.2921980293543505,-1.521810244927863,0.4551262655692685,-0.23786106075422014
8.036484262,2.8652064586018873,-0.18540507158910266,3.1842063894685455,-1.855999859110313,0.42423057999293307,-0.23291552087318243
8.136491312,2.7035778879534966,-0.4917743326817593,3.2787417112978297,-2.16898391017654,0.39981945393480384,-0.22624093414990148
8.236595822,2.6097640612512825,-0.7548012532655469,3.2661818071887785,-2.293001776603789,0.38712316356505166,-0.24051418656610565
8.336491748,2.4528638941856586,-0.9977873602151719,3.1097795219454656,-2.384145749676953,0.34578251991843045,-0.24150702953820924
8.436494044,2.120858096892519,-1.1581189868716837,3.1752685779800873,-2.681150268424349,0.33431164783003947,-0.24434261594737708
8.536629696,1.9363610968455685,-1.3322082436008567,3.124608824681236,-2.8523086439908716,0.35091111313286943,-0.2548632731971615
8.636599541,1.617269501690265,-1.284654310887899,3.059340199269613,-3.192975819656792,0.37344116576393477,-0.26178108711359216
8.736577082,1.2938592382577658,-1.2982532471193158,2.9681796303205426,-3.3624983714492442,0.40942637498628576,-0.25580910657599104
8.836478758,0.9558854706165004,-1.309358397609269,3.0618872557823416,-3.628430183503907,0.5036531029047138,-0.2658951734454694
8.936479131,0.6006806769482574,-1.079127767594577,3.0478219830179945,-3.8739939079178503,0.49882009720439496,-0.25675560771534706
9.036481695,0.5925522125942837,-0.83698414388574,3.095906583428767,-4.0363607074230705,0.5537704357911969,-0.20291722333545278
9.136581835,0.2944519587568186,-0.6542137096287209,3.2668569732510506,-4.428201405117273,0.5837955835972315,-0.12279318187845738
9.236477701,0.18798850099514547,-0.2728805438352767,3.5747644754324197,-4.362354609881548,0.581587156006966,-0.005593461942769172
9.336541681,0.1104326254936383,0.05867580379034101,3.767164670058793,-4.384577286645677,0.46490352918449285,0.049469349297916056
9.436486192,-0.16803284561290815,0.5417381377237436,3.8693627410741214,-4.168204626371232,0.39048813646432207,0.09627936929623339
9.536478436,-0.3568327700143162,0.6994404896291202,3.7897104878394003,-4.055286310924991,0.30523671789223067,0.1319576569126356
9.636481626,-0.5470775638609778,0.9712507677481228,3.5886228209067204,-3.83549029227286,0.23783838045237868,0.15926420596009697
9.736547634,-0.8133106486955309,1.2917412160552597,3.500213922229411,-3.737100487775018,0.23208790766011855,0.17410898387928686
9.836531071,-1.237599450028326,1.4081846714160762,3.3666336342474255,-3.3487538589954022,0.22655846481105002,0.17661876182587447
9.936479021,-1.4897805429594408,1.4395062794491682,3.2916447618354763,-3.2426115856042657,0.25179359434168624,0.17954919055487023
10.036482049,-1.8915284718654728,1.3923510379556994,3.1796806271785734,-2.9620913992021203,0.2928257992626094,0.19368317042464295
10.136479573,-2.1126322904921615,1.4577587384579387,3.0339634961251507,-2.7913564600757175,0.3146523192483551,0.20087920647194143
10.236481356,-2.4468013601514498,1.2268918435512113,3.0343934814490856,-2.550230429557347,0.35189925743935563,0.2113411378914488
10.336477498,-2.574473784820218,1.0894686099517306,3.0172633672627622,-2.2830927040364446,0.3960554644094532,0.21877141766152605
10.436493937,-2.7699585750798437,0.954878499547696,3.0241651976415747,-2.1078515100525905,0.432662252770317,0.23931662567030557
10.536482879,-2.9930291616838134,0.6375762573976809,3.013707539900775,-1.8549202375435383,0.43176996004242235,0.22386784786002642
10.636491334,-3.0294663342651846,0.31918586156210754,2.9677342864870306,-1.6347576805937478,0.4847444428541755,0.21146473164335242
10.736530334,-2.9874026071300515,0.10382214569358371,3.1163930054729287,-1.4094591554193812,0.5091646881609899,0.21517375848640863
10.836482686,-2.8994594518683146,-0.38327367784752303,3.24485192795977,-1.2320269060457016,0.48988023026995925,0.21054945790387153
10.936480591,-2.7421994335892563,-0.5369024135703746,3.2838133621475967,-0.998596409682225,0.48290613871498483,0.2061679802476726
11.036483469,-2.6480611903187627,-0.79695529196883,3.164838726108815,-0.706132500950262,0.46748426327912335,0.20220079549511805
11.136571576,-2.401222522867124,-0.9933506957548089,3.211897009902631,-0.580867096926091,0.4386454186275838,0.2043679813122588
11.236573663,-2.1274905925380136,-1.2569199567300307,3.2077151717982195,-0.2777007132553778,0.40058509371949425,0.19897840327275124
11.336563581,-1.7886295754124863,-1.2418066373053485,3.1689683307365,-0.15320712049026325,0.3880547324957025,0.2144377340803967
11.436480397,-1.5166541143239978,-1.2334414653696595,3.1361796206958794,0.20775513692554842,0.3521953545618695,0.20921189626378703
11.53648734,-1.1473995832505859,-1.2334229458070907,3.134707681500447,0.2917049847206735,0.34423342491917525,0.2103114966115332
11.636481645,-0.7937684199449985,-1.0640470818030858,2.9457839379184674,0.5432175843232107,0.3617312734213417,0.21696762592896884
11.736481924,-0.6941803914285514,-0.9565568867906642,2.9705902688110735,0.7986964465497346,0.394881442743848,0.21958618043704423
11.836492999,-0.4680891987260714,-0.6351904744170673,2.9625288137727175,0.9874788572710455,0.47905783575055105,0.17702669433255364
11.936482534,-0.2881601323129254,-0.5392917770814402,3.2152762426975188,1.1796694870223356,0.6052286154509612,0.06333520954091425
12.036482166,-0.087936030274965,-0.14785311701364684,3.381393251629939,1.1131234377184216,0.5622070822392095,-0.037469566300864024
12.136487064,0.026704848359911545,0.14119095204195312,3.544219376721996,1.098212345878814,0.47653911949127586,-0.09341482478859331
12.236540179,0.17397198929396482,0.5008136395859951,3.6214355351331253,1.0966516813417289,0.40062365277230166,-0.1437634955804
12.336486734,0.3683375894903921,0.7322914583614257,3.5157233324855555,0.8818770589298506,0.2991629306532198,-0.18261610609127352
12.436480673,0.6143060945380857,1.0145105003626074,3.5325171622259672,0.6554918686062924,0.25615334516256794,-0.19641038303210068
12.536481653,0.875688980972267,1.2559707674274225,3.5137140846858594,0.5510160929355087,0.26171203687216554,-0.21280695322317666
12.636480499,1.0824278229000948,1.3764483552369005,3.1850725634589114,0.26889971797977064,0.26166223296972857,-0.22144353625373647
12.736479254,1.5234914648215545,1.5224149760871675,3.200026006405839,0.12037401263784174,0.3163533192031617,-0.2324671184022634
12.836496747,1.7051031344912744,1.484205986766518,3.135185819144673,-0.19152344935263876,0.39071888801061216,-0.2434522657902254
12.936482576,2.109816360515263,1.4226476633615754,3.1703599218005847,-0.4201986887667668,0.42857964164921164,-0.251801457844754
13.036476616,2.3777674565391655,1.2607295782144,3.0999306357700274,-0.635960169384713,0.45562340304758364,-0.2550446607206954
13.136475286,2.516520333806379,1.0874765010903678,3.175814610752141,-0.702316671549867,0.4784211119880423,-0.2543930057458535
13.236519888,2.7613139847159895,0.7044275761832418,3.2927106570608644,-1.1097702218563636,0.4791533207917811,-0.2513256541034808
13.336479352,2.9452511597833877,0.3711961919666873,3.3391281213232498,-1.257312801588063,0.4622296834185535,-0.24928327074528442
13.436480742,2.924156090232484,0.19685255100105678,3.200870626126079,-1.614267829129707,0.452373848381199,-0.2413942029206062
13.536569848,2.8729628531010127,-0.21029429075958553,3.25141857820202,-1.8045154254574283,0.43272712936245133,-0.2380676736859517
13.636479002,2.7842798362084213,-0.47704960595161017,3.2744539800786763,-1.968395301020073,0.4028026586220674,-0.24056173607433923
13.736482999,2.691336266922511,-0.7216092520152316,3.2643389802314875,-2.094019454262406,0.38261198930724294,-0.23961809011770038
13.836480679,2.529426428425422,-1.0126253094238766,3.09107273755378,-2.55352770062365,0.3788036338399905,-0.23973719626241496
13.936483411,2.2818707957017543,-1.1377192581716036,3.2450515073030046,-2.747925933203649,0.3563361704979433,-0.24276520801157378
14.036484646,1.9270854076265236,-1.2960003781152905,3.138096946755009,-2.865560412099963,0.3567552856112996,-0.24248167863808212
14.136499307,1.6761913779566804,-1.3572927919774724,3.144456123513869,-3.019590213638373,0.3916829212401273,-0.2592548123031875
14.236478718,1.2818744148294117,-1.3841899117250591,3.094548553307617,-3.3057969428856993,0.4117078717900213,-0.25842603907615064
14.336483839,1.0919826689983074,-1.2175515771419458,3.02563189638417,-3.5503903519564433,0.45329769878788145,-0.2582990356089344
14.436503633,0.7842504304290803,-0.9949522598600103,3.21396982535541,-3.914058777271091,0.517247652479266,-0.2600800796840345
14.536500599,0.4321521376112955,-0.8791643961165441,3.2126947190785797,-4.018058565048722,0.5448493006658425,-0.20843343924626206
14.636478863,0.3255121859815126,-0.5337605355287359,3.311716830510213,-4.342726362856332,0.5882442109573146,-0.1556812353428047
14.736550225,0.29326653739060404,-0.2803136359851139,3.5852559136318205,-4.366176861540701,0.564616716960216,-0.021605118502364136
14.836486441,-0.073661567227844,-0.049615431941232,3.665010439477053,-4.275267530149184,0.46896608889213987,0.05851347175425402
14.936491886,-0.04185385211230132,0.44033422793151855,3.7592633486965,-4.123933188774259,0.368643510532049,0.10062799375495146
15.036479578,-0.3596137419446572,0.6919280957608877,3.6854617497735904,-3.9765094122577938,0.32804561586653147,0.13071965094960442
15.136497666,-0.45190892725944354,1.0587718808348239,3.6344081609504837,-3.793526327503714,0.2521476745949646,0.1527676049035638
15.236530318,-0.9047785409228305,1.174475130029351,3.614654238809774,-3.5978113969986465,0.22616100260010683,0.16898549023349949
15.336497096,-1.1329072795251203,1.2964420377851011,3.4483015320892694,-3.4741300767351255,0.2445842991449312,0.1747951102721573
15.436585491,-1.4113238149654503,1.4556727040181376,3.255299817436623,-3.2198540991589972,0.24771218148810492,0.17646433490304092
15.536481167,-1.9039250030958779,1.4200413040990847,3.1334797476753367,-2.989150664299921,0.2774626328768338,0.18821663217239937
15.636530049,-2.095867912666671,1.398964033676232,3.2055051903325764,-2.7859757102554243,0.3326845407819395,0.18412356213318257
15.736572319,-2.3779378596515897,1.3664027555700222,3.0056592190230695,-2.5607138277377803,0.3603547338356621,0.20095123065076295
15.836489873,-2.6687792189395196,1.1401707122132998,3.07333780623888,-2.3241312479280243,0.3927916784645248,0.2139371379909121
15.93658433,-2.869130719068719,0.8141434691488065,3.0165486697513235,-2.02571174267294,0.42856235124981273,0.22237478821458417
16.036486078,-2.890970341392334,0.49874900640434694,3.0490666620101097,-1.9684088268384712,0.4348909351395337,0.22457333123014347
16.136479188,-3.055150106072382,0.23614364111361988,3.1605976257172803,-1.57204545968772,0.4590116865737192,0.22191710324756805
16.23649128,-3.0252596787417727,-0.0731591062159183,3.135619549988048,-1.4546150148395693,0.4811011933945168,0.21396265838259326
