time (sec),x position (m),y position (m),forward velocity (m/s),"heading angle (rad), from x-axis, positive is CCW",throttle (unitless; -1 to 1),steering angle (unitless; -1 to 1)
1.022747874,1.9392313942046593,-1.0473835594815524,3.1422178317127085,-2.982422740227655,0.4674550333989574,-0.20468842012595653
1.122793033,1.6277531321102954,-1.0720423619301305,3.126116974383461,3.064980560632272,0.40240813970286354,-0.20619452714280478
1.222743381,1.3224832515177618,-1.0259741637012758,3.066971325218038,2.8297452922716473,0.36950555482443664,-0.20288609864647225
1.3227514390000001,1.0434355746229989,-0.9123972980359689,2.9774873570900917,2.597837834401715,0.35604475798170443,-0.2010428768833822
1.422765134,0.806053567099329,-0.7402903384708713,2.9072633991666823,2.36620984634705,0.35382929711561956,-0.20897166284854435
1.522753991,0.6171850049384693,-0.5191363834226624,2.9618992129764345,2.1491663208222698,0.46045927617993493,-0.1611354285448506
1.6227418720000002,0.46531221869209977,-0.2559148251036686,3.128659393510144,2.0155179622327086,0.5254642257036416,-0.08045374802255902
1.722751266,0.3273772222859919,0.038490555520189776,3.3411982515583087,1.980696198379112,0.5463139360763564,0.01962009536316057
1.822891064,0.1792994087018902,0.3487444595012837,3.4885379472036404,2.015780610230384,0.4559745860268676,0.08291068546916985
1.922740981,0.0067604727707554204,0.657105500263129,3.5783956371275503,2.108720222361879,0.38030853357170114,0.12925037113395157
2.022751348,-0.1982206440446519,0.9470331694702844,3.5605047304570725,2.2573951380500077,0.34119586419050757,0.1648958308216471
2.122752986,-0.4432200920582602,1.2002062028483576,3.5047752971094464,2.4673969230007833,0.29747551598536354,0.18713470095060084
2.222750841,-0.725602148973113,1.3969940462839474,3.3990703961384683,2.707440672345593,0.3078862654544811,0.19361598593026033
2.322753711,-1.0358478124943375,1.5237792548305604,3.3324343355811967,2.925910178656659,0.3677096109987004,0.19560824730182155
2.422754057,-1.361412083410339,1.577518729948249,3.2927456910497575,3.13457249991979,0.3983675220101951,0.19620997641413468
2.522748267,-1.6903094004835717,1.5586720146622224,3.2915073821537533,-2.930350188402702,0.41560227124107246,0.19834486212571661
2.622745809,-2.007589115974138,1.4686103767570378,3.32257220868554,-2.7050138100504104,0.4530768702854878,0.2045086945494923
2.722751959,-2.2979569628226586,1.3110950361457707,3.3167141173072654,-2.5009735228441916,0.43890059008653215,0.20034437890219786
2.822747238,-2.5498609327466117,1.0938013204611876,3.3360688511032905,-2.298150296298683,0.43335939940329404,0.20389450437892537
2.9227456810000003,-2.7529196436373278,0.8273986603530956,3.3676532770472574,-2.073383261118804,0.44731579679419575,0.2102071260894802
3.022747345,-2.8937864873712655,0.5237310762657845,3.3395553666981903,-1.8455985983587049,0.3859545677015872,0.20476255737397922
3.122745715,-2.962892578933227,0.20037180760296805,3.280147781309506,-1.6282960367486292,0.3474363276541787,0.2047896474824699
3.222746789,-2.9608979182541213,-0.12470788290286781,3.2107056264081653,-1.4071076594199559,0.34213199788729526,0.20470019634251363
3.322762674,-2.890639340101857,-0.4360247569492199,3.1621316722410513,-1.1879201063518667,0.3125551250230177,0.20795008152874664
3.422745361,-2.7554473525558003,-0.7173854062126714,3.0929253187813726,-0.9551557806765381,0.3087759698227743,0.21880053949486722
3.522744997,-2.5627347457211704,-0.9542124526551747,3.0131546750126295,-0.7286116845216813,0.3375617008998835,0.21611625242993648
3.622753844,-2.3234948396773576,-1.137615941305603,3.0301681290940503,-0.511611261996754,0.3634680155140539,0.23022050942365466
3.722784711,-2.0483865501126632,-1.2607314630058764,3.037464556710147,-0.28089137491850935,0.405813504781011,0.2402526723965196
3.822752164,-1.7492988008354582,-1.317270187216582,3.0801451789520593,-0.05223677150924467,0.4386910801388334,0.23685827414848704
3.922749528,-1.4404985944953521,-1.3038115131354246,3.132510875858256,0.18186362790710003,0.4656011288444462,0.2385898837762856
4.022748591,-1.1380759025951057,-1.2196340004267063,3.1686874256628714,0.4149490728778973,0.45906989049627167,0.23519319494650487
4.122749585,-0.8589507645037646,-1.0682772183113014,3.194046205373409,0.6450569878629324,0.45753619959013786,0.22662727513952344
4.222743347,-0.6175341421669397,-0.8571189556624558,3.2284139154192455,0.8725074365701321,0.4730852800702364,0.21999552370874667
4.322748074,-0.42143026907982084,-0.5952347487528395,3.3330291318018044,1.064622898971067,0.5358987281266008,0.1279582183595085
4.422748107,-0.262190953748014,-0.29370175796645687,3.48688897978314,1.1310074734282678,0.5482357426859024,0.02801927873358576
4.522749835,-0.10671306138025634,0.02969452197364412,3.648083597226953,1.0993212511100974,0.5315290234574661,-0.04473289234355962
4.6227482470000005,0.07451850325482628,0.3530300065401914,3.738857158860858,0.9875821980693675,0.4542415887816264,-0.0954571912344797
4.722740312,0.29498718029269205,0.6548312979069053,3.712380646874022,0.8310557091281235,0.3856763067332853,-0.11965934074157401
4.822791695,0.5550321382572664,0.9155619191774786,3.6548197006083574,0.6476605343012263,0.3565835623310867,-0.12789219557737289
4.922745437,0.8499454360177753,1.1217270283495386,3.568353673647288,0.4538025590931364,0.3506125705970202,-0.13263200478255543
5.022746334,1.1697808634851716,1.2625942454897452,3.435145471807658,0.25743536563273683,0.3270497964257526,-0.13290959388544643
5.122741498,1.5008451194103283,1.3343462277283116,3.341574371162744,0.06673497160008657,0.3057145031423094,-0.14383844684885747
5.2227479070000005,1.8285595742535419,1.336654235239722,3.2341082202465823,-0.1336398499695153,0.29959473881677373,-0.15352391876989394
5.322769981,2.1389267578889717,1.2719910283803708,3.1237577859021215,-0.34414987166553074,0.29073453119702936,-0.16351439674981036
5.422744664,2.4187767143625845,1.145510437149571,3.0428987057991685,-0.5631371490442411,0.31586563133391976,-0.17549390237408788
5.522742052,2.656834875600371,0.9639219280022431,2.9696885994114934,-0.7841203719111108,0.3417911723121416,-0.1958603106659612
5.622742344,2.844389575152713,0.7371135698321968,2.9354171003540097,-1.0118251699389407,0.38355227918368023,-0.20755698348123774
5.722742544,2.9724350630137124,0.47497186310673795,2.9237873542062482,-1.255600252281775,0.44750160867702726,-0.21710167316039336
5.822751677,3.0348983482950924,0.18837773614397077,2.9514999707673804,-1.4988129969623145,0.48525678645430925,-0.21578193533734522
5.922744364,3.028972923330131,-0.11006530798018692,3.012158065957434,-1.7285230466017527,0.5010287414213462,-0.20925013292857167
6.022743519,2.9548747578493955,-0.40529145897614177,3.0858097718231963,-1.957530271728501,0.5121137863020463,-0.2064525330504354
6.122745116,2.8145720293649035,-0.6807420166824208,3.110507895749596,-2.1928273434843604,0.5260807400234203,-0.20443487228229634
6.222801812,2.613195314056717,-0.9191292069102469,3.1420619749015897,-2.4269126021540113,0.4983398137323313,-0.19467729929020403
6.322746164,2.361039264089166,-1.1066160849103905,3.165862255158082,-2.651915774161695,0.5013012133581674,-0.18725622209899076
6.422750445,2.070572707025251,-1.2373194009328392,3.201329327909494,-2.8605859081678724,0.48064610814073383,-0.1853489323290606
6.522742326,1.7587103546896108,-1.3044482098209884,3.1896993877470092,-3.077302775638489,0.4178619893728316,-0.18398265830928345
6.622744009,1.4427538223674696,-1.3021769134964136,3.14678654983728,2.981335907792526,0.4026113163742598,-0.175243283138724
6.722751004,1.1393361398746116,-1.2313619167150847,3.0992314717883747,2.758062441601643,0.36994402467945653,-0.1854506433611521
6.822748284,0.8655418960959896,-1.096676583112353,3.0165961669971058,2.5255161229511587,0.3486981852783188,-0.19358531753688787
6.922742795,0.6359753906485142,-0.9065464268208892,2.964684544481285,2.2990096388315044,0.3885569254353527,-0.18911017219324872
7.022744459,0.45511491637499923,-0.6697435954831198,3.0145999873399507,2.093963435878148,0.4602197954184173,-0.15723777650554097
7.122743281,0.3169173159907024,-0.3947348679346328,3.1682173463888157,1.9464827219846756,0.525896439183784,-0.06708575699725718
7.222747565,0.19653014965591706,-0.0885381211545462,3.3717593486969,1.9153832763990923,0.5227516133079344,0.027103180719953966
7.322742334,0.06729472517647639,0.2320863599980025,3.4988128162301533,1.9564346051787975,0.4657845557205117,0.09571583550825846
7.422750038,-0.08727195056773165,0.5505728781626908,3.553861983171891,2.048403137676757,0.36462543939018555,0.13559985982154596
7.52274576,-0.2768842646973726,0.8511866694800669,3.543834291202357,2.2068278013797253,0.3056401481890672,0.17524567824117152
7.62275131,-0.5087698518576742,1.1139226766400512,3.4754779672416682,2.4328874236905897,0.2820043677004518,0.19757333897790744
7.72275189,-0.7809587549749681,1.318596099036614,3.360730751392787,2.684611922680753,0.28555413646710265,0.20224793163080057
7.822746675,-1.0825244308863333,1.4505306321292704,3.2593884106074875,2.9169799081975456,0.3400013285979067,0.19989600622633377
7.922746852,-1.3996265514080597,1.507912246055274,3.2218588688359677,3.1267444720489204,0.4147673525764021,0.1960607593394646
8.022743724,-1.7218655916583203,1.4916143097594665,3.2441370615907967,-2.953350409632094,0.43950485401223205,0.2030346790889231
8.122752081,-2.030784234359574,1.4070008076245941,3.153944741276199,-2.727558903803384,0.14302455140711498,0.22699453864645816
8.222750943,-2.2942324995677783,1.2613243497717814,2.909783136741617,-2.4540810659949566,0.20488605276515906,0.26517273813544867
8.322747555,-2.503282345877979,1.0574710384740167,2.9670517013762203,-2.2096428123106757,0.5229022682906463,0.20584667941677207
8.422748336,-2.6666458363817385,0.7997513894206277,3.13389734212788,-2.0285125240309725,0.5400890216549763,0.1805802953736928
8.522740202,-2.781303726219011,0.5009664404655876,3.253364774640756,-1.840477712325776,0.46621482430485167,0.18857932473218025
8.622742555,-2.8391014688230105,0.17905108960301938,3.279164761372892,-1.641647594508821,0.38906000330940155,0.19811943816211236
8.722743663,-2.8332812914227308,-0.14794838399375987,3.252742106397794,-1.4080522634895376,0.3199437691117665,0.20581469791354004
8.822747694,-2.7590454322956894,-0.45947252986956766,3.162740370406742,-1.1622304909400551,0.2914990933481364,0.20528385397198617
8.922741021,-2.6201479293315875,-0.7376068700407266,3.0795788451384523,-0.9347414436276545,0.2922297837132196,0.20598051641093773
9.022757839,-2.4244533093112963,-0.9692938091881141,3.0073202689259295,-0.7162875820504054,0.30812357520393246,0.21066880443745403
9.122746813,-2.184484837366408,-1.1466879694651781,2.9771266007590245,-0.49663713314845315,0.36200755852195227,0.22874053324568971
9.222793156,-1.9106548303872428,-1.263351988066399,2.9907718184792613,-0.26056592606558415,0.4123573860831307,0.2371432669093661
9.322746663,-1.614623523088632,-1.3128129280204948,3.0082653698881274,-0.02217683269210053,0.43678356552655423,0.22843486412889222
9.422745534,-1.3101821318049989,-1.2921347243378443,3.0785460128623368,0.21316193757487098,0.4541836198979699,0.23291468559851122
9.522745383,-1.01463703846072,-1.2003992361015132,3.1127239126309236,0.44370884798751636,0.4731066712190124,0.2275429180976111
9.622797899,-0.7437322934719799,-1.04229457295666,3.165355825670936,0.6705644777582064,0.46139905670616377,0.2212419557919701
9.722747169,-0.5100791507590905,-0.8256174381493974,3.230580528317735,0.8937221176556626,0.49294107826731887,0.19531580983928148
9.822741557,-0.31954122938237883,-0.5590937552740827,3.33564141450457,1.0733892682455828,0.5369865876213188,0.13044943230001743
9.922752505,-0.16447385365490572,-0.25521397382743327,3.4934956996134714,1.1408131992422432,0.541508856936422,0.026795197655644514
10.022751926,-0.014224207736837016,0.07067488677826281,3.6418423858233964,1.118237789850225,0.5127002512452831,-0.0449188788878995
10.122749696,0.1592794481131278,0.39687650214075865,3.7367978268460362,1.0124750682574368,0.46229274842695117,-0.10076073109136104
10.222751638,0.37223346143981906,0.7024671408214191,3.7183030587320545,0.8482444090304593,0.380032634102528,-0.1257234135841299
10.322792065,0.6264463813685262,0.9664892024100459,3.6287833026952736,0.6569999170637864,0.3434667003544135,-0.13175703886649937
10.422786363,0.917205430114555,1.1740874187334005,3.5295634472737643,0.4560683848654624,0.344863658077855,-0.13732046869726813
10.522746128,1.2334393671431088,1.3147761967340132,3.4096887913028455,0.2622227981194775,0.3151282038001627,-0.13678239719289811
10.622755142,1.5614714826078637,1.3871999810799311,3.3200762242713497,0.07333380965559164,0.3123305209987446,-0.14103322325483314
10.722752776,1.886738324337085,1.3907006732007066,3.20078591158352,-0.12952355928662962,0.3082054399612623,-0.15726621528203558
10.822767295,2.1941234177603524,1.3271970688989034,3.093244334732995,-0.3472432132622131,0.28601687933989894,-0.1725684122757299
10.92275248,2.4704529782936278,1.2001709909940166,3.0147570897011033,-0.5691297460422498,0.3160460541809959,-0.18247137864226134
11.022822587,2.704427176882894,1.0179420483314454,2.959715485227506,-0.7962830526786758,0.35858707125773404,-0.1973482905582216
11.122817908,2.88841497662638,0.7901020436347961,2.92376916264586,-1.0204946958061745,0.402243160231399,-0.2092739393699117
11.222746251,3.014268684577317,0.5269230523760866,2.9197928926663264,-1.2602311266650725,0.4512448685780001,-0.21303601774767575
11.322745485,3.0759256170408187,0.2390177624268458,2.9701713789652615,-1.4916772742911673,0.5085559039808651,-0.21806099019209424
11.422754009,3.071991996566732,-0.06076644697976406,3.036020254608686,-1.7136118065660588,0.5096725981755973,-0.2133186164912059
11.522747269,3.0009147034782764,-0.3578726014033029,3.071065031398782,-1.9460361118215472,0.5143423626456292,-0.210499524288274
11.622753031,2.863660986464025,-0.6357323018385695,3.1089179207121176,-2.1858424211237875,0.5278316043093049,-0.20604141613200247
11.72274929,2.664615633860308,-0.875181561402625,3.1108854263656003,-2.4321320384390637,0.5055711829623546,-0.19980429671493397
11.822746205,2.4130591229209544,-1.0644638321023088,3.164960826864121,-2.6513807531689535,0.49597316421419124,-0.1837816694183031
11.922754643,2.1234113674627446,-1.1962100990763207,3.199404720021467,-2.8556708974772,0.49935645942028095,-0.18366233871294058
12.022812865,1.8106120173952915,-1.2646325976831947,3.1937789400904744,-3.0652036369741773,0.43825485864021235,-0.18535073101341273
12.122749702,1.4921952506790725,-1.2656542675894373,3.167768180174028,2.991165007271088,0.38016907562319135,-0.19050976981312287
12.222745843,1.1873467294566078,-1.1978562826633312,3.0902052549432746,2.7641783059657574,0.3645682987510974,-0.185528802658734
12.322752383,0.91160627870997,-1.0658972208235042,3.0415989828205863,2.5393940586025847,0.35864799461157204,-0.1911371449667444
12.422792521,0.6795903229088212,-0.8781918891016253,2.9610211450685164,2.3090305386992545,0.35579267722075575,-0.19702317342802317
12.522746381,0.5010023523737285,-0.6448607961339493,2.9512150382704756,2.081619275556587,0.43343469319535166,-0.1798591173456761
12.622746905,0.36698210570662393,-0.37279929735590617,3.1286120057654037,1.9374736500441516,0.558830170552766,-0.058380140882617226
12.72274442,0.24792244436837108,-0.06919951234363847,3.3640768077612844,1.9209574730974346,0.5377259545134498,0.034458184916193825
12.822751863,0.11594935172741394,0.2487662666968137,3.497754134220735,1.96564759066016,0.45642162219857424,0.0903781003827293
12.922760563,-0.04093375816750115,0.5651132909125736,3.538763110828451,2.054471181274898,0.3766110157651419,0.13721741833700957
13.022753945,-0.23216630883334102,0.8646770124183144,3.525511241245704,2.2040791693993143,0.3160811070780277,0.16992537418829964
13.12274876,-0.4635958288030025,1.1287010922409746,3.4938733457851954,2.4097200672386774,0.28590173101825456,0.2034685066171029
13.222748855,-0.735433611343783,1.337441364215091,3.3921796218320677,2.662716215875274,0.3001938337883298,0.21041958517094345
13.322744382,-1.0377316943101609,1.4746492255545274,3.2820301947348858,2.9136405445468228,0.3330565450424275,0.20349785163685175
13.422751323,-1.3553434597680853,1.5351148605387617,3.2231250292207214,3.1413992279971192,0.3949136213727561,0.20064641069594422
13.522747577,-1.6758926878804836,1.5193592023990325,3.2334140009214005,-2.9338002413210167,0.4568971396931817,0.19909909392202121
13.622751798,-1.987631625727354,1.431358620231695,3.2635597494607267,-2.7275176243692987,0.45580586363616094,0.2020410951027346
13.72281058,-2.2769858669210024,1.2763736428556645,3.297819152362095,-2.521159178819906,0.44604892422879283,0.20305839553313915
13.822746588,-2.529911855039322,1.0620949984411787,3.337583154380857,-2.3047674686050867,0.44514950248786955,0.2112069901487004
13.922750979,-2.73433186333629,0.7976242407964839,3.356992059976367,-2.0740933526303182,0.4141336145596398,0.2056436211117197
14.022749667,-2.8746308255123467,0.49570747455367253,3.321778556387158,-1.841927238277181,0.384329717663224,0.2095101688881836
14.122750263,-2.9422476968439617,0.17459126623376658,3.2478973699303477,-1.6224742489863024,0.3677224076526359,0.2008426818316542
14.222748855,-2.93739183737005,-0.14956859910690126,3.2423476648939284,-1.4019156506665527,0.3392072732697392,0.19832573489363284
14.322745107,-2.864636248511722,-0.4593246738228038,3.148789371184153,-1.173888987857503,0.32495231932753477,0.20378045489665536
14.422745506,-2.727725394701693,-0.73804363442383,3.074560751212615,-0.9470046383418481,0.30663331035557645,0.21253893403630483
14.522752901,-2.533952766893043,-0.9716222409817592,3.015337761850878,-0.721850253771331,0.32532254627218593,0.22325276844126735
14.622750249,-2.2947863514319593,-1.1501919946961796,2.9806000141799105,-0.4947528347261165,0.36788855270927195,0.23120943802039512
14.722743628,-2.0212222656187397,-1.267989311157002,3.003015614062211,-0.2682017062797616,0.4306867695015535,0.23473469228737914
14.822755847,-1.7232486577587804,-1.3191709642524183,3.0608545947027257,-0.040000956510895545,0.4489095726589212,0.23823916546582324
14.922750464,-1.4151727275848787,-1.3010193603972953,3.123576739358867,0.20305746377285894,0.46146068333038454,0.23677931758927312
15.022749146,-1.1150429995176316,-1.2114247529533686,3.1514830123898663,0.4395986119888978,0.46719346850686105,0.22638654806566863
15.122744991,-0.8395229864974786,-1.054396067775659,3.1904248837926024,0.6593849165593236,0.47469173757735705,0.21907792869684103
15.222744539,-0.6003513621951381,-0.8385149176333693,3.266664438871451,0.8695559976416068,0.4836128785325609,0.1937994712819577
15.322747308,-0.40476241902609333,-0.5722115793934361,3.357511983852662,1.0580486567857548,0.5008599900165928,0.15279474243299526
15.422751819,-0.24707688713953427,-0.2676177916291285,3.500752873497912,1.1457828137598465,0.5488006003057148,0.030656876096438253
15.522744722,-0.09604003961282631,0.058867907885807993,3.6588893275556287,1.1174087120379264,0.5083952831966796,-0.05322537569873577
15.622745943,0.08051259960816445,0.3846583040717796,3.7519808666930645,1.0038207888149078,0.4466721154050373,-0.09996266831740006
15.72275445,0.2968177124528997,0.688567361838418,3.73057205953826,0.8463338789960728,0.40061868137621354,-0.12456398974713877
15.822756286,0.5538978955541265,0.9523827375232873,3.6493055389043567,0.6660808602302404,0.3557858202625042,-0.13190249328239365
15.92275941,0.8467584250265778,1.1632864633415405,3.5672130405339124,0.47733221044843693,0.34166390820003706,-0.134452519141753
16.022746464,1.1651525221192531,1.3105946362486924,3.454870767321424,0.28372541272311125,0.3311111361814774,-0.1438695197350403
16.122752849,1.4957684736879955,1.3899682944775338,3.367555561429929,0.09511114837408571,0.2955069391539202,-0.14852802001577325
16.222745956,1.8251797125749392,1.4004842369697088,3.2509390594709684,-0.10387024826321278,0.2923205510307053,-0.15976419149627388
