time (sec),x position (m),y position (m),forward velocity (m/s),"heading angle (rad), from x-axis, positive is CCW",throttle (unitless; -1 to 1),steering angle (unitless; -1 to 1)
1.036872434,-0.5913455533711974,-0.6796484630008491,3.3578715860328443,1.283375956834919,0.5906928233319911,-0.040417852805582216
1.136884484,-0.4824795279896249,-0.35284648577480643,3.480082353423311,1.2001260604230983,0.47030482957274866,-0.12329015072842282
1.236873717,-0.3318321143196178,-0.03622480310072874,3.5242935898239596,1.0230802501383935,0.39090719109106253,-0.17305901980782637
1.336871365,-0.12791295703922798,0.2485406677945088,3.4895306384347906,0.8091938157496789,0.3600111303153357,-0.1791379394716279
1.436878602,0.09870482412530812,0.4619346093542971,3.4455000370403353,0.6135405140331482,0.35961572195362107,-0.18678976896605773
1.53687344,0.4189225340170068,0.6550724864737748,3.374126176161199,0.37648661820954227,0.3499324782274692,-0.18031543260831787
1.636877728,0.7059920033270493,0.753395524885049,3.3597361570938573,0.19369189603221054,0.3497134410220364,-0.17055066623636808
1.736872345,1.0364789462655626,0.7969151400075042,3.3150347413961905,-0.0013623051941858626,0.3398886673492725,-0.16716512724303667
1.8368686840000001,1.3966275540476685,0.7654336013312796,3.2742741776171504,-0.23074753254119032,0.30195760109790754,-0.18106782306342184
1.936895408,1.6746736423516895,0.6785751023034945,3.213803379458643,-0.4219023927462539,0.2849276772777908,-0.18142742877432
2.036869422,1.9514042342507003,0.5233954198205633,3.1321344349603946,-0.6371659787019187,0.2934529864622845,-0.19161041517106886
2.136868259,2.202425320723313,0.2934312263293806,3.0717889770705025,-0.8744949052992689,0.2589391642125765,-0.19508898167012467
2.236869504,2.3717228015163023,0.04389087695264912,2.9890767303805434,-1.0957234065004193,0.2522387704753689,-0.19985340739300722
2.336868715,2.4786763518282906,-0.2311253587014967,2.933687866303469,-1.3170507323430938,0.28348715278815834,-0.21602043909646068
2.436871437,2.518501663067254,-0.5164377711460447,2.8612866188738932,-1.5553858750554455,0.26779417638261127,-0.22624489478444468
2.5368696660000003,2.4951889671964578,-0.7703197600634415,2.8259646435864663,-1.7707582431788498,0.29568639052783624,-0.23019007047915854
2.636888214,2.4066627250449018,-1.0359505228481856,2.797136905431984,-2.013244803631696,0.341123971004844,-0.23817191259846698
2.736887854,2.255878475079812,-1.2709167309844849,2.8068379102171432,-2.2590868275351292,0.3546139442784282,-0.23375475772592377
2.836890166,2.051493534467957,-1.4655099498880806,2.8487200848097585,-2.5024565203791176,0.3722881142532982,-0.23898281487458115
2.936872039,1.8035236659159652,-1.607342337613873,2.8830587350436154,-2.7405044847347577,0.3823056199154361,-0.2374819729738155
3.036877382,1.526239264147336,-1.6871909860982404,2.9003361304878816,-2.9861244724081675,0.39724667748415693,-0.23348674746242046
3.136870645,1.2342388909389896,-1.6991313410753337,2.950926120569454,3.0498097446380643,0.39871180917143095,-0.22678050416648896
3.236871895,0.9448871543042054,-1.6405871824884057,2.9768929996103175,2.810698218798799,0.4060613205047289,-0.21148981719272297
3.336902125,0.6726222886573267,-1.5165252150733928,3.0198869461734748,2.5894806324529536,0.40453237049880886,-0.21030548219527792
3.436880545,0.41010699365383435,-1.3119936749915144,3.0374213136554338,2.3447917545562174,0.38063357627238764,-0.20934202867957408
3.5368589850000003,0.2191538302863192,-1.0739173780126021,3.0766980054766413,2.124836937053448,0.3907978141052433,-0.19682461455968508
3.63687851,0.08905747617399433,-0.8269501981484549,3.1354380937824446,1.9606253438605272,0.4051083506030992,-0.13811585870299778
3.7368363870000003,-0.02104484240248516,-0.5243732508650785,3.2929442032629805,1.870684579589042,0.4184813145077633,-0.02175306645932661
3.836889053,-0.12574390139358416,-0.20467424174047993,3.4018333801659306,1.8992224751730737,0.3630096421515041,0.07785287270934564
3.936887737,-0.2562046725170469,0.11533786090149858,3.5044049558646875,2.010106430433615,0.3237727439478914,0.14001434014973824
4.036885863,-0.4502185231607136,0.44335421245302603,3.441993926105805,2.232766418819129,0.26307654858114066,0.173895387051451
4.136870875,-0.6770349728482675,0.6937782955028146,3.323460007200929,2.484462348126301,0.22406868385355794,0.18561225598925035
4.236868928,-0.9433324118393037,0.8786771072579258,3.1923842581069155,2.7149373666423933,0.27070187018513814,0.16884095962532014
4.336871762,-1.234578842528366,0.9925448438096712,3.1258331470703324,2.930459593571656,0.2933330563982769,0.17060777829765345
4.436869261,-1.508017662456706,1.035596415907245,3.062305556107983,3.1229911100830376,0.31527520357797456,0.16984394836298816
4.536869246,-1.8424055406984898,1.012386825358695,3.040427566537349,-2.9274417082498516,0.3480886454761938,0.1782404622758287
4.636871024,-2.132220376240631,0.9235380597286191,3.0284066132893637,-2.742074010020064,0.3094415535255374,0.17985281118771654
4.736872373,-2.3691335028220606,0.7935158865565634,2.9692740653378356,-2.5233423045765955,0.28739007806244526,0.17993600971126722
4.836886818,-2.61403129221048,0.577189543736246,2.9426200519743255,-2.274387029808149,0.2932709578034989,0.18099639328479247
4.936876615,-2.767996043926321,0.362039614344333,2.935617107502926,-2.073959475588613,0.28931692275658666,0.1970643924255681
5.036868766,-2.890426127987542,0.06672676577567013,2.8944338423341076,-1.8203563486402754,0.28806512319873084,0.20310817876480802
5.136871863,-2.9320247601655143,-0.21718074991688563,2.8568087720382973,-1.575727741147762,0.33484487304104027,0.20938679172535085
5.236873698,-2.9108543109492473,-0.4732178200784183,2.8426453775981924,-1.3492512898450202,0.3131218707954956,0.2073169905429246
5.336884967,-2.824029138222333,-0.741857059302148,2.815170848007734,-1.110123510024809,0.33154529475247946,0.21174534845970386
5.436893407,-2.6742013471783985,-0.981440941114726,2.8471347540683127,-0.8820070334275067,0.3604469784427421,0.20380240537567318
5.536875369,-2.4699555819227976,-1.1824385616572644,2.884257033181534,-0.6560644446610354,0.39835448654309463,0.21613896705601218
5.636875504,-2.221215526228797,-1.3345051878489338,2.962905689791835,-0.420977205171796,0.3971849160651274,0.21816718922259165
5.736872637,-1.9098362691493496,-1.4315538855821126,2.9974739727658197,-0.16230172795392536,0.42022969143560224,0.2017167960305211
5.836891092,-1.639512109461965,-1.4513508373471686,3.0350024873158805,0.042046813498108994,0.4160987061211576,0.20648621569041847
5.936876771,-1.3373864812735257,-1.408198429938913,3.0709070714240956,0.27011533926950954,0.4031632158242597,0.2028640327695948
6.036873629,-1.0498115576704008,-1.2981951194373889,3.0976761695575914,0.5042467085345097,0.39160392825127843,0.19286197982400957
6.136871612,-0.7701767420051016,-1.1062247551126456,3.0944382755158046,0.7513317236817192,0.3890687605376412,0.18939846666032117
6.236892743,-0.580002708335465,-0.9025758757465364,3.098552320907764,0.9476675259181682,0.36369154511355256,0.1815996190310491
6.336879672,-0.40617081267877525,-0.6095956212486721,3.1195061957977415,1.1803378069003267,0.3758243163105923,0.146181462713024
6.436877679,-0.30876705522578685,-0.34467291168800196,3.152813235472858,1.2959649255364984,0.4021947271279543,0.05025108487762471
6.53687957,-0.2221922586070467,-0.034893091802153754,3.2656578214163066,1.3027031535316562,0.3884416499807728,-0.062479876292024346
6.6368786029999995,-0.12129110725895978,0.2796036342535946,3.3366759768940994,1.2158410750186603,0.3573519734160012,-0.13346470705408925
6.736881549,0.017858334384682345,0.5818386538397585,3.32346571266977,1.0492184869973764,0.3377448175750852,-0.18269157991644322
6.836921257,0.20588698893930546,0.8542891823575928,3.2906159840365197,0.8406363166705415,0.31720789418479883,-0.19857833035671857
6.936873221,0.4679331113508884,1.0993764237412214,3.2596496140628646,0.5955528025042932,0.3399444905015106,-0.19446625068803894
7.036898935,0.7176161570404037,1.2479716418529652,3.2299216894837026,0.39521383680113314,0.36701140070021343,-0.20152139634863084
7.136870699,1.0530872454177107,1.3563830295338564,3.2167507853631907,0.15323823565516914,0.36443754645708637,-0.19731066119614268
7.236934152,1.3719206991389188,1.3802835317340376,3.204078363669103,-0.056870593396615716,0.3679833377119254,-0.1941638169969389
7.336872952,1.6882949357785126,1.3359736382461027,3.202384338178547,-0.2607662880848272,0.3767948013260515,-0.19439947592916604
7.436874474,1.9876984725320863,1.2269729106492633,3.1843710052006236,-0.4501791020502258,0.34490998553448987,-0.1964365133877792
7.536872387,2.2304577293839665,1.077446779718937,3.164854339514106,-0.663609353029532,0.33080426925476686,-0.1958019228042393
7.636873543,2.459861178326358,0.862342635593323,3.1491594280614947,-0.8731493989277582,0.34350612697783656,-0.20542810831113512
7.736870454,2.652556556847024,0.5782630181479311,3.123689385993472,-1.112419133739631,0.317720301771452,-0.20937163759031852
7.836869746,2.7626596469620406,0.2906087855381385,3.047358558099644,-1.3444249951406049,0.3003028704468596,-0.20882952014584763
7.936873,2.8020821970251304,0.02013824966923137,3.042199934940862,-1.5499975233308974,0.3175354270209561,-0.22118908741444274
8.036874169,2.779420118000262,-0.27916841850297897,3.0056192860537827,-1.7817462511073396,0.3352119607642566,-0.2216625376740037
8.136891492,2.689618901899373,-0.5638201588822286,2.9881127986368763,-2.012821683485645,0.33628185492279145,-0.22470553728101325
8.236876926,2.535961151872146,-0.8175038297844309,2.979684700557555,-2.2535638915496548,0.40684865065717235,-0.22663024996766784
8.336923994,2.326121636138708,-1.0292571866731413,3.0140771240838986,-2.4815717084579605,0.3885855842684767,-0.22543905722133623
8.436886889,2.072166839450909,-1.1903625944306415,3.029619794699755,-2.696393136258817,0.37123759271355594,-0.22185005696297388
8.536871046,1.7870990270999425,-1.293304386282848,3.0469704204558488,-2.91997667931268,0.36144390997631587,-0.22944152195810505
8.636898492,1.485508382105201,-1.3298146009786418,3.0256982446627245,3.1309089004990565,0.3746217247523319,-0.22890177729351033
8.736874411,1.1826118475148606,-1.2978083934077744,3.0363445478585542,2.904933622612096,0.3467905760040866,-0.22110687292813003
8.836873713,0.8962080196454073,-1.1988030447000353,3.0317377436628314,2.6689125513437477,0.3464039333955614,-0.22183712712899428
8.93687444,0.6431379331638019,-1.0372321064946761,3.002849000701321,2.427187728528939,0.34561260822390016,-0.2240660456611092
9.036874782,0.4363681635380603,-0.8220697792215559,2.968626517301252,2.1991709847020546,0.3548946380521656,-0.21089469164421998
9.136889796,0.28343496404604557,-0.5660312390381941,3.0203466190818586,1.9761144148341752,0.3726701342102625,-0.1583258280288393
9.236892241,0.17266782672200862,-0.2774271831979051,3.1712668364540337,1.872648914459041,0.4464242820580001,-0.01855128014737107
9.336875737,0.06582920170673641,0.033236617556503714,3.3513296929662597,1.919777035109138,0.3926316945201086,0.08568677178350637
9.436875467,-0.07473921546363099,0.34216742319709953,3.4205287341817856,2.067621204035156,0.3517811208364695,0.14498173944192452
9.536940075,-0.26110034771466895,0.626528960284886,3.3801379288019606,2.25812839376697,0.2794618928363846,0.16826033309121433
9.636886716,-0.5186951686229062,0.8890782847527675,3.299383530680433,2.50667621910286,0.2582191829600672,0.16659433932977588
9.736882843,-0.763259657463079,1.0490936190110831,3.21854631021833,2.7240908876351,0.2863237755158463,0.17289362509124398
9.836885454,-1.059514814370032,1.1604159876372224,3.16424113376463,2.95028518377701,0.3232704765997618,0.1696571261272689
9.93687268,-1.3683308710291198,1.200153730530858,3.0968235274988527,-3.1273680696149033,0.33514969670552475,0.16358909768941934
10.036896296,-1.6771625898204883,1.1705724459934783,3.094552136706913,-2.9145540357130137,0.3305531466259466,0.1689869577782371
10.136887281,-1.9714170176395753,1.0755985255587852,3.0804579106329406,-2.693760202018815,0.34221566103813483,0.17166346477290767
10.236880773,-2.2364800405792247,0.9211865982060374,3.062229679667478,-2.4850214090694154,0.3018975106883144,0.1682130978884051
10.336874402,-2.4603859534018775,0.7153661365532207,3.0423490955789014,-2.271878876724046,0.3017732278217717,0.17355525350993148
10.436876314,-2.6325087220302708,0.4687298663063189,2.9991439756277742,-2.04709502858662,0.30574994750628126,0.18299228531333978
10.536895842,-2.7439296315233266,0.19290642899892652,2.9590287088270233,-1.8236656108344658,0.28939732730975226,0.18695124111604486
10.63686873,-2.7908837567556324,-0.09708979990283408,2.9351698157625106,-1.6021393855337946,0.28337628984921875,0.19230103666353118
10.736884598,-2.771523626554323,-0.3859477808336973,2.902003134222111,-1.362738429809043,0.3095775908595137,0.20414529931821368
10.836869453,-2.673502341826495,-0.683925968818196,2.8614807810700267,-1.1021975112645033,0.3217987095946605,0.20815268000662746
10.936890497,-2.538193928997144,-0.9005194662336623,2.843876509417814,-0.8936627268260235,0.34660794039112724,0.21292162966883418
11.036873397,-2.3136253800392756,-1.1197185224308386,2.879421068583238,-0.6367139253802186,0.3703086002023986,0.2079431245282933
11.13686995,-2.0907159521159997,-1.2531801216280516,2.90973707257552,-0.42277007194204164,0.3963366147220474,0.21622724426772372
11.236879109,-1.8134704164438145,-1.3433008797431676,2.9367260264843345,-0.18922057418574378,0.3938095174123913,0.2123668084283598
11.336884367,-1.518596972688188,-1.3676495585079562,2.9878969696448854,0.04178290176434358,0.4064879406067039,0.19918183117080063
11.436892701,-1.2219337505451733,-1.3238358664952978,3.0241523759692774,0.28230120901901173,0.4029380024078953,0.20118448929450106
11.536874334,-0.9138794605417435,-1.1980861468545334,3.0494301651486517,0.537163226360841,0.38311730494436796,0.19386879578441837
11.636876767,-0.6890847682999691,-1.0405148113355185,3.059552918692859,0.7287164713899079,0.37679203714057896,0.18770504216206796
11.73688026,-0.4790760611088959,-0.8171314549164658,3.077828794084471,0.9518538768232452,0.37597852312185354,0.1865481498896745
11.836873481,-0.322701751202291,-0.5525813322531077,3.065729706823047,1.1782222908122233,0.37122326105868403,0.15261208532844306
11.936872228,-0.22177855685840336,-0.2604279656534317,3.1016813919868973,1.3352211557866118,0.3756181083517192,0.054449888112766465
12.036899734,-0.15316518843382834,0.047840988880659456,3.208694037007385,1.3645422364939928,0.41777222857192026,-0.07544297066297195
12.136880064,-0.07251983934277698,0.361758900622597,3.2658629972255433,1.2671884263785813,0.3552383209893414,-0.14731189274992923
12.236874537,0.04997440078608427,0.6626544519170795,3.248398722061042,1.074052886629139,0.3276142391503005,-0.21204211818337235
12.336881374,0.22798178794987062,0.9298798340391423,3.1908556061627182,0.8329572794003913,0.3447904903933532,-0.20731653911572367
12.43687603,0.45758406690658426,1.147885459533894,3.160844370056763,0.6003213597258997,0.3597210729616514,-0.20553170834080678
12.536889256,0.7296877539062219,1.3081776298511678,3.171352677186332,0.37971742905347555,0.37532631911287484,-0.1882106289888334
12.636886957,1.0309049186468415,1.404056968513639,3.1725856899453366,0.16839777789472654,0.39012833306256517,-0.18677406978319322
12.736888209,1.3791461978485389,1.4315305121157245,3.1994978328245813,-0.056545662449683974,0.39727930426188934,-0.1942794081634031
12.836870197,1.663384094242134,1.3945003407524572,3.207045411157152,-0.24448997643791867,0.36678545526838496,-0.19382099889792742
12.936871445,1.964854441841059,1.2910731620737763,3.201893610694731,-0.4567933219527829,0.4023578620809857,-0.1995153497024749
13.036886178,2.2628485997132928,1.106319711332716,3.1889557635698735,-0.6960032737417603,0.3470395726113987,-0.19972735416476414
13.136871917,2.467943271932714,0.9072266285603761,3.174016620450179,-0.8905961522361961,0.3128907382899804,-0.19881706754013695
13.236869925,2.6442970240805677,0.6473579825295195,3.1277879440506213,-1.1093341362972644,0.3133626037554895,-0.20348666838844043
13.336873828,2.765777890147327,0.3296566289751328,3.053844502363721,-1.3624873642175115,0.32138884327364003,-0.21014301622253642
13.436868528,2.8024568715659024,0.05783152530623363,3.041775958197674,-1.5691169867271413,0.31134673391782663,-0.21314238731389498
13.536872831,2.776849321244156,-0.2417903855822195,3.004029770871433,-1.7949123785958323,0.33117162455825944,-0.20693005190790037
13.636874941,2.6840227298553865,-0.5252364650908539,2.9909374978699947,-2.0255556052316486,0.36259092627670964,-0.21888231928395288
13.736868893,2.509188228651565,-0.8009227554161642,2.994000934608484,-2.2834010787085597,0.3640446455607122,-0.2215514288766422
13.836893117,2.316761166003523,-0.9867898737565549,2.9925521536759967,-2.493098916751223,0.4226133005517792,-0.2197718005825465
13.93687206,2.0335032043178796,-1.1576463387783236,3.0364910490636907,-2.741328334530644,0.39996302376050874,-0.2209318662245899
14.036871473,1.744507545231194,-1.2498210583653704,3.035975422891558,-2.977586528484755,0.3629207385149466,-0.21981323599172817
14.136869532,1.4416394325830137,-1.2730542002436815,3.0561934349367443,3.073091743291922,0.3457996803367733,-0.21288820048348508
14.23687014,1.1716239278092033,-1.233781678844727,3.00490466138033,2.862622216828937,0.3698344919284624,-1.0
14.336885168,0.8947546772476889,-1.1241558122549786,2.9752533611748504,2.5989141601516277,0.34885097666623205,-0.21192753253447214
14.436871555,0.6524581961315359,-0.9519006252644696,2.990018203767027,2.3751204737453744,0.34503813588879356,-0.19017418928434116
14.536871746,0.4377202675502065,-0.7032022715068507,2.989467352878703,2.1455528120362173,0.37263693344498233,-0.20196394557240385
14.636858651,0.29019194636902657,-0.4372612365071284,3.0846121780323124,1.9777865364128004,0.383846828627791,-0.1205534963887417
14.736896232,0.18110276906136452,-0.17427272228269478,3.2291461450196013,1.9303273279907054,0.3929884431268259,-0.018103765871913476
14.836886497,0.04117632447016421,0.1615422823071064,3.3714810282053196,1.9862137936702902,0.3923020214167618,0.07304554527038076
14.936881091,-0.09934749965001022,0.4325465341633101,3.4135394313761935,2.0855164439716583,0.313601587883008,0.12456149182840906
15.036875111,-0.2914631647976217,0.7151341980344692,3.422013746945773,2.2427196771480142,0.2677217006439083,0.1615760004877122
15.136870495,-0.5518385653224376,0.982757145803152,3.391949926466163,2.4788315467828097,0.24731568197843576,0.17424949455580008
15.236878504,-0.7984426469213367,1.1495611545378852,3.2707206261008914,2.706721887931603,0.2614504426898217,0.18881207377112078
15.336870623,-1.0964286292345535,1.265681492430482,3.1504129936249665,2.953497915999157,0.283629840453993,0.17493680128912611
15.436869065,-1.4354601065956336,1.3046903672014616,3.083778521032293,-3.081258344461633,0.35512476386623965,0.16998467671417436
15.536872067000001,-1.7409121906181193,1.2639034386008474,3.0754919481526355,-2.879967684213281,0.3486735085377196,0.16428285319633976
15.636867339,-2.0299589620630027,1.157986845670391,3.073514903997052,-2.6656248311489295,0.33601425441659816,0.16942088783758916
15.736871106,-2.2886492242181724,0.9927519832992866,3.0781456905833635,-2.4433378832522528,0.3158724323341766,0.16163728666597188
15.836872658,-2.4847831232087296,0.8012496068635645,3.022626944057136,-2.2415556744172083,0.3175173331418312,0.17376817144964052
15.936888941,-2.6652110138242247,0.5229217555921374,3.012202605137077,-2.0047324862382174,0.30156037899259225,0.17289647525783103
16.036867925,-2.7648355558276876,0.24092618071549765,2.9643375090780624,-1.7877946236034843,0.3102162734840459,0.1700907168165341
16.136868906,-2.8012057069862655,-0.0535070249781765,2.9630758792092626,-1.567244958579476,0.2914065988048647,0.18076902583997287
16.236888449,-2.778003011601363,-0.31666423977803576,2.9432457172857442,-1.3606035936605205,0.297400922045735,0.19722994512617972
