time (sec),x position (m),y position (m),forward velocity (m/s),"heading angle (rad), from x-axis, positive is CCW",throttle (unitless; -1 to 1),steering angle (unitless; -1 to 1)
0.128514306,0.014273564084917346,0.3841037251478749,0.009876121761551709,1.6778760826291597,0.12002676229218298,0.14323412461067575
0.22855129400000002,0.025893200692095455,0.37114621132387654,0.09628832335018613,1.6842464086240836,0.75,0.15542225490295575
0.32851162500000003,-0.0011243915603075588,0.4436967044768695,0.9168880189124081,1.7274069582066653,0.75,0.1981287396762746
0.42853718500000004,-0.03554855890474087,0.5610395967070008,1.7823097903038574,1.8713661885808488,0.75,0.2561183110074609
0.528505275,-0.14035599631473591,0.7874042645530718,2.493618179981965,2.0924522792419076,0.75,0.28162867147999476
0.628512441,-0.3123072692948418,0.9818478991090247,2.9467581772188525,2.3439937375099937,0.6031385409059733,0.2551330265093723
0.7285218050000001,-0.5477069024316914,1.1625043684944485,3.0735523793511423,2.59449116485238,0.45275652167049907,0.23152363504508428
0.828511949,-0.7967698068048966,1.3173326175895683,3.118400238168586,2.8494751665821605,0.4203114332359034,0.22586544619323928
0.9285303650000001,-1.1159089690956723,1.3604369662917601,3.1256594893537057,3.0811722502667203,0.4050531344247476,0.2145415236160644
1.028519091,-1.4241323194148103,1.363236905823111,3.144699633116208,3.315117583304729,0.40845561055589696,0.21128815298476006
1.128507066,-1.7268744210093023,1.2812568101595692,3.158864096783268,3.5541685930335616,0.3961437790845676,0.20988790238942484
1.228515574,-2.0345502004239298,1.1114022437406155,3.1129448376603914,3.7943038600751255,0.36740051503674154,0.20484788228804227
1.328503801,-2.2719856531579627,0.900218580055644,3.1115530900010215,4.031209765404236,0.3698243279764249,0.1983780801527918
1.428507919,-2.437570509397198,0.6843691898608818,3.0998325753251734,4.208682947160065,0.368157623758229,0.20499901974433954
1.528495742,-2.547673508487353,0.3587222135843631,3.0683214081314265,4.4761589848603744,0.33406352024776054,0.21297068349450526
1.628541651,-2.580276496402541,0.07451672003057075,3.0427775843316036,4.686918598455944,0.33038372087003665,0.21053333118144585
1.72851068,-2.575510645961472,-0.2638661528135442,3.029175915708126,4.953149404248929,0.3529630523155757,0.22258249856070894
1.828520525,-2.487852546115918,-0.512362158151405,3.0086133650325992,5.174015575746036,0.359112127609074,0.2265832896260365
1.9285156200000002,-2.3342142906998955,-0.7553584865371968,2.98279540011742,5.397856308586705,0.38755521717318964,0.23534954214348042
2.028524007,-2.137800884384227,-0.9796448171561505,2.998522196149702,5.658909076945341,0.43169454724056,0.23320811696448837
2.128511164,-1.8826342279606263,-1.1358218828209379,3.031483560125768,5.875938990140331,0.43534713864451857,0.23226628354436846
2.228505804,-1.5743252306819653,-1.2223739835894456,3.089469672867294,6.11995124309784,0.4343498405902522,0.21330522753016584
2.32850814,-1.2718294425397594,-1.2526725638065774,3.1242298287919477,6.3515649609811735,0.4573720376743429,0.22456091600428932
2.428514184,-0.9600794502907575,-1.2058203335948119,3.1207927149357397,6.591148619341821,0.42393860023269303,0.21557407899545264
2.528516733,-0.6641540736178126,-1.090888109466733,3.1578882672923307,6.8297049481006775,0.42237559436954925,0.19923792021387798
2.628517336,-0.4232697304091512,-0.8995890764268782,3.1424815962302026,7.01696557190464,0.40078976190777077,0.20090260341583271
2.728510855,-0.19109803407216389,-0.6470266472834635,3.1837371905653304,7.2630060625089,0.3988400635054977,0.192231884897884
2.828546511,-0.044276179468734064,-0.4150442086779914,3.1766506515867325,7.426771064779624,0.41424791428067537,0.13727772595143475
2.92850953,0.07288104088902204,-0.11545260653316611,3.252346952684071,7.563052310610327,0.48941791698330006,0.006964746220969116
3.028516812,0.16188584605521975,0.20625731116818666,3.3809384475810997,7.515403020525542,0.4509348599009298,-0.0874806150951108
3.128522684,0.3174807061730451,0.5326912454130196,3.4555706462663935,7.368984546480643,0.40239136180514745,-0.13797088459299545
3.228531988,0.48697833530830376,0.7970180117725627,3.4519750041905555,7.164025636370126,0.359296160980066,-0.1625867190503532
3.328521625,0.7168695417794887,1.0455277515849495,3.3743240518768682,6.955175184718489,0.33704614981507447,-0.1718325700389153
3.428509348,1.0150919967518905,1.259623921622287,3.3303846121021583,6.7328781237268736,0.34270843646950383,-0.17229644724392826
3.5285004090000003,1.3059493637531823,1.3999190386844804,3.274744545243389,6.519951673594814,0.3676257465007144,-0.17414537598395824
3.628522973,1.668221543087608,1.4236368328759696,3.2684010347980164,6.261520816568686,0.3544939426064837,-0.16719340965771445
3.728500092,1.9989740564782896,1.4057844767768164,3.2462637446926585,6.073790964441875,0.36710767399678573,-0.175880094953138
3.828502952,2.2761425556152504,1.3228096579980337,3.2416935871967247,5.878250013541744,0.37786522963664226,-0.1852920250225757
3.928564561,2.5445683686352183,1.171037173999918,3.2151285880519658,5.641802436323735,0.3670102119402367,-0.19133085621048326
4.028509862,2.8048069996737985,0.9324204556518042,3.1928936260451843,5.4097383234647065,0.3669793478066225,-0.18740228178207202
4.1285102,2.9902911818063185,0.6814206891046178,3.2149780685872633,5.173029102400018,0.39969482200117146,-0.19800371126493369
4.228513594,3.0920436379327247,0.37590502239000356,3.1684350438062174,4.942409474732518,0.38506308393878386,-0.1989974640661496
4.3285058880000005,3.1345460594310364,0.10043764129689614,3.183431563973132,4.723759785455066,0.39217874364351674,-0.19477522149016088
4.428506015,3.128826107501833,-0.23739325766819616,3.211624095558235,4.484254485131576,0.43588740158084477,-0.19502006123613447
4.528511742,3.0142560448872278,-0.5829310335452206,3.1984495388026213,4.23542919909659,0.43550965770814004,-0.19489419535846966
4.628535667,2.8659104162289584,-0.8154231005761885,3.2343557895868984,4.0462237228277935,0.42720331151323476,-0.18848112799238728
4.728509798,2.638149867794859,-1.0481600146897465,3.264211495928713,3.801317623195935,0.46627277224801494,-0.19173013507719128
4.828508772,2.3779034083397774,-1.2453784526525047,3.2747264999217207,3.583830383445029,0.43266515855355264,-0.1849816299602924
4.928515452,2.08313602356847,-1.3407725416741247,3.281457984832473,3.3561393215979143,0.4112342203228483,-0.18076549388453025
5.028575773,1.7131162780668725,-1.4082757096024496,3.2747113136599033,3.122730430749045,0.4035590386831126,-0.1780642938121728
5.128515216,1.414955074062117,-1.3981931564563208,3.28002133034503,2.934726273505593,0.38536390541784155,-0.17007243984328732
5.2285178,1.0770851486016908,-1.2773060994019694,3.1408451405214843,2.6618783814664946,0.13974274129058334,-0.23024647808412874
5.328509707,0.8589274838042833,-1.1484642027925949,2.940159696278325,2.4034929582893234,0.2579037414199555,-0.22488873199890974
5.428534866,0.6388739245293664,-0.9441171276448538,2.961684848652133,2.1714400067317796,0.46286523710236704,-0.15701243146271823
5.528499051,0.47237053751591074,-0.6361569660775744,3.127916931786771,1.9896698860899074,0.48692091565584095,-0.10960048259521364
5.628509113,0.3616169793696437,-0.3749253858510139,3.3103349189724787,1.8870670010803863,0.47013955535935115,-0.03847054438867383
5.7285283830000004,0.24767271283752926,-0.057315874674105934,3.4873525355660475,1.9000869306428914,0.46285598352262225,0.051592877979892586
5.828502402,0.12045128355032404,0.26587657499326545,3.599634866246235,1.9833084173623645,0.3918195867315346,0.11135527441995748
5.928515234,-0.05303731068106703,0.6457392640027048,3.658505753037004,2.117878990824838,0.3145072151476264,0.14561051015311907
6.028505475,-0.26490290460664895,0.8827422428697311,3.613383425295914,2.3002185245737494,0.2759108518274698,0.1736760029018278
6.128504732,-0.5176074001531562,1.1286906978615137,3.5033842866817135,2.5523501129200024,0.2553270185537812,0.1831907515242044
6.228505766,-0.8350660481001254,1.3379411793465512,3.338024788913486,2.8031885388366753,0.28183427967849367,0.1774842413149042
6.32850642,-1.1101420491737926,1.4140815517778416,3.24904298645408,2.9926099816216496,0.32032363191757673,0.16448743985679914
6.428494681,-1.4636583254332027,1.4632090601085117,3.199239514919083,3.239186541874147,0.3679902975255773,0.1675130843608535
6.528498475,-1.7637092180156526,1.4052773055039287,3.184474996705026,3.4399801215962067,0.3665380435181836,0.17475554974100238
6.628509677,-2.0790083503524186,1.2623053548513377,3.1827627512986276,3.6444110335961217,0.3439839251896154,0.1740193734042816
6.728508152,-2.346658844116697,1.1005263407893369,3.206679708508734,3.868532873937301,0.36413024600009647,0.1812777117122889
6.828505742,-2.54274391440384,0.8824747508116872,3.1637595528690294,4.088090175834659,0.33039369308607996,0.1900549696713398
6.9285016630000005,-2.6894889815525844,0.606780901625756,3.106699827915318,4.318157590290004,0.3302350286995348,0.1955191054328647
7.028521569,-2.7890308530899084,0.3324126749870773,3.0990815585308926,4.531203164279464,0.3680383146856651,0.194461621716327
7.128509204,-2.838274500036484,0.027500169905010436,3.040268565575407,4.763811947479394,0.34622043010730724,0.18897815811729246
7.22850944,-2.788718411317775,-0.26299692232531424,3.055740769622549,4.986017529467729,0.3697613466117142,0.20725495650410272
7.328505416,-2.646739440150205,-0.562468257000515,3.070196045812308,5.250656991374406,0.39022210031146376,0.21503283049542563
7.428521351,-2.4836229867407047,-0.7946973373173422,3.0279409865277684,5.478521066420483,0.40135119727821916,0.2168376011304149
7.528547302,-2.251164430226973,-1.0050043098474504,3.0838443273320526,5.7344365312314265,0.42134362377621987,0.1977471371395367
7.628510087,-2.000050346603452,-1.1679421508235488,3.102756973140776,5.926692977459569,0.4580351934872706,0.20611920640597858
7.728517511,-1.6984674791168075,-1.2298915522385434,3.185768993360914,6.149376366569133,0.4414592511846856,0.21604018331625294
7.828508004,-1.3588576462839808,-1.2515302067229128,3.1801944728376683,6.410444209515378,0.4267045491840872,0.2064228373696674
7.928529026,-1.0653973651637187,-1.198080676073756,3.176065576472483,6.62747726980126,0.4292378716483631,0.20525363333584104
8.028557337,-0.7806993460809857,-1.0737309740118774,3.186326078942884,6.872937040973209,0.4015609511746382,0.19243655719725286
8.128510888,-0.5340611371469297,-0.9141313160579765,3.163711566354843,7.082011445329079,0.3924322716799001,0.18078388590266647
8.228506,-0.318839467735765,-0.6590702431095988,3.143866885265438,7.292393618488451,0.39942750857681164,0.18747952909050208
8.328521655,-0.15444424685847502,-0.3478955589866148,3.219702608579578,7.499769676540908,0.440760305608665,0.094683160910932
8.428538514,-0.03750204560573979,-0.038439471921918655,3.330922943336433,7.550701576173498,0.4589503268035127,-0.004622633918894786
8.528523909,0.06196527765979083,0.2817056541102553,3.442549527855242,7.503912547547191,0.4591114666618835,-0.09345192929970562
8.628527964,0.19229376556526406,0.5640212043351632,3.5083876601827564,7.387830788837364,0.3670502115115235,-0.14315407163792415
8.728513476,0.36352818606221554,0.8769916688588832,3.5273345269945953,7.213854723609842,0.39090388898513545,-0.17448994554272235
8.82851341,0.5872477796242151,1.165113528760472,3.5158759988668358,7.03632777286413,0.3506073166562477,-0.1850244303432939
8.928524634,0.8622665051825174,1.369018197817055,3.5311923248582064,6.862282583664801,0.3252663961005224,-0.20146055046328554
9.028503575,1.1937141274287115,1.5489689971913163,3.4476039551254893,6.614063586782718,0.36557128800208216,-0.21754255930152197
9.128514997,1.4903003859093653,1.6648284600542138,3.332414408000281,6.375658204898666,0.3476953105173568,-0.2223351497193377
9.22850444,1.8121079137026586,1.6443375899958186,3.2585436183052368,6.1307310588631765,0.3613287587919402,-0.2143140934449347
9.328506728,2.1269626455508885,1.5853911861232637,3.193632599753898,5.876482382950558,0.39728536159869493,-0.19559282329992103
9.42852113,2.425172052340163,1.4214224770389619,3.163930387888795,5.669485688900451,0.43328856377527664,-0.19178023146445822
9.528497738,2.6777476467701367,1.1936622833602741,3.1991084795412172,5.432929219068561,0.4391300750668675,-0.1992722490520126
9.628507923,2.8586462176832783,1.0000824836288422,3.226839229509152,5.225484877633889,0.41804474395157104,-0.1903361048591838
9.728508146,2.9935270627660766,0.6540369839038223,3.238716223588808,4.974157543925644,0.42460008958604967,-0.2077061906053923
9.828505969,3.048121024180461,0.3418357397726025,3.23868554748155,4.758617127885659,0.42379435827398326,-0.2073684552302764
9.928510383,2.999585558608314,0.03506561089064178,3.266919226546967,4.512922578815382,0.4087594026250652,-0.20014246483009157
10.028506853,2.9372171203955406,-0.3081066221268073,3.242581803828739,4.278618520458521,0.42981078818528595,-0.19133923622032156
10.128516611,2.798993468965543,-0.5385391990633374,3.2454253403127447,4.085047110615659,0.4434893035167848,-0.1951103340093998
10.228503288,2.5826682930226106,-0.8167631181408371,3.224203653900182,3.8388531255510734,0.4192917129276049,-0.19377358149968374
10.328507513,2.2997255008466375,-0.982129981689923,3.2791640621778226,3.6231488060731327,0.42596857898992196,-0.18070016339654715
10.428511379,2.020399745146957,-1.1480611274504602,3.2993343726476088,3.422566044573326,0.4144762888202935,-0.18680055124666953
10.528521199,1.7094728267787218,-1.1915400593765586,3.2976414498154627,3.1997247749452034,0.35891450213701903,-0.18131352107396667
10.628525249,1.3594420320133829,-1.1876324333334702,3.283520416386067,2.962561228483369,0.34845768616815515,-0.17891279475801974
10.728511096,1.05997758884842,-1.1155231568168462,3.218519893792441,2.752536041075985,0.33620389748359464,-0.186904997705168
10.828509396,0.7728415221359469,-0.9585286589451133,3.1442082076375355,2.5021555801977597,0.3242188228421605,-0.1896560031393285
10.928517643,0.5462863446561289,-0.771199420321738,3.1010837590856473,2.286636475435249,0.3338800434685189,-0.1841717664687611
11.02851447,0.3594366962772131,-0.5129494877137836,3.089564069799884,2.0823150414380565,0.366855086640826,-0.18113197390235
11.128507137,0.22063457820978316,-0.18535736354724047,3.1832893013464676,1.8979896238893752,0.4454369047353921,-0.05516190925262793
11.228524509,0.11206557345607909,0.06873449380662465,3.4054425356910896,1.895681205533248,0.4671204692482531,0.040888976707952884
11.328511071,-0.008776609940548,0.3989511175838372,3.5256991959368205,1.9577045327899716,0.4094939501888716,0.11533955824215522
11.428512678,-0.19919595804175888,0.7597006156101362,3.5689750658956596,2.1158008084719744,0.3132837802108031,0.15245104518342098
11.528503632,-0.3928115194312094,1.0401000817019546,3.525658409877519,2.294690244866949,0.26726469114913,0.1686455383734457
11.628506832,-0.6711846269276881,1.27801058184965,3.4388806447404887,2.518379594360655,0.26168893301705126,0.18476359228039818
11.72851697,-0.9026010083520816,1.448852952373682,3.325453343838635,2.7885051458327843,0.26772180043668264,0.19178946309904035
11.828497129,-1.2271232864533577,1.561438075400022,3.1912498089586907,3.0206697938156366,0.30762843427902364,0.17422739915785163
11.928507687,-1.5089650584455014,1.5747859540356062,3.1320870323908134,3.232959879301253,0.3642300901663111,0.16749558726186475
12.028510707,-1.8217187677970603,1.5248553638461986,3.1123012031230366,3.4509628299573314,0.37247383188751226,0.17594868525880486
12.128503956,-2.1245688311796975,1.397756832427956,3.0944352947548954,3.6487950968427594,0.3955915600357928,0.17683119756493001
12.228521675,-2.3787588440120455,1.2310665823204994,3.114785088615968,3.8671118930317245,0.4024009561373894,0.18739816199931575
12.328513546,-2.602897178054575,1.0184892484309016,3.139486632182851,4.073025834963053,0.3707485537321418,0.18825011468275543
12.428508614,-2.757943126585924,0.7428056691716785,3.1601989702391386,4.3157681157444525,0.36073859290126054,0.19696898755249748
12.528500292,-2.86022014413111,0.4622424368700707,3.1134553579237423,4.54692866340641,0.363079316040058,0.1988762593763347
12.628514411,-2.8810445778096176,0.1487454754576568,3.120936889601998,4.776368263502427,0.35013323881121666,0.19416890566950876
12.728510463,-2.8505366531948884,-0.15524857195750888,3.0637019163325974,5.011826114390396,0.36729843532366657,0.20325355523355704
12.82853626,-2.7279838096371796,-0.4638453406843142,3.0933440606814933,5.245168945371372,0.4073121722028496,0.21051792108697157
12.928522332,-2.5559967228927776,-0.7006430547818331,3.10371286162939,5.472429066627438,0.4092325605517646,0.21086351296385686
13.02851139,-2.3259728744321255,-0.9139981902186288,3.1127643843341604,5.7005365496576355,0.4300120151426173,0.21253778687225353
13.128508695,-2.0315494788115585,-1.0410157907587798,3.122089750084613,5.9179045730778554,0.4637582209208304,0.21259450826714854
13.228504727,-1.7290838571007014,-1.145510999111833,3.1936698451031824,6.147013915693794,0.4382267255392286,0.21115541999949808
13.328533488,-1.4215847268098276,-1.1595949573607938,3.1915294919350146,6.381095834214739,0.42261912811830993,0.20912807445847378
13.428509255,-1.0982928502005598,-1.1033036696034475,3.176117023030331,6.620139170529446,0.4076475700787274,0.19433164894146815
13.528502493,-0.8383970157531694,-0.9709004905884504,3.159988656556503,6.849477725529673,0.4022933738026582,0.19105613868787824
13.628513432,-0.555721066531368,-0.7778815008398472,3.1539997113579425,7.09686757128479,0.3811966734044007,0.1772676845689495
13.72851291,-0.3755582671762194,-0.552122271407984,3.1642332057280207,7.2966963540959995,0.39883233403795415,0.16876988008209368
13.828509737000001,-0.20183074425797365,-0.24883983194307058,3.233712331024348,7.483108171065815,0.4242829996512871,0.09112201380958043
13.928521048,-0.09990322706973073,0.01894852829241253,3.3302080363312982,7.528647517826737,0.4421359547652501,-0.009853153917144843
14.028509863,0.031207973922033828,0.3540438178727734,3.425814562479638,7.478816570184413,0.432226996441056,-0.08281124270592333
14.128509938,0.17840582521368878,0.684784772963493,3.483732402359428,7.3281077844321185,0.3992885808548612,-0.1376002663579238
14.22850987,0.36603187253580755,0.9685284024072972,3.499783612392077,7.143859322739623,0.34902063104703845,-0.16096914219282588
14.328512907,0.6017382897416279,1.2241674015445498,3.450888827278665,6.948194916390344,0.3422133303924577,-0.16695124032997144
14.428522075,0.9237775022493403,1.400688273890078,3.429082530262672,6.693292216476228,0.3486498042489511,-0.17020632857039383
14.528591721,1.2155560877586018,1.5342299021370982,3.3477133095267226,6.483793481648554,0.35338206611398304,-0.17412771048977885
14.628505147,1.5408426303412255,1.5639890701362749,3.3358604551199296,6.261239036195227,0.3807075241196481,-0.1550128867925298
14.728510059,1.8592351226999944,1.5397535157496698,3.3166138337352167,6.1034945545563515,0.38171753882047144,-0.17468516552479668
14.828506153,2.1859533992272984,1.4704147236789897,3.280985325913522,5.875151046476267,0.3758436238224884,-0.1833274992204462
14.928510096,2.4772148046588467,1.2796071020644364,3.302421225787633,5.639603899068262,0.3796682500402521,-0.18587745582066514
15.02851758,2.733248589960985,1.056329969715978,3.2423994693648956,5.397002357474167,0.3839104483198779,-0.19196855767805382
15.128525119,2.913571087310125,0.7854429728491384,3.2482179943483316,5.168077991963387,0.38246024074227797,-0.1945459634331464
15.228508531,3.015381941751111,0.514491923188419,3.244481200504371,4.9666459217567125,0.3863349851339157,-0.18860744430345297
15.328514051,3.0737060081784957,0.20452717210474203,3.22581252779897,4.752462266409216,0.4100193585740574,-0.1967803181737135
15.428511306,3.0478685920200284,-0.11280377599190915,3.2122719457999516,4.516754708033959,0.40640461797831334,-0.19376341332288124
15.528496227,2.973528908741154,-0.480406865565224,3.21230549809248,4.266958712694817,0.4231452783338802,-0.19797239760821703
