time (sec),x position (m),y position (m),forward velocity (m/s),"heading angle (rad), from x-axis, positive is CCW",throttle (unitless; -1 to 1),steering angle (unitless; -1 to 1)
0.13258012500000002,1.7216487329658707,-1.8006816384531465,0.0020008613857323224,-2.8405198810202585,0.75,-0.49233953174318285
0.232566343,1.7313454517029072,-1.7948920031319624,0.0034294416409808752,-2.8393152939509196,0.75,-0.14405569742550264
0.332588838,1.7312523235722945,-1.7790045585554541,0.024418905218418184,-2.8468591079186494,0.75,-0.18456121507165724
0.43256667000000004,1.7204457871989018,-1.7972707054705404,0.012520041544737338,-2.8332086644129615,0.75,-0.2461101298909188
0.5325717170000001,1.708302604433798,-1.7961195925307596,0.49009803920280026,-2.867157747130193,0.75,-0.3181290253281248
0.632564832,1.621960454676638,-1.8105294165489616,1.2832200638673823,-3.035659738577192,0.75,-0.3742940155888558
0.73256931,1.4363684340818317,-1.788869721771099,2.0364759937260213,-3.3510226721682472,0.75,-0.3998858212975169
0.8325632220000001,1.2236775789739427,-1.707684628268192,2.5833188289654836,-3.6067230158889854,0.75,-0.348270840927912
0.93257805,0.9610180462469134,-1.546104953027892,3.0115051366450754,-3.8863611003999554,0.7388000974416588,-0.2610884647567276
1.032577387,0.7344739596654584,-1.3227111162002507,3.3656399219710287,-4.051591797478598,0.6868189236204174,-0.14757017447199616
1.132569007,0.5508863070909595,-1.0730519287069562,3.64870749951486,-4.119220586693459,0.6490884968476233,-0.03324979856636909
1.232563614,0.3439756471124688,-0.7130763971413028,3.876634960283172,-4.105440505846843,0.5531719263711932,0.03537544562977435
1.332624847,0.09802285571313535,-0.39167324868342207,4.012474812178105,-4.011563194395929,0.44765915973624476,0.07569535810888157
1.432668526,-0.1575116532838432,-0.13539594832341387,4.027109679049639,-3.9245079841941224,0.3412702203147817,0.11217965473798232
1.532563965,-0.45553493476877494,0.13701395401944003,3.9720143007895565,-3.7476759875498518,0.24765425560833706,0.13531952731657548
1.632644055,-0.8419630349499999,0.35251873145250073,3.7910225603226704,-3.456278355038121,0.19510627158705596,0.13392353765243523
1.732587142,-1.173185962257251,0.4882502139052052,3.611558540855125,-3.2476643715447797,0.20183703604248301,0.1510786606649854
1.83256451,-1.4842755232703313,0.5154767515826045,3.4602777602479313,-3.0665287536986505,0.20021189621520796,0.1307114832283564
1.93256923,-1.8504609957114813,0.48845753014845794,3.278597957966862,-2.844147935812951,0.2235060295881113,0.13865765079536066
2.032589203,-2.1366360946455574,0.3744508143811533,3.1796348816861846,-2.668730491385879,0.2395409318074805,0.16069407783383577
2.13256888,-2.41592045806169,0.20919251669331332,3.0622971757548743,-2.446486674458262,0.23644866368696418,0.17498334048469455
2.2325848,-2.632638669390181,-0.014139370541203516,2.989753102072823,-2.218906820392496,0.26892837871901015,0.19026835905537134
2.332657845,-2.7888486650470146,-0.24768570222125874,2.890290694161406,-1.9490977636381934,0.28924939860526727,0.21100598878216112
2.432586299,-2.8931838167082327,-0.5151429811028906,2.8787941556818697,-1.7227445701661328,0.3017670510650059,0.20779882369907057
2.532575049,-2.8839820196768073,-0.8188020847636329,2.827960064822224,-1.4372487601465485,0.351542729249975,0.20948191870615276
2.6325849960000003,-2.8396793931655524,-1.0407015241095179,2.835271137973008,-1.2709869791391744,0.3939050583873003,0.21586058077629122
2.732581188,-2.71743028568359,-1.3316693830085744,2.8865250003833847,-1.0017398919658422,0.4140741356880668,0.22939198983664957
2.832564217,-2.521477544290499,-1.5553329365183108,2.965747432356366,-0.7445599706053955,0.44431945944936807,0.23418996321125363
2.932615898,-2.2998713045798276,-1.7440591389900275,3.0290599907209343,-0.49819609740295573,0.49196177211119113,0.22918489585974236
3.032609494,-1.9887202578497587,-1.8808181921827603,3.0911454705833616,-0.2549296541963693,0.4947042857372804,0.22401324998880323
3.132569775,-1.7540352808261637,-1.9238821411770233,3.183369799707551,-0.0774544672130005,0.4950793746293232,0.2174562499599024
3.232567703,-1.3959377909567812,-1.9062088556941406,3.2559196383781863,0.22053435004543676,0.5040020315474903,0.20816554382019375
3.332567365,-1.0696050011671718,-1.8308320451404883,3.266283830481943,0.4376349734675112,0.489829302045833,0.19588787304839508
3.43256875,-0.790440028578071,-1.6483375072141015,3.292232939056263,0.6439584728837592,0.4702214921703495,0.18569623130611537
3.5325594650000003,-0.5419367524367965,-1.43155157901872,3.341868675940516,0.8784248097616103,0.45717240101124335,0.1834825399989782
3.632685624,-0.3280053249803843,-1.1384695286573892,3.353109549888876,1.134933919934292,0.44101499528176535,0.17614068245338751
3.732585604,-0.21190334236733213,-0.8456977491404636,3.4045068936929996,1.2461957899379765,0.5035493632819816,0.06784914360157258
3.832565825,-0.10682780672109382,-0.5196037135328186,3.572995088243349,1.2916502771844596,0.5125476467455148,-0.036725220597312716
3.93258569,0.02786557238471281,-0.1830942260420082,3.697349487260966,1.2057255535866667,0.451744563442529,-0.10028784136328561
4.032643492,0.15201801298791123,0.12399898475680837,3.710838893744303,1.098224689716973,0.4004059641708388,-0.14302458115652464
4.132569912,0.3401210602150605,0.48613317766269076,3.701515876306425,0.8849386215829695,0.3431376131452941,-0.16662268449079867
4.232568672,0.6289379240519797,0.7412587136442846,3.626454340262742,0.6979918473473017,0.33171784217009537,-0.17133258334332102
4.332567196,0.8713198899469905,0.9516782849403341,3.5566266760085608,0.5016379161177704,0.318070408895545,-0.17748286723851217
4.432574557,1.1975381263672085,1.1139343697376538,3.460271316848518,0.23668826452128017,0.3157785335548035,-0.1805275923704165
4.532669618,1.5445226634710882,1.1787267818740894,3.397472240702533,0.058182727336831885,0.33400296014787256,-0.1880080839036139
4.632567768,1.90572822563924,1.1856455807912856,3.28434657186499,-0.1847019329341581,0.35111578812012506,-0.1953101539981648
4.732571759,2.156677940612038,1.0983263067140059,3.2565054202054573,-0.3672039394078193,0.3475365993455725,-0.1884690630346377
4.832584712,2.4692565980610595,0.9433153305572589,3.232894810120241,-0.6104629037237942,0.373172342743342,-0.2054303861363601
4.93256692,2.715902300863963,0.7368326074784125,3.216567916365948,-0.8278981226509096,0.4028500594138597,-0.2179433419579905
5.032646017,2.9108903397287302,0.4892172294705924,3.205230578802799,-1.058589273655889,0.3921211559513497,-0.21469749724887482
5.132572859,3.033171293803954,0.22448997190975156,3.20890364216665,-1.30204210662516,0.41418720707104734,-0.21187068217365002
5.232584256,3.1034594245106417,-0.09753912448857639,3.2112656079561344,-1.5271211916274616,0.43753260643965824,-0.21555492316175598
5.332576104,3.1061434157992083,-0.4359887246804647,3.266704918450558,-1.7334750603581603,0.441059133309431,-0.21935595564638988
5.432655613,2.97696643717132,-0.763188541602088,3.2475684439174737,-2.007448785982181,0.4426830467302158,-0.21211293101548276
5.532565407,2.8418627545375763,-1.043792633231164,3.264002471938512,-2.2519361002315312,0.45974294604275495,-0.2276736150739984
5.632616046,2.631764849764186,-1.2838103982569053,3.299597167081349,-2.4508852620692223,0.4465928838009469,-0.19935888166104293
5.732566568,2.3350747685395716,-1.4580728919025863,3.3323399276599956,-2.6544851408110675,0.4364370037338365,-0.20391632028951864
5.832571902,2.082540406608441,-1.5758847612255136,3.326068513709434,-2.8668383239192075,0.45553827934243446,-0.20954392319197418
5.932576651,1.7595158338024148,-1.6695152217483797,3.3350479937166067,-3.06867322324585,0.4150100736551629,-0.20552963475614666
6.032569536,1.4275274648247307,-1.6546177916381415,3.340296489470114,-3.305648636523467,0.39455390602221646,-0.20429606269197506
6.132562801,1.0589604885242347,-1.5818349119011204,3.325379648951453,-3.5501262206000863,0.4096563793819732,-0.20663077884378941
6.232576018,0.7788869068923939,-1.4207447243839977,3.2822490677266587,-3.7777935632173345,0.3812111306389961,-0.20667205634893304
6.332563183,0.5233805712432744,-1.2328025210385447,3.2717888944438607,-3.979722779408116,0.3963044794104301,-0.1953953371898485
6.4325706,0.3373140568783235,-0.9595543659271556,3.284267484752341,-4.182967677766084,0.44794957730805174,-0.17727796864648002
6.532609661,0.16900851509916537,-0.653411466790419,3.504453352605223,-4.298438716647033,0.527688653711502,-0.05563664282137359
6.632562536,0.04911506904831441,-0.37116200862088383,3.642209614875327,-4.3198461247595485,0.46644122213979594,0.03342280597358713
6.732566464,-0.1282971892282891,0.009217549219552411,3.766955213203633,-4.227962648544177,0.39575357310569415,0.08459766268691363
6.832570884,-0.3197966665207727,0.32590497074819064,3.7902180700518184,-4.088947635324489,0.3207174518915116,0.1216614019296087
6.932567627,-0.5265624315088485,0.6016071593490135,3.733418921012296,-3.9414522331002195,0.24597141017295343,0.14157225931221462
7.032556286,-0.8663926075362964,0.8792699696260744,3.613922374769244,-3.693316283522896,0.22358990183178243,0.1575948459933111
7.132619702,-1.1565824330411338,1.0445532468308267,3.456429586149116,-3.488720486444982,0.2276078174355004,0.15055991129381435
7.232643176,-1.498128759262599,1.159586049623412,3.2970621359213603,-3.2300636427583957,0.24522791534755461,0.15632594544093584
7.332563725,-1.8011714574411966,1.1453671536336814,3.2054568643978034,-3.0631245521715824,0.2715916197979125,0.16110030122027322
7.432567105,-2.105642914506224,1.1236024882074929,3.1202277537703074,-2.8424812522991902,0.17622190981135785,0.2024062896360327
7.532575165,-2.364920902122637,0.9927240132125472,2.879445188505994,-2.572377672139381,0.051447969649249,0.28414235123349924
7.632642415,-2.598474432305758,0.8201774002998609,2.7492250094044848,-2.2480328989751275,0.32314818445632426,0.21089527709741926
7.732595505,-2.743511668652767,0.6026409977188195,2.8358201185762613,-2.0693016955909465,0.48023119594184227,0.1603816403162453
7.832598426,-2.882940835384545,0.33407063063452425,2.970307279022227,-1.8964406955604296,0.47092928433238024,0.16384322014830618
7.932599731,-2.924868740206547,0.0514390331161062,3.0534781234255095,-1.6794146824793204,0.41744009429364104,0.18358687524548492
8.032649999,-2.939174666869445,-0.21198684008753574,3.0822067765528205,-1.4849815834328963,0.3863827681498962,0.19870012127706568
8.132570182,-2.8790596958972827,-0.553002511164704,3.13577070372228,-1.224403395763863,0.3767636563632544,0.20265769805719752
8.232564889,-2.7536325380201574,-0.8514102312068076,3.07002422678969,-0.9610527225664887,0.39695350049277983,0.1980547173502072
8.33257452,-2.5666450356055384,-1.090586943019596,3.058537026707108,-0.733420641895858,0.43721637064437485,0.1968717350633612
8.432560544,-2.298914399549274,-1.3150848387434044,3.152993824937309,-0.48200311149980524,0.47476852335308733,0.20295499846934983
8.532563778,-1.999903233932944,-1.4277447670829058,3.1765259730953237,-0.26806833599592306,0.4720370895069041,0.20337289832959216
8.632561282,-1.6818609116297576,-1.4722642877912187,3.2302062437511405,-0.02558772743445079,0.4609326140841635,0.19457152409543654
8.73258364,-1.3988077337263878,-1.4788213002202277,3.246017648081794,0.1996944377830068,0.4637079439599148,0.19912673493586122
8.832596111,-1.0799213307138271,-1.4026936975510005,3.2637634402809335,0.41021574042564224,0.4360491839595609,0.19317027773520717
8.932567784,-0.760650484887074,-1.2289512444822592,3.247557564968862,0.6569235227214437,0.4190135788367669,0.18340071996301477
9.032589866,-0.5606427343539492,-1.0657902678958457,3.2371535745788846,0.8364591529701784,0.42735269133389064,0.17895011297437152
9.132567087,-0.33756438554313517,-0.8013074660227996,3.2559861953599607,1.0241306443472251,0.4447871338331438,0.14230579656544953
9.232563785,-0.17093473712107407,-0.44299153896016147,3.3697258208114733,1.2338504235162098,0.45778376651466074,0.08403254871678806
9.332569945,-0.06765684087806233,-0.15338538566025098,3.4834910729160353,1.2580093566829684,0.5015402917078272,-0.03300674823408155
9.432565089,0.04491902367452953,0.1777205698471783,3.5819478332005734,1.1823368125713456,0.44522438966478256,-0.10270580064143287
9.532568059,0.180522974459347,0.4830079021344176,3.638587312866478,1.0741749901789988,0.39142344257831657,-0.14215800165927053
9.632573319,0.414989825975896,0.8639678974204585,3.6331289033560172,0.8357311199661532,0.3714431138921378,-0.17189221668018304
9.732579554,0.6333082651387989,1.0653274394344154,3.55322947984551,0.6448294446335128,0.33452458766189935,-0.1751123275084114
9.8325643,0.9045728688601427,1.2341150658245907,3.4913639141861217,0.4539781138390264,0.3386643694153839,-0.17275696122185166
9.9325696,1.234098401737849,1.3721861350416424,3.4071351218336594,0.22094770057867338,0.370989292892717,-0.175534532437468
10.032623048,1.5923635916863261,1.437367139542027,3.377651578178463,0.013173225517873581,0.3666586421374936,-0.18190789953206227
10.132580459,1.9442596861874284,1.4225874860888907,3.3609765026346157,-0.21183322008469624,0.35530966322653,-0.18859178252450962
10.232566766,2.2304930868036057,1.3405665440083472,3.315546877059311,-0.44430669571286063,0.38663632203057396,-0.17737047631574382
10.332564408,2.5143647975895034,1.1747152791381317,3.272099814106101,-0.6630397630645858,0.3927110242917146,-0.1953372134208704
10.432670645,2.769867609304753,0.943664576581067,3.2633942469678363,-0.8986629293155224,0.3983358414468064,-0.20317011133652507
10.532610074,2.959296461540656,0.6478191595897528,3.2654585581308586,-1.1342516079808949,0.44194903209177416,-0.19922925847423803
10.632564445,3.0651760755627517,0.3620630968079291,3.295768962794854,-1.349717619490929,0.4454025167937626,-0.20483216089385245
10.732587941,3.122410658644777,0.04329976854595115,3.2719242000802042,-1.5724970249218893,0.4272692325170349,-0.20259644531562895
10.832645552,3.1074732085216095,-0.2866014688114802,3.30873226589948,-1.7850621245155316,0.4310510760236918,-0.1980033250540445
10.932644792,3.008011174117487,-0.6109698321964406,3.34111262389362,-2.0378366287672285,0.4474494273324326,-0.2029135383477354
11.032569468,2.857773513428153,-0.8974207841599462,3.333796653608419,-2.2389528295963594,0.4320265716323854,-0.20162766185861078
11.132620419,2.611796096734307,-1.1633072513265437,3.3586311669053717,-2.4729137597710764,0.4393951708625325,-0.19455323016350368
11.232579593,2.3402773118602007,-1.3275179239286994,3.372049530718449,-2.6913821406736793,0.44494785749783894,-0.1958189351440092
11.332565281,2.0392147591515997,-1.4642048172933444,3.382174044403649,-2.9151551374276266,0.4166298820628713,-0.1896074206482897
11.432562666,1.704158824206749,-1.522408959510765,3.372913248773209,-3.0964711632727955,0.3922060568446828,-0.19505408877598748
11.532559795000001,1.3896244713864387,-1.5261035689455338,3.3516330674054147,-3.344359985324927,0.396222948037794,-0.19400959300697562
11.632569958,1.0531591096086927,-1.4278076210098785,3.3424900583667823,-3.561628066431175,0.4645978517330659,-0.1830160073021117
11.732563508,0.750050641835299,-1.284113164805331,3.3283904786519765,-3.7752749180162763,0.3623032155323136,-0.19704772260926512
11.832580765,0.5047600947239336,-1.0685692317760531,3.2959582251079342,-3.99855507261508,0.3567935660199093,-0.20391221699075232
11.932583477,0.3041357862804484,-0.8226652858839366,3.3094388424735506,-4.189592826177267,0.4343522950236834,-0.1460362720086339
12.032560689,0.15292307740522726,-0.541520292236818,3.4512700756237513,-4.3070048779001935,0.4807694349772911,-0.060770221639237065
12.1325646,8.861435174456304e-5,-0.18950424174915592,3.6525914320949204,-4.310661197547451,0.5025781938964843,0.032285851133170854
12.232574749,-0.15858685547251827,0.12098995222319908,3.713927546002829,-4.255434864693861,0.3656010560564857,0.08600288113523169
12.33258077,-0.3619031342923111,0.47765061108329626,3.772902893591901,-4.132305592823077,0.29783654570105095,0.12173648084825422
12.432564322,-0.5781868580669169,0.7653783145042423,3.716623184358784,-3.947723362854485,0.25618809233641726,0.15737508222225072
12.532557415,-0.8682170002726486,1.0087491815583658,3.6037773308308636,-3.7248348644854365,0.2015439745067665,0.16743032169622163
12.632570473,-1.1427338869771555,1.1930837675447223,3.4497545556097458,-3.4965176511429954,0.2014784280840468,0.16942520964719146
12.732583422,-1.4801339711153834,1.2990682939769043,3.291087805852825,-3.252405349244075,0.2548601294575383,0.16719260344264222
12.832565916,-1.7567705606514112,1.3267455354895366,3.1841859652399602,-3.04707290615289,0.2883554682207383,0.16377817717465049
12.932572124,-2.1024365701560637,1.269759929489252,3.004134315029358,-2.804181165632323,0.1076703856135576,0.22335986128868818
13.03266612,-2.339233555980616,1.15870843490313,2.808124393379583,-2.5412576818487658,0.09805325967496537,0.3125068495381782
13.132565477,-2.5367253130129486,0.9824760276218147,2.7262946478576513,-2.29408268107104,0.45036957315378545,0.17995410389851377
13.232584332,-2.7228450871098935,0.7287212523148938,2.9161248660639236,-2.080815962670725,0.516182324215735,0.15123160338625452
13.332565073,-2.8440876304321088,0.4622956822312173,3.0597750786431326,-1.9102079271444798,0.48022034338269254,0.16726339898363088
13.432570825,-2.917114500490066,0.16186081811084596,3.188699478397432,-1.704938383865506,0.4097571296137484,0.18982283653109205
13.532563452,-2.9183413890939462,-0.18590625671419186,3.1520743286254764,-1.4386221905578005,0.3629829356395703,0.19859000823680478
13.63267707,-2.8805694672003828,-0.47418693253166944,3.1550780124715097,-1.2204770146872537,0.35761617693047354,0.19424887352534886
13.732578062,-2.7290819219564924,-0.7776135424468433,3.138026430860679,-0.9909262999298021,0.3944577097787828,0.20692731250120086
13.832578980000001,-2.540491693184081,-0.9976674931083847,3.136860832614104,-0.7599207881438949,0.41565575681322553,0.19902446678538271
13.932568911,-2.3039200995754854,-1.2148713966963116,3.1763589532304435,-0.5432827834321576,0.4521623044945617,0.20084959421910262
14.032571003,-2.024747891001906,-1.347900040180144,3.1764130898364376,-0.32829262736273146,0.4637716138091619,0.20987669781064897
14.132637067,-1.7241633729894548,-1.423371864166258,3.2075629133021826,-0.10367351827273577,0.44605294097313364,0.20991361426137092
14.232602153,-1.4120330242894132,-1.4273194191130314,3.256358258302318,0.12260745039940757,0.44762232324442663,0.21316176955021326
14.332679522,-1.0707721406373722,-1.3600163298105659,3.2540858962871497,0.3756565064313853,0.43458685642885364,0.20279092583431677
14.432582432,-0.7801345980398299,-1.214372929296828,3.2420250724925155,0.6275578925591961,0.4063704518838419,0.19343885777860204
14.532571841,-0.5202590536435553,-1.0369429870544695,3.2410463874979025,0.8210274141671947,0.39789121896787005,0.19313025797436054
14.632572717,-0.31541846035548365,-0.7537380154887882,3.2426888528219826,1.0363416125275875,0.40580817421473286,0.18674248738920096
14.73256227,-0.1694281267861173,-0.4341288053861687,3.3008420135175895,1.2285656401518228,0.48261704013466245,0.07806680131863049
14.832568402,-0.056696842843953335,-0.16063298576107854,3.477713402658998,1.2593605469705549,0.4783629462498866,-0.028806790524080805
14.932566148,0.041304320439063485,0.17878801081128642,3.6337753803425685,1.2486586942755447,0.4788067823955938,-0.10541471911636993
15.032591295,0.18302804903529885,0.5337136700230549,3.654385907250186,1.1888780667671044,0.37542854304122647,-0.16283188160560946
15.132578874,0.3382876886909698,0.8628798100683336,3.565947009208466,0.9610882444219913,0.3208695208886994,-0.21736099882546503
15.232590004,0.5425959815934296,1.1347925850747334,3.4701089984981603,0.6850764415920848,0.3536704394592882,-0.21547732470311456
15.332583259,0.8063801324094811,1.3445857542460633,3.3466236134680276,0.445701235844981,0.37775088680597013,-0.1934357337974027
15.432580368,1.0731811694341866,1.475871820233458,3.2697088720120884,0.25008815775486964,0.40266376367930096,-0.18253136120367866
