time (sec),x position (m),y position (m),forward velocity (m/s),"heading angle (rad), from x-axis, positive is CCW",throttle (unitless; -1 to 1),steering angle (unitless; -1 to 1)
0.136862124,0.18884579081387692,0.15468596216053798,-0.03138175624503504,1.541909293705429,0.17091960052429156,-0.04851239714054589
0.33685961600000003,0.16356370329213657,0.1687865532300996,0.0024122192528190428,1.4754707789995725,0.75,-0.1808276162086987
0.536862893,0.11500838307143903,0.3234415130096901,1.4161764479804932,1.3716611154264347,0.75,-0.31708594919461464
0.736858136,0.372239269245417,0.7060227379515508,2.637198584450384,0.9161296959523005,0.75,-0.3126525308301973
0.9368602410000001,0.8301162535091899,0.9830763593206611,2.9396081928240467,0.36859361153073966,0.5031595201674726,-0.24042883611792903
1.136861927,1.431190098056004,1.175321201412574,2.998709484781827,-0.1457395133014487,0.394335872467328,-0.22162672530751343
1.336859991,1.953646627246033,0.9333459054816048,2.915670229049693,-0.5379178738986908,0.3772325760160514,-0.23929652333270793
1.536893936,2.3942460825385856,0.6162656784803286,2.922135231701062,-1.0006777521346046,0.47129788626945734,-0.24727209573962353
1.736858317,2.585251933342672,-0.055578429860088506,3.0279183158554925,-1.56471359502431,0.5362060781360944,-0.2417652344093517
1.936858903,2.4444219541326833,-0.6342982744135829,3.0668352013838747,-1.9921991335309435,0.49418300852375135,-0.23066144528514404
2.136858664,2.0285028983071935,-1.0967946698705475,3.1147291717577916,-2.393045488823003,0.472092399480624,-0.2188785044010849
2.336858722,1.4706467322859056,-1.5046443372718872,3.1764399695439938,-2.855588989092738,0.42777476036592804,-0.21791723020306838
2.536911059,0.890586813464644,-1.4738177642559662,2.917977649675613,-3.38922842720595,0.37829963173955244,-0.21792098078694286
2.7368742040000003,0.31715975950532455,-1.211935232655219,2.8756559867706524,-3.7804351385519337,0.4033895801907633,-0.23460328549530998
2.936866004,-0.01993130872023806,-0.736812032760627,3.0647126731618406,-4.291909867306804,0.6242331889177488,-0.11438347113078647
3.136857575,-0.2638788765907083,-0.047073631259850854,3.5719077002619124,-4.204724780559012,0.5017648137702688,0.05434686228022359
3.336858039,-0.5986738475697879,0.46148476113942105,3.6227433327377585,-3.9917629561247505,0.3102764859636256,0.1346279418759856
3.536860726,-1.0878982888833515,0.9374969599935837,3.427006759798029,-3.675250074557394,0.2539855267380925,0.17932105221679465
3.736858574,-1.7413314565497238,1.2794791164441237,3.245121723744092,-3.1854892019054746,0.2862521194805775,0.1874421486607553
3.936863432,-2.4470670735417444,1.1083019719313962,2.9731247225913586,-2.729173149249209,0.3751900778130356,0.19853504896024385
4.13692865,-2.8660804680625125,0.84932384720659,3.0154137718531726,-2.37498988243417,0.4493924045066929,0.20972073875623443
4.336864502,-3.2075135189714965,0.33945574006789986,3.103577655855105,-1.8059948598544704,0.44611310270203564,0.20438837271603283
4.5369151930000005,-3.199562992791445,-0.2223422496363523,3.1964659060199345,-1.4283991125944302,0.3884275621382946,0.2077895214951627
4.736862089,-2.8976849094359123,-0.9040433630105982,3.120151120463537,-0.8220299305866712,0.39224849980363957,0.20367999693077193
4.936860421,-2.5175014617558595,-1.2760301932357947,3.138819750083222,-0.4131220646993242,0.44007894476483655,0.205844259638956
5.136908268,-1.8727031209165343,-1.5519584517158171,3.1877915035823627,0.053386040308719226,0.4930468868989476,0.20704655495581112
5.336882798,-1.2052281198172008,-1.3654670445895878,3.290409335863333,0.6393657471806956,0.47025613895907403,0.1915996265638695
5.536859787,-0.7412547489680235,-1.0200353721323494,3.331866299360547,0.9120209671050789,0.4706387813740692,0.1766128950052895
5.736865406,-0.39436050573051584,-0.4207678961740334,3.5671278247223492,1.2247996005098238,0.5893664729155507,0.009380827691111263
5.936860435,-0.06145554407517116,0.3558745053972135,3.734089925432023,1.0283523392335105,0.4619026395830076,-0.11444497466766636
6.136858472,0.2569784527951342,0.8624953078218216,3.7596331958864955,0.6787636778998929,0.35486686380342125,-0.15163770035986845
6.3368574760000005,0.8660775659242197,1.4745727097604882,3.4690374403284467,0.37872435302072815,0.3250343458153035,-0.15988976022973325
6.53685924,1.5144689783005276,1.546631388454233,3.168824084247436,-0.02841048041431847,0.293740163681692,-0.17940068010502816
6.736897928,2.0600842087457982,1.5012765706219349,3.0421043344857783,-0.4072655513861083,0.33220809290217007,-0.2019787905945565
6.936856974,2.5905516795790384,1.0809664738862348,2.953171774062507,-0.9012233077129249,0.4633164819186886,-0.23151235554434044
7.136899053,2.9409101420285193,0.5226479649813566,3.1849350889176766,-1.398890248857202,0.5379790676479856,-0.2342167463682019
7.336854735,2.8887167189857115,-0.14124507224661967,3.2539048712542957,-1.8095357931879894,0.5419208424866213,-0.22083873322316297
7.536856437,2.6449284050588013,-0.7439370422363274,3.370878628513318,-2.2668805106529186,0.5278340568460969,-0.21204288694589818
7.736858707,2.124537134091404,-1.1627656126914396,3.2933086577266213,-2.6576690472644198,0.43379320083318174,-0.20590805457666567
7.936863131,1.4496128396267507,-1.4214497814806935,3.293249858103614,-3.0909048649178335,0.37996152148226464,-0.21174060957027646
8.136861125,0.8486206869642198,-1.2113487748859002,2.9541436968897763,-3.530694940232413,0.35308551373716285,-0.21618499923298737
8.336859857,0.3354423700369371,-0.8586364642073986,2.868041617312966,-4.111364287513248,0.4850096924114649,-0.1843114190630299
8.536864919,0.07453475237667843,-0.3790550885561675,3.4608357048512883,-4.2445010299934305,0.5990539710431718,-0.020568444574093726
8.736860056,-0.32671135801055706,0.28442727194841494,3.6217327684772664,-4.197279549178326,0.4124702297334723,0.08917913855586058
8.936906733,-0.7100323435116728,0.8695962770965591,3.5302810160030256,-3.881279753938821,0.2659807222992295,0.15834342309179866
9.136862592,-1.3196986052033768,1.26556830502322,3.3308219426804886,-3.3090985663978576,0.2690036026773576,0.1752934474850699
9.336899189,-1.890796680502941,1.172388011484995,3.216622453975958,-2.865349171159219,0.342860516647396,0.18507862759047522
9.536856649,-2.5705485613505674,0.9729965438800035,3.178534648277338,-2.5021495005502663,0.42116700135898527,0.18972495921486426
9.736864654,-3.009033710356174,0.592979736771813,3.162438070079314,-2.026471140926944,0.47355962553037373,0.1982233834645936
9.936857976,-3.1011079915552906,0.015484435774205899,3.21215963023263,-1.63929828760803,0.41510639274205685,0.2003580410430776
10.136864812,-2.9519064582767776,-0.6612285007361466,3.1913897208421043,-1.0782808072864563,0.360553322841863,0.19306027484951907
10.336857386,-2.520022346096543,-1.2443342567362263,3.119712546676249,-0.680504235711293,0.3984197002499031,0.21173505747144777
10.536854712,-2.117842127918795,-1.508488611664085,3.1190854805754555,-0.2777784240016399,0.4347856572640699,0.21710033392149303
10.736857238,-1.4674136115399048,-1.3821530302378062,3.2012717293369213,0.14585442054375858,0.4775966828992735,0.20261011474107396
10.936859678,-0.9383030589808652,-1.238901553367586,3.286357925334118,0.7157567936698045,0.4982057126339055,0.20071737929921887
11.136858893,-0.5279171931473406,-0.7286672226256603,3.4053758484010412,1.0871371559544643,0.522060016402869,0.1263389140840564
11.33686024,-0.19052394840422612,0.024486534469645334,3.6968823106819246,1.203102182604848,0.531474862015183,-0.0663931095998288
11.536861206,0.06400952213058297,0.6571416781370717,3.810208299411662,0.9955271458090991,0.4196512683585791,-0.13634653601968633
11.736863218,0.6211405479938252,1.1551331051924476,3.549669070597353,0.6450418409297357,0.3212050303108081,-0.149169923271041
11.936863668,1.2923227330814928,1.4057828193428046,3.371596923798779,0.13662116036320557,0.2789502579665845,-0.16968851863831722
12.136864371,1.9165282651124886,1.3976068852853871,3.08005672606355,-0.13427348319133472,0.30312715869991563,-0.1937400256899571
12.33685915,2.477925938297852,1.1772430307378943,3.024008629296474,-0.7328392027899789,0.3863352727227542,-0.22673503856620295
12.536859124,2.8102322016805337,0.7750345387396138,3.05076327571471,-1.1537725153291514,0.5157151391071834,-0.2314947560476796
12.736886646,2.97170864280192,0.12169875675386424,3.1484038801162995,-1.6452680744967056,0.5706703874299683,-0.2292381079339866
12.936927003000001,2.855733033427195,-0.48234827218685794,3.3277507871936534,-2.146543997694041,0.5266423416049226,-0.21970425039827773
13.136895696,2.4715307142960725,-0.9321298302661163,3.3178337612405766,-2.4280792826437865,0.484172678344231,-0.2091611856013969
13.336861556,1.8727971904364118,-1.3128731639234026,3.2164234662352724,-2.913245449323437,0.4435942807491429,-0.2074034912161933
13.536857552,1.2901577211407225,-1.3062018971535811,3.152276997669394,-3.2949824738955433,0.3485325941802382,-0.21441464668062948
13.736922832,0.6519152043933052,-1.1015639751138053,2.9402677079113437,-3.800571238093892,0.3668453786471277,-0.22455042925072652
13.93685683,0.2458214998146001,-0.6318904767973007,3.2639805371350836,-4.170779498281126,0.5621557266696932,-0.114515230919572
14.136864267,-0.07873450651820153,-0.016388022621208025,3.6774564811265837,-4.241714531416073,0.49596125937286367,0.05390056298185988
14.336928921,-0.4177995327850124,0.5653418879198128,3.640343722081774,-4.022380137504362,0.3401719741327608,0.1300407165075454
14.536861583,-0.8454384874300207,1.11305274428682,3.509686309327333,-3.693962306436188,0.2446724783485998,0.17661721954734344
14.736856921,-1.5571453509873878,1.2527930451809026,3.274897370361307,-3.122516306112019,0.3033507807105978,0.1735908734318505
14.936894209,-2.1372880338662066,1.2455479403369172,3.2053609650907617,-2.7096423626861994,0.3917446072536009,0.18916467514115368
15.136911256,-2.690742031442212,0.9091211429856281,3.2182392765833083,-2.232637583920511,0.4465968925108449,0.19558431434949033
15.336861966,-3.0976688824406495,0.23755802820897443,3.2662483088656593,-1.7597135407997868,0.44025643781821333,0.19524796178461648
15.53685962,-3.0298789106015764,-0.36683945632839093,3.2066892353983243,-1.3122577016744486,0.3829851564315292,0.20020121448358982
15.736858747,-2.751813412388181,-0.9001760614013306,3.121601029403868,-0.9740469562077605,0.3605261447999648,0.20197843095633883
15.936909253,-2.4375828151207335,-1.4092640476810359,3.1274252761313015,-0.41215420826442983,0.41915321674199973,0.21392294198766804
16.136910778,-1.7503766637252278,-1.4811160637171648,3.108183219976438,0.08375509033080633,0.470300304251801,0.2108142364678308
16.336857651,-1.1910948257031344,-1.4040814829362398,3.180301059216026,0.4069225644316186,0.47606283190287174,0.20834537845817844
16.53685797,-0.6348896733335385,-1.0127837608245016,3.3061786405218676,0.9171214708283628,0.4764703618478492,0.19531429755675217
16.736859576,-0.24331861644309802,-0.3877418001818712,3.5010675518256877,1.1980975613703777,0.5696422015405358,0.019185987241821613
16.93691,0.11935210120914966,0.2761149144470014,3.779760155176258,1.089651705447254,0.45611399304674355,-0.10509755774833986
17.136859216,0.4410889768945479,0.7746523068289641,3.7147815049792587,0.7659491787947093,0.34787550568046177,-0.1478012398942313
17.336858569,1.0101506713557784,1.3416462793299395,3.485663345173847,0.2950029305208717,0.2987865630133883,-0.1580503581288216
17.536904158,1.6211420059000978,1.4885178290388117,3.2814623836719385,-0.025185612820901572,0.28531338767494235,-0.17591570054269626
17.736905032,2.1726943390405977,1.33780997204936,3.090144826190511,-0.5134951655498565,0.33268445270115454,-0.20798784000566625
17.93686273,2.7797589295408676,0.9108236682719482,2.9421425890878496,-0.8778274371153001,0.46214856856466185,-0.23046366561169024
18.13686117,2.9603977100410357,0.33752078064982405,3.0954582160166715,-1.3474644620500789,0.5601900590892811,-0.23172137430188344
18.336856796,2.962431649120592,-0.11803251546699986,3.3494905071704517,-1.8407567614577574,0.5487505511709956,-0.22174622227482385
18.536859067,2.725021551305782,-0.837398034748632,3.2636073150127056,-2.277619272030173,0.49680693118365343,-0.2119535951603811
18.736857409,2.1065914039451994,-1.220237398538978,3.3348935222696268,-2.640929127510727,0.4755686763224039,-0.20160966712057313
18.93690864,1.5204434721750804,-1.3399678491128209,3.222842024966359,-3.1661784873410697,0.38318983325081757,-0.20489857988626634
19.136921531,0.916202241272215,-1.3034981943263122,3.0615560366630645,-3.5971099334442624,0.34745370743173126,-0.21517740462922924
19.336863202,0.4632423729715328,-1.0069288997859818,3.0078744737637813,-4.0501862779256435,0.44590352260550586,-0.22037909379207568
19.536903146,0.26724622952582117,-0.37326900069209773,3.3713428964085885,-4.2539059703044355,0.6000275183419914,-0.004890824995945563
19.736872379,-0.1440944988660537,0.2636938793245541,3.543313046264831,-4.160319976872253,0.41330193281217587,0.09727209982549878
19.936921568,-0.7030566931624451,0.8326815453829685,3.628770882754337,-3.948959818031141,0.2773666265769923,0.161255864216914
20.136902649,-1.1593171720019528,1.1792427453196603,3.4015484557805293,-3.323473458022253,0.26849690244124186,0.1833629018847728
20.336856304,-1.8005290612254194,1.4191570524061023,3.192923613392367,-2.985843383974194,0.36569662864511127,0.18325883889221484
20.536860406,-2.48817342659671,1.1095705317933917,3.250723283038313,-2.5621304379544725,0.4210247388823351,0.19788386714126494
20.736868035,-2.8661016314283034,0.6606226668498281,3.204362277066371,-2.0707312290619493,0.4470066662598487,0.20214705605191952
20.936859805,-3.114177210756954,0.045104690540342385,3.225721728001785,-1.5836772507582095,0.4156253405653925,0.1982543522330782
21.136861981,-2.9329864521869538,-0.6870295849232473,3.1202834280147753,-1.1177641045913609,0.34532448250061143,0.1990801139234376
21.336857036,-2.6822144864675774,-1.247606658867674,3.0868437692704997,-0.6496485597467455,0.3795266148831376,0.20084439152001937
21.536858591,-2.1389594659720825,-1.3833771404103414,3.105068161594467,-0.31775515777426544,0.4528912721041297,0.21663950455576436
21.736856556,-1.429257971028549,-1.476982454068661,3.1551969830856472,0.2214503852773519,0.4679396078031153,0.20542401635968843
21.936856725,-0.8249761621499122,-1.2587507896468197,3.2686767048118472,0.7857496564057367,0.4761055498265899,0.20089175838202297
22.136857498,-0.39919045979430356,-0.6397181411191438,3.3392022118433538,1.0275210066470462,0.5366579586786691,0.12316271981575298
22.336860345,-0.07237791326565576,-0.02435076936540718,3.74925460350895,1.1479962330862548,0.5211470086423527,-0.05944449718124146
22.536859249,0.27358918717835623,0.6703232308480482,3.8482353796610838,0.9065899425790445,0.3850961401331911,-0.13215815362428218
22.73685683,0.735492095750162,1.1671182340283215,3.6600659321778797,0.4035886208899164,0.34525078466073933,-0.15308648578161896
