time (sec),x position (m),y position (m),forward velocity (m/s),"heading angle (rad), from x-axis, positive is CCW",throttle (unitless; -1 to 1),steering angle (unitless; -1 to 1)
0.13648000300000002,-1.3622417222666179,-1.3851754242177874,-0.06332554909445554,0.47660972830917303,0.65,-0.08424917587716112
0.336493421,-1.3014799297668382,-1.2990689985674175,1.0185213820902401,0.5544622440489497,0.65,0.0066803712992501785
0.536483621,-1.118746504347691,-1.1947120411454102,2.036946398315138,0.6607491928188258,0.65,0.12570123952719556
0.73649208,-0.7505500628299987,-0.8491491328835272,2.834744055463133,0.9886040063282625,0.65,0.15637947422893478
0.9364790810000001,-0.487510688073835,-0.23494396810499998,3.3605722978339925,1.2368573253840973,0.5730707988900948,0.010928266352409361
1.1364855600000001,-0.24518747573044855,0.357766375305132,3.6919605685471786,1.2786637634666715,0.4632769299795736,-0.11125558113072384
1.336488433,0.07373297923898253,0.8993450684035749,3.559057155253251,0.8081765551257846,0.2966214784798845,-0.1885270019736991
1.536492798,0.7791006520436902,1.450242713895423,3.4448918773566204,0.5162526550705384,0.26413937498297463,-0.20902844341328328
1.736488267,1.3098288873703807,1.681149500731118,3.179061881609395,0.029006422351511806,0.3645585704636403,-0.23542965783201156
1.936479806,1.8888268359265772,1.4748720453815192,3.27030985169369,-0.4630068459594203,0.44702098004564306,-0.24452729058329667
2.136488681,2.5109205565040154,1.1355414433371056,3.1892234823407213,-0.9115920142582258,0.494844977665369,-0.2440183254540922
2.336578818,2.7354884978541234,0.5322945656765559,3.2755706544838628,-1.3403220683036579,0.49878901211008875,-0.24109496487344012
2.536478928,2.8632119933030404,-0.06206420941008524,3.2878409326143907,-1.7452756044118043,0.4152174666075764,-0.23060166416368327
2.736495051,2.5712979899879684,-0.6732897774122288,3.2864178853339325,-2.1254805261056577,0.37040197014718435,-0.2339041365587977
2.9365608,2.1006973728139275,-1.0814625520400514,3.080787674415388,-2.641205391266561,0.33565660472076114,-0.2407813857605045
3.136479907,1.5840087586844822,-1.2150579226346394,3.1183370009776823,-3.132469390958797,0.3508067176865187,-0.2616584801492191
3.336483636,0.8165677125514664,-1.1736058585817597,3.0555377147935605,-3.616508379561108,0.4646127133253252,-0.265164728088682
3.53648232,0.333794692105004,-0.7504577276987181,3.081189532945845,-4.138595364184361,0.543754044737146,-0.22538614259262163
3.736492568,0.109836465775452,-0.22907375201653982,3.440557628949662,-4.352801530731987,0.5599752243876167,-0.0018064651879922868
3.9365383510000003,-0.27172088020674484,0.5295720463398719,3.738088895254079,-4.115097045564347,0.3805254433978018,0.10205145049127086
4.136497519,-0.6323746095607141,1.0519699445205801,3.7189186738331186,-3.791620822761713,0.2584372017101507,0.1539175132695882
4.3364809,-1.1818194632153032,1.4805151471775124,3.4185558824724316,-3.4795748104538906,0.2307110897275411,0.17833169315277128
4.536479038,-1.8449040624459183,1.5305858110395558,3.109127558643302,-2.953536396594638,0.29054925516783714,0.19678795573145602
4.736478881,-2.4712125502604727,1.3913006594954374,2.926437719832398,-2.6050241209016654,0.352339486124124,0.21939726420102126
4.936479177,-2.8441074487355675,0.9015921272418781,3.097808800416674,-2.132260111229855,0.41690599633314734,0.23376485746044945
5.136498311,-3.0742236058845673,0.38927053482989665,3.1245601977945934,-1.6182654903470752,0.4927473583415067,0.22580390857143753
5.336487741,-3.0566807282234647,-0.14460535920744821,3.151202518306575,-1.0887022170509673,0.5058528173310909,0.21033370220140063
5.536481303,-2.6970361212838903,-0.802596196289729,3.1995164025709357,-0.7617045282560289,0.4662183752922148,0.19576553270025418
5.736534795,-2.1479843146738555,-1.1618384630955012,3.1294611679988287,-0.34022973083651725,0.40924936971695763,0.20164998839342932
5.936503377,-1.475994501548888,-1.3129533141868739,3.084612012634908,0.14602182824776966,0.34247399498056263,0.20931391105035232
6.136488968,-0.9873829552671491,-1.0791423447531612,3.044568658571812,0.5599091061966198,0.3636797562997273,0.21519298913215068
6.336582038,-0.5033696074692277,-0.7592153631948657,3.0926407177132393,1.0855159769756517,0.46945458419161656,0.17921357690103454
6.536480165,-0.1431349991717482,-0.14089378975826805,3.402234796822948,1.1370305261041183,0.5485007743834945,-0.02921599075108749
6.736562711,0.10526788234345036,0.6333215952814379,3.681698272801065,1.0847461390444235,0.3967716727389893,-0.139174223995632
6.936481795,0.5940866178585128,1.075899892094735,3.544149887554132,0.772742017043549,0.2654141597259345,-0.19439297169118408
7.136486689,1.1476660027023688,1.4803064373176953,3.295858286787823,0.28392795700097984,0.26726156663640616,-0.22101945414785631
7.336500152,1.6653678082891508,1.5383347617028467,3.128596064677005,-0.13057588428976646,0.3827579612506922,-0.2486040353679779
7.5364816359999995,2.3610010360945246,1.1894883553595095,3.0573117242019108,-0.5783335751745549,0.46741422505999736,-0.24755011562344328
7.736478901,2.7543054754840206,0.7385729185773456,3.2763808317816103,-1.1070475973218772,0.4785687068915533,-0.24587891576085144
7.936503337,2.965015048897043,0.20831206980905798,3.237150400661595,-1.5904455345948252,0.4551262655692685,-0.23786106075422014
8.136491312,2.804637586575018,-0.5305598697481371,3.290429046195062,-1.9888174351335193,0.39981945393480384,-0.22624093414990148
8.336491748,2.446851329600699,-0.9645844898894254,3.1457324338204318,-2.3987950981758415,0.34578251991843045,-0.24150702953820924
8.536629696,1.9108817167270458,-1.3020399519634935,3.114841101804718,-2.8403657860451,0.35091111313286943,-0.2548632731971615
8.736577082,1.2693256354341245,-1.3509550618494393,3.104102187695898,-3.338068737914168,0.40942637498628576,-0.25580910657599104
8.936479131,0.7937340224494145,-0.9669121199426476,3.1477471571961897,-3.792447559492129,0.49882009720439496,-0.25675560771534706
9.136581835,0.2782176048436878,-0.5686978586510401,3.404294771864775,-4.303721526300326,0.5837955835972315,-0.12279318187845738
9.336541681,0.02253798783332899,0.0865141898062294,3.721395648330743,-4.227100684998319,0.46490352918449285,0.049469349297916056
9.536478436,-0.4076170724919607,0.6840301124361203,3.84867096992685,-3.9808852412380618,0.30523671789223067,0.1319576569126356
9.736547634,-0.8815123817535654,1.2206143978092028,3.587953048634884,-3.568769921476346,0.23208790766011855,0.17410898387928686
9.936479021,-1.431476688705937,1.3748355082223795,3.2839875106268277,-3.144704117775175,0.25179359434168624,0.17954919055487023
10.136479573,-2.0879041687864017,1.4032006517312035,3.1318652968741096,-2.7549102041053115,0.3146523192483551,0.20087920647194143
10.336477498,-2.5689625511052108,1.0374386308848091,3.061712778897331,-2.32813886359549,0.3960554644094532,0.21877141766152605
10.536482879,-2.9997450009676885,0.5390026411036601,2.9664753554761245,-1.8243736754246314,0.43176996004242235,0.22386784786002642
10.736530334,-3.046814301460429,0.015534350204669204,3.0267980101195686,-1.405099217163847,0.5091646881609899,0.21517375848640863
10.936480591,-2.8967233331974356,-0.5459949557137006,3.270283002621414,-0.952855282263609,0.48290613871498483,0.2061679802476726
11.136571576,-2.41924701459336,-1.0734427876036043,3.15565808332495,-0.49555799751652874,0.4386454186275838,0.2043679813122588
11.336563581,-1.6878459558975292,-1.282795934298079,3.316796877098061,-0.11123675500813976,0.3880547324957025,0.2144377340803967
11.53648734,-1.1858787096025032,-1.240316909351892,3.175841548502736,0.4504858456825828,0.34423342491917525,0.2103114966115332
11.736481924,-0.5962852705578453,-1.0359548388667343,3.0621095430482717,0.7639024303140864,0.394881442743848,0.21958618043704423
11.936482534,-0.29095379709492225,-0.4480837693257697,3.2814354369475986,1.1147945355547255,0.6052286154509612,0.06333520954091425
12.136487064,0.022688396936652155,0.14791559938272447,3.650866563386583,1.1606862480695694,0.47653911949127586,-0.09341482478859331
12.336486734,0.2949995964156012,0.793882702584062,3.5701896190236124,0.9208698695781844,0.2991629306532198,-0.18261610609127352
12.536481653,0.7621084351050973,1.2679748386099432,3.443487155855748,0.5029576014706411,0.26171203687216554,-0.21280695322317666
12.736479254,1.5003648915899919,1.4666558597334622,3.1728053475707223,0.0727261616308633,0.3163533192031617,-0.2324671184022634
12.936482576,2.15204494602236,1.2711352300856724,3.167491167933777,-0.41888361834506166,0.42857964164921164,-0.251801457844754
13.136475286,2.631883485748252,0.9886286437920336,3.3362589093671726,-0.8344045257923453,0.4784211119880423,-0.2543930057458535
13.336479352,2.961600486778885,0.3726157969497029,3.1922283196220906,-1.3158662841858024,0.4622296834185535,-0.24928327074528442
13.536569848,2.819293377447663,-0.28871889924946176,3.3065856414669037,-1.7371710563446836,0.43272712936245133,-0.2380676736859517
13.736482999,2.700377705569675,-0.7823368477583242,3.2428873467893893,-2.2651930829217246,0.38261198930724294,-0.23961809011770038
13.936483411,2.218350375969298,-1.2125051641191742,3.106993448078693,-2.675413514396471,0.3563361704979433,-0.24276520801157378
14.136499307,1.5369494265587094,-1.37261822895407,3.0872287207853804,-3.1386998875894623,0.3916829212401273,-0.2592548123031875
14.336483839,1.1116642964272452,-1.274405336277322,3.07388864604841,-3.597345722586425,0.45329769878788145,-0.2582990356089344
14.536500599,0.5205947161705735,-0.8875293684672168,3.267986032341746,-4.030871519476982,0.5448493006658425,-0.20843343924626206
14.736550225,0.06073411394206442,-0.2651580077961144,3.564826536680871,-4.2997410568564325,0.564616716960216,-0.021605118502364136
14.936491886,-0.17020286476472654,0.4110350760762199,3.7756161240825836,-4.0833286366911805,0.368643510532049,0.10062799375495146
15.136497666,-0.5443612857873504,1.0084552172678536,3.790500542817796,-3.8967316461139565,0.2521476745949646,0.1527676049035638
15.336497096,-1.1775535883771526,1.4084994530290786,3.5286879477420188,-3.3586652552459553,0.2445842991449312,0.1747951102721573
15.536481167,-1.8511633319607521,1.4421507447627204,3.1431025496714478,-3.0062756572068428,0.2774626328768338,0.18821663217239937
15.736572319,-2.3388673620050193,1.3573978040549641,3.00049790673411,-2.4640911519987827,0.3603547338356621,0.20095123065076295
15.93658433,-2.7801725894849874,0.8639131667745394,3.128035291120579,-2.158635895169675,0.42856235124981273,0.22237478821458417
16.136479188,-2.994770630609208,0.16565144810780663,3.0761452878172553,-1.5631290654486263,0.4590116865737192,0.22191710324756805
16.336500533,-3.015839245865703,-0.3134606437526974,3.2063323739742655,-1.1328303119696652,0.4868535190230946,0.20930104557260903
16.536493993,-2.660564563204893,-0.9230458393569654,3.169352033903091,-0.8243817335316708,0.45034052244255957,0.1966157635588129
16.736549951,-2.0582598670279966,-1.3160684052363447,3.1308616815287427,-0.3245978488720845,0.39975322715977535,0.19985253546114778
16.936480588,-1.5092095307125752,-1.4011338506436684,3.2481182635785375,0.11732644124581143,0.35627544369026887,0.207837905736132
17.136544939,-0.925053320163477,-1.1603557001754605,3.0295344727649547,0.6275491006484907,0.3664240646273088,0.21057139151968285
17.336480119,-0.4095620201925136,-0.6803078566192171,3.0863826167169925,1.0129194543945503,0.49039416750803666,0.15567151686601463
17.536481021,-0.09444517624093593,-0.1137296437915579,3.5364810145299472,1.16005608932562,0.58042834288152,-0.04004767638262714
17.736480149,0.15043160219931978,0.49836657086770375,3.6782029431792713,1.0617972341354167,0.3738283923928216,-0.1361066469697878
17.936551595,0.5725528807175344,1.0678796522356326,3.4938672748437276,0.6449961776518777,0.24852708750673458,-0.20193011304563588
18.136496559,1.127315261233546,1.4625141988755233,3.197266745277915,0.3328963822183907,0.2585294536078767,-0.2246757426090149
18.33650862,1.663935403150333,1.513015110901494,3.0957683116105907,-0.12083091328202236,0.3801702707246313,-0.2547730222296354
18.536491175,2.4272716819777953,1.2676392792839484,3.096396907934961,-0.7417211329823512,0.46604531041839825,-0.2564036873345726
18.736575692,2.7351608356869064,0.7820806361520695,3.139156607381017,-1.1277430880541781,0.49857880623947853,-0.2549315035966279
18.936481661,2.980456911173873,0.05888012979718203,3.2997974013445064,-1.4700121888556708,0.46575068494176114,-0.24394408545103607
19.136524366,2.7450512644469836,-0.5340511100482025,3.2213281483980447,-2.0339585964604985,0.40509238587749424,-0.2424025995061396
19.336487593,2.442521374713159,-1.026145927573182,3.24563096022312,-2.396729700680213,0.37590664777658,-0.24564202681939964
19.536493203,1.8923245908962851,-1.3174884885400557,3.156355927033223,-2.8809340724901222,0.36006426126401264,-0.25315925136400713
19.736478307,1.3983734379629296,-1.1871770074255321,3.1209553280964903,-3.423795956560265,0.41077064399157154,-0.2687583010194699
19.936478579,0.8602715175808728,-1.0759990733127185,2.83632810564017,-3.899650899793221,0.19493463690443397,-0.34660953921258497
20.136480517,0.3507681198397437,-0.592132106300208,3.248255285629115,-4.345849489297546,0.65,-0.11466131595223066
20.336480028,0.1311784866250069,0.027966114684115063,3.580348125717474,-4.175730263428662,0.5034558508437553,0.04276879803507794
20.536479591,-0.2622495867506837,0.6367466751960724,3.7881134517826216,-4.091881409592257,0.33531996166047273,0.12331821483909376
20.736494047,-0.7990881156861718,1.1721140415876783,3.589822426763029,-3.591999955742876,0.24472767671822762,0.14979230352215053
20.936480173,-1.4328411550152163,1.4427232982589966,3.2803124498783225,-3.1554791657795103,0.23151668205318507,0.184594191255922
21.136498232,-2.06439221094735,1.3449591881548917,3.070122401782253,-2.684034010657106,0.31525962775490773,0.201195283871474
21.336494782,-2.6376390653704185,0.9888364740261848,3.0237237097940057,-2.2479600673774924,0.381717906380776,0.21380838348846756
21.536485062,-2.9557700505976165,0.5777311166488697,3.1119512032773207,-1.8794401869690391,0.4341846315659375,0.22980910807635377
21.736483324,-3.023734936106412,-0.1586699293152969,3.1096296263917655,-1.4044198732267192,0.48656333711911914,0.21750962178933891
21.936479442,-2.847557514560452,-0.6997749714228269,3.085936483666159,-1.0247718777712238,0.47680146147118607,0.2136435703877277
22.136479371,-2.3434128846730533,-1.1875812715145018,3.2255991247159375,-0.6430930966799331,0.4357493829347959,0.20865343042515572
22.336481126,-1.7794525024622556,-1.371347160194448,3.2194197963611852,-0.07283193164953816,0.3742427037942696,0.21198319206530733
22.5364802,-1.200756752959348,-1.3383889804901992,3.0606257405929167,0.2945445279167638,0.348720837838258,0.21961321349207233
22.736477445,-0.6483350162781247,-1.0114644359422724,2.9377604877049044,0.7509558400002765,0.40589719876606434,0.22032722625825238
