time (sec),x position (m),y position (m),forward velocity (m/s),"heading angle (rad), from x-axis, positive is CCW",throttle (unitless; -1 to 1),steering angle (unitless; -1 to 1)
1.1254747090000001,1.873877608042148,1.413066196345984,3.0648474303581694,-0.28782388353691124,0.3699050148573615,-0.1764107586382356
1.325478524,2.404499777161293,1.1313234900337932,2.993964848764434,-0.7302756435879911,0.3590368844439554,-0.20232646251490974
1.525437577,2.745817388832516,0.6562741620876563,2.941051320478851,-1.1919782667238,0.4156712178809211,-0.21238979515087192
1.725478144,2.8373830425359894,0.07645594916926506,2.98291841694874,-1.6692508847619902,0.47565439325138065,-0.2114601205890064
1.9255105000000001,2.656965368672001,-0.49489085426554685,3.0615450721951287,-2.1339383541363826,0.4806251948584731,-0.20397442446798592
2.125444009,2.2342916652537577,-0.9359626364762065,3.1082918046098302,-2.5785291011505374,0.460399550449353,-0.19176446309376427
2.325401902,1.6570773329200186,-1.1619260189875162,3.1102074453044692,-3.0265041414047884,0.42510681729274274,-0.1965614615801357
2.525479591,1.0518397192123892,-1.1154909239964053,3.023022308579504,2.8005063708759312,0.3553273464009504,-0.1905288051104603
2.7254495160000003,0.5503789768821464,-0.8151785466830775,2.904639363550544,2.338041599699999,0.36728721279509075,-0.20098968348666893
2.92544249,0.22789427709719265,-0.32482620156041525,3.08040312019868,1.9730795800004381,0.5314608192851048,-0.08865775072970733
3.125396515,-0.026430717187535938,0.2826067598049421,3.428728647898308,1.9654359305200249,0.4371495539959549,0.08100644640515882
3.325423537,-0.3659925397141066,0.887272998446697,3.4773045116040646,2.19991969302008,0.3126221102434937,0.16962479143358905
3.5254833320000003,-0.8587722121485689,1.3533691772653162,3.325551778613969,2.6471920179578796,0.30148341566225495,0.1995333798428926
3.7254685910000003,-1.4706818813737106,1.5576035882706611,3.1959802226299705,3.110116647474958,0.37974025446220955,0.19835749687012236
3.9254111490000003,-2.102818200292619,1.467997119160944,3.241617277324834,-2.736145142953082,0.4331222637417994,0.20381667849853788
4.12540514,-2.641428798689887,1.1111842600676385,3.2993424206081015,-2.3181736045078742,0.42499640920638376,0.2072067052008706
4.325421957,-2.983477463161673,0.5596494215654271,3.268417620278302,-1.8598151935997598,0.38327762030933005,0.20418836649811273
4.525472431,-3.051992751056243,-0.07769688718117054,3.2218571425999376,-1.421176804632368,0.3463198953878794,0.20284230824905775
4.725398951,-2.8513223510233496,-0.6677177347569441,3.0956719648184765,-0.9733495622640612,0.3183405533345175,0.2122218378298613
4.925477581,-2.425323619416629,-1.0911126095030943,2.9911521490893147,-0.5128059626502788,0.3625021488354424,0.22975892470431492
5.125497928,-1.8563890639987146,-1.273896147333903,3.051079123585762,-0.060821389283663714,0.4529908281430926,0.23514324710338302
5.325382549,-1.2458992915207898,-1.1819717091847406,3.1686687727700886,0.4058107070395745,0.4577463052751977,0.22892724266005518
5.525374837,-0.7253517878088891,-0.8256023070401418,3.1998087378526012,0.8669508631871624,0.4477662501230384,0.21435622206305457
5.725379821,-0.37865617442588023,-0.2676872522895761,3.4400938623163233,1.1469647551700302,0.5385871890661263,0.03778209273729825
5.925463446,-0.05856147897654053,0.3763450246217273,3.693740029992883,1.0120790005783207,0.45372132069071835,-0.09773641938497497
6.125410197,0.40476837430447205,0.9444718551692249,3.619020379222069,0.6727723438171649,0.3807935616796926,-0.13681154827733732
6.325393337,1.0121506647500003,1.305363226398906,3.4684688558977985,0.282615849878985,0.3317799369433623,-0.14241068013522354
6.52544055,1.672348496357267,1.3949938784972418,3.2623189647554267,-0.10557400675203615,0.3067677648693219,-0.15150668569341108
6.725414875,2.2749680570198314,1.2213922249156317,3.074613552902239,-0.5171698062890383,0.3167905234089379,-0.18284529528208027
6.92540448,2.7230242694781777,0.8282962798842639,2.9556277414291907,-0.9548333175379904,0.366890908398903,-0.2113149150883293
7.125404056,2.94439745741787,0.2914825300605084,2.9197331034070313,-1.4439499967034266,0.4458804032941415,-0.2207811898680598
7.325405648,2.896214538058222,-0.29751448862212104,3.011864655473164,-1.8951346005191358,0.5029112945670638,-0.21573834717027124
7.525406448,2.587409221376187,-0.816602855958467,3.0599335169523365,-2.3703689575363978,0.4788768407359455,-0.20639004855162119
7.725403898,2.0716508766406876,-1.1500718594915396,3.1344960483053206,-2.8068699129948196,0.46048491061413294,-0.1922686258916703
7.925395628,1.4621268811886494,-1.2352603673603761,3.068814416077376,3.0181556876544255,0.40314449323369456,-0.19163448430840313
8.125402871,0.8911469204550014,-1.050350774530312,2.9870039349919364,2.57221718701908,0.35752324492083987,-0.19492282807082553
8.32544344,0.47149343616546613,-0.6445880668071368,2.924772995817867,2.1280219049898923,0.407083670383348,-0.19819313257026255
8.525523025,0.21387363921073632,-0.08492140951001119,3.264654515818448,1.9174059129597743,0.5292974623244464,0.02002704637769674
8.725402509,-0.06251118295998905,0.5404372429216374,3.4952608412414,2.0478154774481356,0.38581575988587585,0.13518723397766352
8.92538891,-0.47604590112679535,1.0962613789482212,3.43647110412751,2.4102970974877427,0.2949447375785057,0.19259853977769326
9.12540685,-1.0426275006619652,1.4401270001620161,3.2783397782167385,2.888414773349072,0.3460181250612717,0.19660092237952764
9.325372983,-1.684646292328509,1.4964984351560382,3.2550227695826583,-2.9777077452673106,0.41949738086168437,0.19955084617138336
9.525398799,-2.2963391986071526,1.275456232957016,3.2927549403288943,-2.5596679069752293,0.42722133586562894,0.20188790692867883
9.725403225,-2.763530533205845,0.8196228534597042,3.271664421285791,-2.104727102708258,0.39267518746733904,0.20875341205730544
9.925395135,-2.982848485242773,0.2163357205957628,3.2047934153318036,-1.6462554093217059,0.3751399757376196,0.2007180402653864
10.125417389,-2.9203467289488056,-0.4092513302637973,3.122531367609951,-1.2044196464758081,0.3225749867071513,0.20475420842698802
10.325404477,-2.6044805658756287,-0.92619132384318,3.0130875248973004,-0.7479295967350371,0.31793535021642283,0.22275019059122023
10.5254035,-2.1014974504048998,-1.2353481836851934,3.00309895732723,-0.30191151339007577,0.4067313543125287,0.2401486949843817
10.725399844,-1.5006526910793483,-1.287662124696016,3.094302494904533,0.17425449138496563,0.46295352798171596,0.24063129085120968
10.925427508,-0.9249225503293909,-1.0585220762940564,3.155989880522804,0.6364795826990912,0.4671742877440167,0.22229645950860205
11.1254008,-0.48727086897237587,-0.5907672829432791,3.2973634804325704,1.0552494335906983,0.5123195418916494,0.15272876747894937
11.325398491,-0.22373918432000836,0.033869521495565005,3.512490370289877,1.213463296844723,0.5315325009179909,-0.08708969042340589
11.525409246,0.12425583309988823,0.6527587785133834,3.574342255627653,0.8518103322389468,0.43395478641393886,-0.13480480386528812
11.725401909,0.6559822706581178,1.109226583619901,3.467400165176495,0.476400698704756,0.39990769193813824,-0.13707895107111392
11.925405204,1.2974440346647924,1.3267885759400813,3.3214421413179602,0.09102677453141689,0.3447884101545309,-0.1417448728701623
12.125398133,1.9404197362324282,1.2802510422445512,3.1616949396403466,-0.292728130313243,0.3123519010029784,-0.16552098443911747
12.325409294,2.4765657379864057,0.9932973361338416,2.983540563122529,-0.7314180280515029,0.3313982544057062,-0.19837210969241564
12.525401438,2.813864880750519,0.5222151215010283,2.9079440372787633,-1.2018196643399994,0.41227199649151436,-0.21816602460488135
12.725398644,2.89572704211171,-0.04927535622155671,2.9526610158766955,-1.6712271626433468,0.4796795748215979,-0.2107602168323189
12.925398363,2.710450284026356,-0.6130725362166344,3.030973814107606,-2.1375944849583575,0.47890692998446965,-0.2016485549643745
13.125460396,2.2850704430469704,-1.0474579028140671,3.113131435528599,-2.5810605004081792,0.4684251251581038,-0.19799037649728954
13.325401756,1.7081659980049817,-1.2690920964454269,3.094986661603199,-3.0246650915988162,0.4266882327934618,-0.20058323833658803
13.525445711,1.107560799857348,-1.217400235494504,2.999361818569451,2.7892492024136066,0.3786390188551217,-0.19318880897517282
13.72542756,0.6113290510735321,-0.9111913152414409,2.9109673631991035,2.333079010650783,0.38287085699858403,-0.19908858187269396
13.92540152,0.2871949885647759,-0.41817504378880643,3.1070221984842217,1.988494882613327,0.5198177074018003,-0.09009236668720892
14.125411697,0.027113670477941564,0.18894520126905281,3.4574454655857654,1.973442416952066,0.4520889875983377,0.07698325717587867
14.325403422,-0.3169775947904816,0.7965295891665974,3.5056635958336897,2.204699587672876,0.3291953730132859,0.16512202885950844
14.525405756,-0.8133468152415642,1.266651918565105,3.3683640945616236,2.642008454042571,0.30262396255114016,0.20038743914333157
14.725435793,-1.4290650593269545,1.473468517491187,3.224636900825026,3.096254959779648,0.3728892333755929,0.1939436703225361
14.925403411,-2.0655680012646678,1.3894775049598962,3.2466349128437395,-2.7628163200927327,0.42585630983236733,0.2091102761287741
15.125404463,-2.6117172400825592,1.042666452551477,3.2625060145316938,-2.3243634097847568,0.4165175158164003,0.2086849130691828
15.325398953,-2.956692567519946,0.49941495898519633,3.2481488250960333,-1.8745962712759345,0.3824091857519491,0.2042912792857908
15.5254352,-3.0325430105181606,-0.13335945411365682,3.178232055627426,-1.4334692971872587,0.34441580697305707,0.2103761388987859
15.725436636,-2.8402437238594733,-0.7202716133184538,3.053288857035686,-0.9760497047448059,0.31171836083217347,0.21439551512932936
15.925398436,-2.4197325435727337,-1.1414100904382796,2.9846467031139454,-0.5207861876509076,0.36623479733135045,0.23450369639948632
16.12539833,-1.8548989667097373,-1.323763515193035,3.040226110872965,-0.054894260985446974,0.45195371019182656,0.2405036447450615
16.325469389,-1.2475251296673222,-1.2278206181003661,3.1482146980372767,0.4031079439427493,0.4665202932058214,0.23086096435783568
16.525409195,-0.7251812891823297,-0.869394674157134,3.230964573236232,0.8504089106354441,0.45467249031629015,0.2183291631855708
16.725401266,-0.3670721283700531,-0.3124956559939229,3.4615992686374493,1.1266197114242662,0.5461478103179813,0.04069264626790317
16.925400965,-0.04082867142044202,0.33331401671287,3.7292430005199835,1.0267911560485383,0.45345305018834176,-0.09529554759972632
17.125448733,0.42066460955177937,0.9110864910412341,3.6487174327827816,0.6940845000612058,0.37990355827009875,-0.1408245714538341
17.3254408,1.022658377869975,1.2821266980347998,3.4437017453418663,0.2934485304471054,0.33099354062336095,-0.14412975426925417
17.525409614,1.6794088482498086,1.3781735869678136,3.2409354837652526,-0.09380817061447115,0.3051630921369232,-0.1560259484801183
17.725406934,2.280963255056138,1.2096296335310692,3.04226849868734,-0.5076948037383597,0.3110796569822623,-0.18466701272186758
17.925401465,2.7262208390261566,0.8205068320365769,2.9511372870836547,-0.9535407107414726,0.3835563338171552,-0.20667448386929488
18.125396329,2.9490812451786534,0.28530587581370537,2.9191950051335986,-1.4260868763757943,0.4453873737815661,-0.22345340648487996
18.325455556,2.905504764037147,-0.30059039368401336,2.984723396453022,-1.8909278098307645,0.493144841438445,-0.21579076462795335
18.525395974,2.5990976019977996,-0.8163132881777274,3.0590612758802656,-2.361765437899458,0.4909630229591125,-0.20356133088509332
18.725442282,2.0854293719930297,-1.1530011257731376,3.1457890124352366,-2.7926121512891493,0.45594653233893234,-0.19637933829682444
18.925411326,1.4749771150807496,-1.2470133465301911,3.097627653858352,3.042351101552277,0.4062342336366518,-0.19644800206878646
19.1254065,0.9001968506169397,-1.0724293965892415,2.973431215201304,2.5873895641140217,0.3594430977388091,-0.2024618700364658
19.325406938,0.4775492845099536,-0.6719940459206201,2.9447394235220674,2.142540854494399,0.44955660627153043,-0.16950164303208368
19.525405905,0.20932512807819906,-0.11279228592943243,3.3001933886475143,1.9385834019835682,0.5691406716676524,0.01708533504744359
19.725399641,-0.07644410462933265,0.5093246523328107,3.4898114918262326,2.059888708908846,0.3703330871711799,0.13180954598668043
19.925404984,-0.4938823015478388,1.0653670248937097,3.4685451751874465,2.4011804646760404,0.2999865740662131,0.18933055997993561
20.12540331,-1.0643902403493748,1.4189188471926526,3.3071899123225412,2.8709080158287383,0.3451868168084744,0.20258357857135081
20.325454945,-1.7073437156408051,1.4816758289077534,3.235407015023207,-2.971621848684708,0.39993707713094034,0.20252774944945684
20.525410681,-2.3136574101101806,1.2597980899714847,3.2742269265175263,-2.548522679327716,0.43135493639961536,0.20814486866397716
20.725392071,-2.7739369759582444,0.8021195091994369,3.2799218012733045,-2.0993645018748213,0.4034475107563094,0.2059208320825946
20.925400044,-2.992116956408172,0.19727692615836878,3.212403928033411,-1.6513012713693613,0.36115643283018983,0.20345053675243663
21.125395234,-2.932211173617648,-0.42637569219741067,3.120948990068188,-1.2091244909294154,0.32034405944985656,0.20965894997595402
21.32540257,-2.6171805553803598,-0.9428455583355971,2.990949006939081,-0.7426176526639169,0.32246249424461526,0.22875627893140918
21.525399671,-2.1134846612268285,-1.2479183602851682,2.9842613248789727,-0.28104541988289633,0.4230875016763931,0.23611051476120692
21.725399469,-1.5117221158501368,-1.2926473867690957,3.1109777740141538,0.1857360877042415,0.4637517805521715,0.23213083434722828
21.925401641,-0.9352177801320269,-1.0576654491583033,3.1689563916903065,0.6416091926072648,0.45294161288897616,0.2200644693919822
22.125400433,-0.494888896202145,-0.5872374329694608,3.3237612984443756,1.0334687303194114,0.5080249660344961,0.14965355050584941
22.325398826,-0.1801857102091756,0.03114807610251844,3.6115369905616266,1.1161752465857984,0.5079395901478602,-0.043161118670640236
22.525399258,0.20421677698771948,0.659017235789788,3.6984165037457086,0.8736796044252673,0.40016788394649216,-0.12319058605001952
22.725451454,0.7387384193069063,1.146610569887356,3.545049421227007,0.5093352835116509,0.36495576596210866,-0.14766846574768377
