time (sec),x position (m),y position (m),forward velocity (m/s),"heading angle (rad), from x-axis, positive is CCW",throttle (unitless; -1 to 1),steering angle (unitless; -1 to 1)
1.125339672,1.0344740687204148,0.5054866444707655,3.5422668429681425,0.5708257858891937,0.3523471019878397,-0.17251519324343756
1.325344707,1.6330437837382914,0.7697365261321715,3.3766120977560576,0.1550333161579472,0.27823222756000704,-0.18664395506541254
1.525362306,2.2825568166138175,0.748125820035893,3.199552237225612,-0.3083417880013584,0.28943402903677584,-0.20130808988773136
1.725344635,2.806452098011543,0.4641248884657398,3.1227713196208216,-0.7547851057479158,0.3767076489185953,-0.2342290150980938
1.925364381,3.161474535576482,-0.06764345759280624,3.0819504244580638,-1.2740201228010424,0.4516178327978617,-0.2383468346147468
2.125346618,3.213149033376714,-0.7210956962108132,3.197375576477316,-1.7723594604380895,0.46963903121567996,-0.23340370353695697
2.325350491,2.9802042921976395,-1.2812902680104021,3.2796353879698645,-2.220690468874267,0.5255265080743399,-0.21960900687303947
2.525343301,2.4632469837579043,-1.7419871657573105,3.363813591890342,-2.6848087101485727,0.4780342472554318,-0.20757874580868774
2.7254374180000003,1.814550208241247,-1.9314154060692976,3.4037153516385463,-3.1169411855730944,0.44800171888553086,-0.19936439623600533
2.925348725,1.1743818993095867,-1.8487702946162574,3.4112563163238687,2.7568453846908865,0.4100418239492111,-0.19688407293755322
3.125337725,0.5812365520997814,-1.4708060901777822,3.3451094854278858,2.293578164928306,0.408007381126923,-0.19374904225180745
3.3253925840000003,0.22909396859712822,-0.9313835579610643,3.5390281762134856,1.9581185808785422,0.5468061108712177,-0.07317651233053779
3.525349849,-0.0643889599411185,-0.24432484344093383,3.8550403298601803,1.997369435624458,0.4160298196691082,0.06677952895598879
3.725354229,-0.4589396989222895,0.4198184750192538,3.8463831444500287,2.2557761928328497,0.24235481421783742,0.13351316835251845
3.925355695,-1.036418136082613,0.9318047813764205,3.5527054362323316,2.721872436728426,0.18370567077635788,0.16240718268404924
4.125340341,-1.6708278157855616,1.1140781358584606,3.1661606942914426,-3.0956526998378764,0.23633332842780527,0.15863031178989018
4.325346752,-2.2297580777135146,0.9987843404352851,2.862880634582459,-2.6464999325832803,0.07691107686225677,0.2625782641772394
4.525406746,-2.631400304363361,0.633692624447995,2.8036927807718537,-2.123111386888004,0.5307618982013599,0.1667698399184479
4.7253770280000005,-2.838616607363078,0.04965476587292987,3.081869793945672,-1.7083432373928031,0.4388544497002824,0.17875725230726056
4.925363958,-2.8005076727132567,-0.5400178523812581,3.1505087830119227,-1.25613028004169,0.39572007006931936,0.19693899808942722
5.125336041,-2.4782860937775673,-1.1060622963183544,3.1343878316470106,-0.7691733556230846,0.43563663839993466,0.198141311439548
5.325343866,-1.9809956667337927,-1.442377398811192,3.213751151494508,-0.3444526206286539,0.45768212835773314,0.20300585305261643
5.52534805,-1.3443491353621,-1.5392525359181823,3.262455607680845,0.10865163031794248,0.4597054986697994,0.19843545345328173
5.725392951,-0.7217635474215005,-1.3489749034678868,3.271868093092637,0.575710035258074,0.40289517271174385,0.18242654378080833
5.925360727,-0.24556961105428385,-0.9101783880924978,3.272723537627512,1.0013504228132017,0.4240448488587739,0.17398299061570519
6.1253364359999996,0.037532524053699924,-0.27300569281236137,3.457875129360403,1.2743864217457899,0.5488219855899156,-0.018720937810906405
6.325409377,0.2699666696620683,0.3658983726752593,3.652603926356115,1.1195048928116391,0.41919290493591815,-0.13365907937555757
6.525358968,0.6756434232449215,0.9667926090763636,3.5900409737185215,0.7527151463126451,0.32539638688114436,-0.16837773015460897
6.725419938,1.2542309861487029,1.3536790962661598,3.42809856958182,0.2998524390150238,0.3308235710355378,-0.18226835048620232
6.925348033,1.9123693657179481,1.445214809454312,3.305172112093184,-0.13653003676236616,0.35562117931579895,-0.20177162619409064
7.125442078,2.5531616792110308,1.2213810280867297,3.2545140140508604,-0.6116540093876071,0.4193679326105838,-0.21617871649590434
7.325364694,2.9831135296059426,0.7818817092023508,3.2722517529694737,-1.038379492128401,0.4445310323148104,-0.22444821052900218
7.525355971,3.195916005100871,0.16523065147041135,3.3002774666332932,-1.5140920157263378,0.45193416002478937,-0.215823440204868
7.72543704,3.1148885483130786,-0.4899864621613452,3.3857762524490504,-1.9596078520254065,0.5048485757362247,-0.21450507284466136
7.925368079,2.7543128224092097,-1.0548628866491025,3.404987271428755,-2.407169639067634,0.46531215549437344,-0.20280266662856888
8.125336238,2.148220556478245,-1.43074395307872,3.435008175964613,-2.859054976732732,0.42796758956831604,-0.19986578029682128
8.325347076,1.509127783278026,-1.514011366782419,3.378038168239612,3.0067884118294788,0.38346440470128634,-0.1984796424723568
8.525345537,0.874302439743912,-1.3185876310904356,3.3246003225659373,2.5744937450305847,0.36283913063849826,-0.20107891113434637
8.725345397,0.39257001086795423,-0.8784494821532285,3.3034274829785746,2.1502695171034354,0.43996842312766954,-0.1705275280162496
8.925347327,0.06725687986208576,-0.2687644543720178,3.631857482574733,1.9919452275127787,0.48652153899169087,8.507574179937669e-5
9.125337338,-0.30115906352586297,0.4254673458710579,3.7926305751664398,2.1496174999662054,0.31339814916557673,0.10099432245826216
9.325350649,-0.7630050746875027,0.9631554160148659,3.6684430771868186,2.4808119840036165,0.19847429790615542,0.15283112789748632
9.525348712,-1.3701857198131409,1.2976107192894177,3.3410956186377168,2.9493627646137646,0.20571287946723169,0.1686417053904449
9.725450031,-1.999990363012934,1.3164218026624541,3.0748318217258293,-2.8730261876815706,0.2998529227804492,0.16805713064048627
9.92544117,-2.5433596670224525,1.0484995409665223,3.0597771543919534,-2.4325457132170656,0.39915823341814566,0.18831466715806663
10.125335498,-2.927178426900814,0.5343741088497961,3.1235183764214898,-1.9513934672016382,0.4164117177335039,0.19694486783658732
10.325347023,-3.034636365276271,-0.04627595195029512,3.0932735729796925,-1.5029600542541337,0.4252132309904441,0.1920700609060708
10.525352833,-2.875882847104901,-0.6564730422339645,3.2080858203678058,-1.0610191650590293,0.456641197961077,0.19349402851428907
10.725343176,-2.4608698055464884,-1.1466383972125496,3.258664742264767,-0.6096185331249824,0.4427510235565995,0.20637313548541666
10.925371182,-1.865971126723421,-1.410350071967045,3.289398937824392,-0.14894970866287333,0.4593510791160511,0.20779471296416363
11.125333871,-1.1779331701174567,-1.3758609669065758,3.3355993040228635,0.3177139211387879,0.4272584267917479,0.183031090705862
11.325358604,-0.629823200396234,-1.0807800407874621,3.270146157827556,0.7461946254363744,0.3947493654901807,0.1923462696773427
11.525423570000001,-0.23309425596797578,-0.5605193832841606,3.3325752676460514,1.1461378980252859,0.4780764661200076,0.09578680502660081
11.725359794,0.02498957707538721,0.08725010080734315,3.6214303869600366,1.1917123436567092,0.48873059575605654,-0.06558863161402954
11.925350008,0.36062690441401635,0.7422810572241894,3.6940516005028616,0.9425434571448225,0.3612162037456634,-0.15569836412328097
12.125336549,0.8977263019242547,1.2774516466802441,3.5653470469437796,0.5188102434336903,0.31842640132580646,-0.18674241796470806
12.325346644,1.5096393337281944,1.5143676230129075,3.416843013575706,0.10703112235457961,0.3375566778298475,-0.19752391618344034
12.525343234,2.170890279149986,1.4692503588780401,3.295975350599169,-0.3328811066202551,0.36791181099905335,-0.20576338157007393
12.725406328,2.7347577481325684,1.1411525183400728,3.2727011595504663,-0.7827669571360474,0.42802534248287316,-0.23092693339255882
12.92535045,3.102839682604328,0.5969286614482576,3.3253185945128005,-1.237069744024594,0.4572739573301832,-0.22813849289133747
13.12533656,3.190171444535867,-0.09086591436854446,3.352974102616114,-1.7285860446860406,0.48088402724186924,-0.22449878480977628
13.325361381,2.99080885436383,-0.6980117298735268,3.4102203533089863,-2.136756469113067,0.48386263812548386,-0.22208352807318252
13.525353968,2.527754439339824,-1.1966122532021681,3.4379358366877235,-2.5794602508801745,0.4481524159791996,-0.2071594323503275
13.72536184,1.8969942370670376,-1.4585184099390183,3.42823020493046,-3.012626948970756,0.3839162163190106,-0.1978590903065294
13.925354456,1.2249972871545232,-1.4302252059914233,3.347493247202491,2.827453140977419,0.3626081946860977,-0.2010409391658533
14.125337307,0.6193365856491887,-1.1016426043240481,3.2786739318039433,2.366703232245747,0.37416066705507545,-0.20300344457330366
14.325435159,0.24129040016142608,-0.6014704098826761,3.435579610031874,2.0378718572255874,0.488530477021798,-0.10153097527493532
14.525356115,-0.08951815527459661,0.042348644727250515,3.760919102547281,2.066243461210584,0.4212597068408661,0.05360345125921796
14.725341735,-0.5131893436697585,0.669392962121295,3.7831970276456808,2.2977577065180186,0.24804620002329283,0.11893577114887374
14.925347644,-1.074474834531749,1.132137664552389,3.5115178330286283,2.7327715302254716,0.17320207521659706,0.15897188265174805
15.125340508,-1.743259048156221,1.3000421404919396,3.1754983604259763,-3.07687198914116,0.25800868100140173,0.1546888143241777
15.325358607,-2.3142579893991138,1.163967880067205,3.072568635202214,-2.641004404715956,0.330792790977565,0.18254341886406375
15.525360684,-2.7747021217306487,0.7757225257781287,3.0495702276480516,-2.1875277277623257,0.4132304997395299,0.18883532410380968
15.725346074,-3.0175182738025366,0.21346382354747576,3.108152516001492,-1.7382557985626914,0.44413883843506274,0.18615297078791526
15.925343875,-2.9918049883189686,-0.415652665927124,3.1943863235792977,-1.2687668929712335,0.4165292916884966,0.19875029101165595
16.125339086,-2.6733132381466866,-0.9982872720590804,3.206478861256306,-0.7821508309634189,0.45853914070673185,0.20415935599440166
16.325339125,-2.143903381115952,-1.3619641147975579,3.266049668887453,-0.34112020879866806,0.46740800335726085,0.20507421741109166
16.525419471,-1.498903990773296,-1.4570964514341065,3.301902094364719,0.11888940179077567,0.44395276270683715,0.19512834402991544
16.725347002,-0.9008097832755254,-1.2766193711505571,3.2918544082874073,0.5505407909684542,0.42285299691859857,0.1798686691891577
16.925360837,-0.41309239288500665,-0.8452926893699804,3.272109391483625,0.9903979761215397,0.425668036231844,0.15741317902048316
17.125397782,-0.10525218866560014,-0.21112447849048527,3.503109328334057,1.2249193216908025,0.4960421411138799,0.0017851020404640212
17.325358947,0.15468639923837194,0.4250277365552589,3.6866691452600118,1.091567693786614,0.4335849936842013,-0.12859775609155102
17.525371107,0.5767909767421197,1.0266947022867936,3.638290235894998,0.7447870535994232,0.33873785365005116,-0.1693057643508407
17.725349119,1.1643708483316504,1.4134881201020049,3.450499183860921,0.2843493003398365,0.32331234293623246,-0.17637189212317253
17.925362363,1.8300997473743623,1.5012358526374159,3.346181874696055,-0.1367207444198034,0.36628758587170057,-0.1961792327354091
18.125335264,2.4801248517175787,1.2754551693544791,3.285228658674501,-0.6029142018071671,0.4056858798430261,-0.21140368204662063
18.325367941,2.914348748456294,0.8338294970342581,3.2912619289211333,-1.0362472872542177,0.44270493037736564,-0.20907447973903212
18.525366896,3.1330908908313235,0.21412958410289445,3.318386738830734,-1.4998662294543514,0.4631838509723536,-0.21620592469559755
18.725364304,3.0585599930890193,-0.4461391140411107,3.375059171017107,-1.9492770427482076,0.46704230340948855,-0.21569623832705243
18.925354786,2.701351204815727,-1.01340578026941,3.387249738422359,-2.4040913369745875,0.4574539952050283,-0.19814935714178403
19.125339068,2.09752588421261,-1.391198135269499,3.430324628560213,-2.851667749092736,0.4479656417871789,-0.2009192687993977
19.325354889,1.4618556049158205,-1.4761807125716906,3.3688332359734177,3.0146166636067298,0.36640927714614246,-0.1905002187887733
19.52535451,0.8312473375952183,-1.2817124385036263,3.2875377822759453,2.5753123887005693,0.360871190683432,-0.20046932636479056
19.725370032,0.35733274448170443,-0.8425509583550703,3.247810674931326,2.1355847967934114,0.4225262796140229,-0.19130419261412795
19.925374532,0.03612564959058003,-0.19904513832680767,3.607133704524384,1.977972175650608,0.4866912169871705,0.015290940020448918
20.125335654,-0.3078535172789951,0.4613259231543075,3.7729826536167055,2.1399974063226677,0.3205551241641611,0.10532822444848378
20.325346731,-0.7614118384640953,0.9985640588504143,3.6438280143934665,2.4703802559902757,0.20808885695953255,0.1505874109298445
20.52534656,-1.362565123725271,1.3333185092791748,3.308255020995868,2.951000652251882,0.201405007979966,0.17278034177276225
20.725345494,-1.9862807605796184,1.3499699708124693,3.060889303221169,-2.876953825153418,0.3208600705069622,0.16684657150655108
20.925359274,-2.490518595235692,1.0807459599086349,2.762659162959107,-2.3299004806686523,0.3257385141605074,0.24012313194596455
21.12533824,-2.7998765398329177,0.564857551287198,3.0701884372914394,-1.8944591259219818,0.5351848184890914,0.16443264950221512
21.325347772,-2.8830825184801205,-0.031700020338465126,3.2524511533712315,-1.5123040086443877,0.442262987561442,0.1860329113639378
21.525358853,-2.718670791854258,-0.6550436203409775,3.2225317394528212,-1.0264957648618191,0.39274922704541204,0.1953325911811129
21.725351107,-2.301630796601296,-1.1316692209680943,3.199623439399612,-0.577518871536454,0.4544833442980531,0.19371247287848398
21.925360703,-1.7109552126872505,-1.3770936365654516,3.2519116674868656,-0.12475938725397977,0.44329097650121585,0.18859804639895042
22.125337873,-1.0341835367222976,-1.3278701584890493,3.263558995859069,0.35277891682596596,0.4162773573802647,0.19001682062961392
22.32534902,-0.5044495994280247,-1.022528364092172,3.2234090751123476,0.7808694479744315,0.41340888253567226,0.18318806158333417
22.525346206000002,-0.11770534161971229,-0.4671214682608948,3.3025752657840806,1.2028560316566812,0.47010958108153195,0.10794467997291053
22.725348258,0.10140529947048446,0.148870744349789,3.5657016131871515,1.2151068139012358,0.4828372018661513,-0.08601315064581143
