time (sec),x position (m),y position (m),forward velocity (m/s),"heading angle (rad), from x-axis, positive is CCW",throttle (unitless; -1 to 1),steering angle (unitless; -1 to 1)
1.126742226,-1.275684590941213,0.5964134711807519,3.332505365895224,2.763011104508218,0.2551262912498999,0.17388150683377274
1.326754244,-1.89931179395946,0.7249697529400759,3.105565604323248,-3.0737011591718,0.2463479820297964,0.17036752507758765
1.5267454169999999,-2.472678329385098,0.5751687137505384,2.834624807211846,-2.607424768577758,0.05096918358097964,0.25384411237704974
1.72673781,-2.8615409543639103,0.18227968909836187,2.641501939796732,-2.070571509620345,0.4013262534090804,0.17618030057915712
1.926743347,-3.014625681334439,-0.30931333205435674,2.750608366337762,-1.696616044037279,0.34438849987872505,0.20985170013775736
2.126755244,-2.9518000564634215,-0.8664382414401567,2.8424260684854254,-1.22164243794168,0.35651579161664126,0.23625348999967424
2.326746038,-2.636124605624235,-1.3372567721643762,2.89302565039378,-0.7210246281173536,0.42133316307220176,0.2315591886348931
2.526846665,-2.1177598791760746,-1.609186408621896,3.040519786215184,-0.2388852518376797,0.4692832629699893,0.22243178568628402
2.72673896,-1.4666910634328838,-1.6151010307757803,3.2024607071649043,0.22878109207014527,0.4802431013391407,0.205822141523072
2.9268137970000003,-0.9041057334551822,-1.365953992846781,3.299890088155153,0.6464818605447632,0.40899904033368567,0.19461420074782754
3.126878705,-0.46651625843745836,-0.8854420586432822,3.2475415875183566,1.1000204198632857,0.38253128963088057,0.16734888986190766
3.3268230450000003,-0.23761238296291748,-0.2702893969069241,3.3874543624660203,1.3085558131896573,0.4485425963824759,-0.04349181225465555
3.526826331,0.0016088245027876956,0.379288996721572,3.4963824009065325,1.0653119435643128,0.36128632300677,-0.1618060017523699
3.726739227,0.4571206906561601,0.9396941838059554,3.421788369060507,0.6282725723761544,0.35609350194193856,-0.18436973680136517
3.9267804120000003,1.024351730278953,1.2325001744404576,3.347658335672482,0.2229724517503351,0.36975920655653033,-0.17539981146318273
4.126751197,1.683155658963206,1.2660572643983061,3.2854112942765203,-0.20355690964696097,0.34781058883880567,-0.18772178300402664
4.326755852,2.2809785340318323,1.0193645160466742,3.2372821474632882,-0.6419361307218083,0.34980582861389525,-0.18517497303807193
4.526894928,2.7133664255214813,0.5516615272193977,3.194318809542279,-1.061026113881771,0.3283299360485904,-0.1849326316405874
4.726738587,2.904695230877043,-0.07293387256935568,3.1010419484609315,-1.545127599431433,0.3381215341383467,-0.2105978216666028
4.9267450440000005,2.8086859866779883,-0.6467756764005994,3.0849877031448343,-1.9777833337373216,0.37367721144005045,-0.20650127674585114
5.126752815,2.45588263763882,-1.1466346439468842,3.1059747334645014,-2.43616344177012,0.3938146670225416,-0.20504044436436925
5.326853084,1.9151882426152431,-1.4453269705056937,3.141097556173778,-2.8959522460192786,0.40374118565650907,-0.20882132722997826
5.526774022,1.2940286688190121,-1.474753210979966,3.131819077432975,2.9227245326398985,0.40177659384876624,-0.20286900590731824
5.726737213,0.6923685282962952,-1.2092717351810367,3.1506550987742026,2.4675496008136086,0.35176451630319366,-0.19741311681682547
5.926806507,0.3022961804484676,-0.7603566106469294,3.1891610948057063,2.0651969774493275,0.4117845177828831,-0.14536660362523568
6.126761996,0.02931289755890052,-0.151585512403437,3.48141845225329,1.9601561208731026,0.42545391952055484,0.043610171236098276
6.326750762,-0.30797310220013524,0.4767571270081944,3.590747051947938,2.1955378368703444,0.28935092006192736,0.13786652820629822
6.526820071,-0.8095894731940732,0.9709989163974676,3.4379134328651024,2.6248325392982528,0.24371348002402315,0.1673698603765075
6.72674078,-1.4565109521104516,1.2048968359095817,3.2073497732385374,3.104008861071461,0.28527869790049304,0.1616217414702149
6.926785077,-2.0751803630701886,1.1237026092677735,3.116493980301669,-2.7500050070214015,0.3179014519399313,0.1610010533390745
7.12675806,-2.5663724416796394,0.8141346408296505,3.0498621056929944,-2.3569968962680115,0.32098817988674166,0.1740801981394219
7.326755043,-2.9011749310891672,0.3137760094452775,3.0055959695612886,-1.9208200666267552,0.30274586320978153,0.1932589691114294
7.526762834,-2.9822162048859355,-0.27009695940339506,2.933098924828286,-1.4467025356566257,0.3145397860271093,0.2089314297118992
7.726734121,-2.7788063565537318,-0.8406235303685657,2.8881532731228994,-0.9456226697656788,0.38521196490006826,0.22232685712855096
7.926764785,-2.3686186938061837,-1.217575388043052,3.012323086730251,-0.511194985331004,0.44928263332792073,0.2178861877081366
8.126755166,-1.785423621965962,-1.3930879787704762,3.139352005484188,-0.035352416036628295,0.4509375163884492,0.21338720805317526
8.326763235,-1.1363785010166851,-1.2767702344901857,3.2026329530736737,0.43248215076533775,0.42997867939321566,0.19780648060488562
8.526752765,-0.6405167538749685,-0.9285848489641046,3.2002419309278105,0.8588368223866978,0.38770160884735066,0.17802594383878026
8.726738693,-0.30401247579265567,-0.3522381310615185,3.216606052291296,1.2825960994838053,0.4012428116072374,0.08738488340932354
8.926752734,-0.12779776894394868,0.2534911576355838,3.4063348228400434,1.2448773911265543,0.4132397810907482,-0.1253086632638644
9.126742676,0.1862215723550006,0.8579123783404958,3.413623724134814,0.8712533871615386,0.3609099483637373,-0.1851810376514673
9.326763682,0.7267355261934271,1.3067503274937535,3.358435196250399,0.42239106055529524,0.3685224625844373,-0.1896903247322079
9.526755213,1.3329904156213725,1.4654848111323688,3.3036782129355236,0.008310270903435177,0.38989926240932493,-0.19068104686918178
9.726742928,2.0067035635500434,1.3411149384579217,3.285939123606751,-0.4409627959523882,0.381199545322909,-0.18387407465456823
9.926748083,2.509552865373226,0.9869068543393751,3.2443966759246194,-0.8407357391524075,0.3513158635011834,-0.19312367809593076
10.126762081,2.8393405240118534,0.4401075672284942,3.1926727503985606,-1.281313768294699,0.3400272474104346,-0.2069373180070785
10.326745272,2.895752212604822,-0.18062865206393927,3.1237627767034324,-1.7436354027415752,0.36680727616054465,-0.20384047360099336
10.52674733,2.655823487221485,-0.783497653242433,3.11468790477691,-2.221136178062399,0.37612741279803114,-0.21185653802166812
10.726748537,2.217577638080215,-1.175971513912099,3.1256901447805157,-2.649275895644037,0.402651895141836,-0.2103132842895871
10.926754834,1.6180798495226554,-1.3603680073257327,3.175126810938873,-3.093544394020559,0.3958544701776091,-0.20621278250165861
11.126744763,0.9658606629153617,-1.2584292422360916,3.1444141023643817,2.7174932369963574,0.3432614229206574,-0.20733502231315373
11.326746271,0.48420934952368994,-0.9231990743374219,3.0693986732795913,2.2738139501659,0.34925065950571843,-0.20700529890671138
11.526752629,0.14339834846064362,-0.35966590356977896,3.2912943710418547,1.9633974898412816,0.43808350752875086,-0.060467546263677
11.72673992,-0.1500613377381379,0.26483617503083146,3.540614396374897,2.0644309152395643,0.35909825336419043,0.09863372333667834
11.926750471,-0.5445769470996504,0.8109835839705721,3.5185782634830267,2.3580061608363283,0.2622941493813387,0.16788369847457174
12.126744401,-1.1050399247332818,1.195417790166812,3.2985361695566855,2.835907793601791,0.24881648399131778,0.17884068395030384
12.326758486,-1.762848583471177,1.2815922087828164,3.1481639953823204,-2.996265467309822,0.3320123238016097,0.16764822854568442
12.526763481,-2.320373765009686,1.093871150322225,3.0985864076152954,-2.581931556511312,0.32401786033316543,0.1834333018043506
12.726805544,-2.7798985770544493,0.6519461742756275,3.0235959848738347,-2.1158294422138444,0.3153726064447337,0.18748962539396202
12.926757897,-2.976618348468724,0.11942591542226995,3.015671231205996,-1.6927384149720759,0.3281165914608744,0.20348062810672027
13.126747541,-2.91267830832303,-0.49182950447618945,2.9139244297368085,-1.1910122215694525,0.3529901291163108,0.20423098848283885
13.326754956,-2.607869329817055,-0.9550188187535084,2.974777955329501,-0.7495511473057846,0.4184457027277366,0.22404706945595884
13.526820078,-2.092198961009006,-1.2612974040511384,3.078747891329712,-0.29140327301699,0.4540122466972498,0.22038889346367743
13.726739087,-1.4442230027041754,-1.30429380583374,3.1435627932491936,0.21399526265066116,0.4347085867682316,0.20449891655504926
13.926758996,-0.8929897608072171,-1.074575775148918,3.1632313289441014,0.6486213040240608,0.4136342352104419,0.18707769483772488
14.126755516,-0.46382054377047977,-0.6121391298238907,3.1774516868810396,1.07313944774705,0.3877998998870066,0.16249621070092315
14.326756086,-0.22288002714739216,-0.011693646030282574,3.3266576287441834,1.26068424493195,0.42727324898248553,-0.03428080536802563
14.52676043,0.03396591698466524,0.620282633856117,3.452459560329872,1.0467548111125087,0.3734690307096969,-0.15741118214827296
14.726793105,0.49036108864995487,1.1687270505924972,3.386684998744877,0.6324374612459055,0.3455085910277057,-0.18499846846233298
14.92674386,1.087500501698324,1.4655361459336165,3.330882638946013,0.20044261909912245,0.3780710343707037,-0.19466724969722213
15.126759098,1.713150657329004,1.488632416924492,3.304314075824276,-0.20665198189545872,0.3759904301424503,-0.1951702889794648
15.326760365,2.316304886336262,1.2417921128748044,3.2839730648642913,-0.6279387004121415,0.3587364554035066,-0.18653051431041892
15.526761609,2.7631672756784234,0.7720404373108941,3.238592919861861,-1.044161383982691,0.35076952437215214,-0.20369509763053714
15.726733804,2.9720983506655716,0.1401968859743957,3.1590986768178713,-1.5263695331199518,0.3484029808581123,-0.2119243125698773
15.926755026,2.891110535975652,-0.4484030444322173,3.1486061638090175,-1.9566860713757963,0.3727286263909647,-0.21479094692433096
16.126754819,2.548060385124952,-0.967696850357987,3.1493227342315193,-2.417295458987569,0.40408099398751535,-0.2161539973118897
16.326748941,2.009194360915101,-1.2873152265290706,3.1721544730271507,-2.8546705308104063,0.40133773722500277,-0.21326319197242985
16.526756979,1.381996317720218,-1.3470719408234075,3.1609871415562556,2.979491726110143,0.37568097758681723,-0.20920167172659251
16.726733261,0.7674975248537296,-1.112034279792792,3.1425774922398073,2.499833075696196,0.36540252979687154,-0.2106331075150974
16.926747389,0.3661549472024274,-0.6856266714096101,3.112518103420127,2.0889069953335517,0.3902930695854008,-0.16079081102513168
17.126798347,0.09019049080425927,-0.09306559822791295,3.4322248933926267,1.9580430768189907,0.4374593401010192,0.042236233883740065
17.326744277,-0.2650311246158908,0.5554334587636248,3.5778624680814737,2.2093372389727723,0.32725846311844214,0.1445533969965246
17.526748873,-0.7403489765492705,1.0169154305183457,3.4221043242591374,2.6216250355108657,0.249708310717559,0.16856755626412576
17.726736616,-1.3853676384256428,1.2471440465425896,3.2043599447400855,3.1031511725824665,0.3158257306349143,0.16242024491910972
17.926758091,-1.977494277004186,1.1749641303717262,3.1249014897888228,-2.7779480632910722,0.3420297055862858,0.15575248654534798
18.126743091,-2.5034626850544366,0.853940732686634,3.0810414603668534,-2.348516378736456,0.31208419263148063,0.17216714543822445
18.326795963,-2.8449483227074372,0.3208370520886438,3.0087923509472514,-1.8820627929535574,0.3060727534495703,0.18856916630310866
18.526750353,-2.9113600750953466,-0.2361548411844379,2.9464262753227994,-1.4460685480518098,0.32325353620181874,0.20176063389396964
18.726736574,-2.7042871455650466,-0.8084821364382053,2.916132337163738,-0.9484103137212319,0.3703839854831137,0.21563121894180598
18.926747335,-2.2930813623242208,-1.1869985836012764,3.012901307681988,-0.5135723241387942,0.4287270918973907,0.2212162883409809
19.126756545,-1.680572018604821,-1.3651713269362187,3.114212272799302,-0.011766260513775233,0.4493010670222724,0.2108644835100235
19.326752932,-1.0955856256885876,-1.2591978580136998,3.168320417297764,0.4192406013885311,0.4165526362416963,0.1943511185844393
19.526763593,-0.5775239002884095,-0.8959866398646245,3.2011407424714444,0.8698288520691276,0.384642116741576,0.187234452955598
19.726734525,-0.24938963303692072,-0.3174223242324074,3.2096159829808553,1.273612202918775,0.4013616757358184,0.07957588927531381
19.926741074,-0.04998442059308076,0.3183671883677484,3.4262096896005403,1.2054373107154939,0.39717239651594455,-0.1160707236685322
20.126796353,0.2827702847335343,0.9136305544933682,3.3997551712281395,0.8479763549991572,0.3485598123142334,-0.1863362046275703
20.326748714,0.802206502007939,1.3291350041437389,3.3182020720801377,0.40898972449410737,0.3639340407704417,-0.19074609732560716
20.526807424,1.438199962158527,1.47865783554305,3.277807134496556,-0.024325248582879124,0.38810960258572497,-0.18895658031121657
20.726752636,2.0741356019161623,1.3460627382806265,3.275988481432941,-0.442954821643855,0.4000612519479238,-0.1913224217057928
20.926743903,2.597998476764986,0.9640089783052552,3.25342896064561,-0.8616288756768704,0.3456940320205092,-0.1965425811595515
21.126739932,2.913417236050454,0.4100186417624419,3.1764812089557175,-1.3119513861921006,0.3459288444178419,-0.2096477611207785
21.32677862,2.955335571968419,-0.1792856819322641,3.1212532029013658,-1.7468511057350946,0.37771087146656057,-0.19532279870543345
21.52687227,2.7125999558830913,-0.782907149392665,3.102913006796549,-2.2225037709628133,0.38908490449642064,-0.21641914583317434
21.726738066,2.2445056779979287,-1.1907404638662102,3.132825359537268,-2.677555268203787,0.40581926130816937,-0.20381265411751184
21.926731563,1.6396928404249405,-1.3618607403648382,3.1801493726705097,-3.1207714948540834,0.3967837642739025,-0.20930595345930467
22.126756416,1.0191914459658706,-1.2550843854841793,3.168224405764927,2.721546129383779,0.35639005527600076,-0.20506930675690288
22.326745313,0.508531409319653,-0.8964536903000905,3.1193615857891555,2.27931488348151,0.33128889868480377,-0.20753835234231352
22.52674074,0.1806700119460293,-0.35602743061461795,3.2940544845267694,1.9587144872041746,0.4304212190635187,-0.07177791459409993
22.726736405,-0.10843636676428979,0.2718845062932732,3.5497661859485645,2.0591971524388772,0.35216520444820126,0.09711356332395894
