time (sec),x position (m),y position (m),forward velocity (m/s),"heading angle (rad), from x-axis, positive is CCW",throttle (unitless; -1 to 1),steering angle (unitless; -1 to 1)
0.133224738,0.19418565403389634,0.157255750731861,0.02412086955620343,1.5426664464396889,0.75,-0.6999157175311762
0.173255936,0.1871366712887555,0.23785034759769597,0.34326002224661356,1.5272333072261128,0.5123697894075762,-0.11367366547166233
0.21324103500000002,0.18039960266928953,0.20159281835860687,0.6016963742043523,1.4878456673877742,0.75,-0.12642156563364837
0.253224479,0.2096285312071221,0.27785480261795337,0.9728992044300177,1.5031808281274743,0.75,-0.13154957865957168
0.293230629,0.17223474603615882,0.28648198505493216,1.328641709335927,1.4500473294515694,0.75,-0.15633899246590477
0.333226095,0.20448366062499546,0.37374654371968663,1.6488620789761401,1.4070782026481807,0.75,-0.18073604369522048
0.373271509,0.21906703553974263,0.42632886949458465,1.8932627608041066,1.3256554338412667,0.75,-0.20158100747089877
0.41323823600000004,0.24684351345310984,0.5294263976950413,2.25814956006657,1.2733922775120752,0.75,-0.2174638697532613
0.45322325900000004,0.3090002251048317,0.5895040505852109,2.470537040255441,1.2170901217814174,0.75,-0.2171039771873354
0.493225479,0.35577298918708783,0.6540426374440302,2.717007165724515,1.0988126169993606,0.7436754964699137,-0.22392134816870707
0.533255504,0.4059820882662362,0.7860414819602064,2.867398474073941,1.030905717052811,0.671579522455114,-0.22731740294156913
0.57329343,0.4813842428348184,0.82267478890108,2.9063777283298515,0.9157807680545043,0.6052328161518101,-0.2181513433327228
0.6132167550000001,0.5158759817326863,0.970245028611249,2.950890554453551,0.8355309528051392,0.5328421155768523,-0.21901269620466102
0.65321907,0.5805879883332485,1.0610130167384313,3.003683402561496,0.7273816140921506,0.4911668825815419,-0.2196736754662845
0.6932243730000001,0.663539716598903,1.1362798545284176,3.0085708681726593,0.6503339898701321,0.47930420754160913,-0.21901786709086773
0.733223339,0.7965241652909083,1.2078316891512633,3.0256436220717027,0.5916864149346406,0.4704511064549118,-0.2102833409205924
0.773230057,0.8977579342231252,1.2545139059816965,3.0559126026679597,0.4818834205409622,0.4402409569454955,-0.2068446041944331
0.813225548,1.0640215556000863,1.3288083350803013,3.03852890333339,0.3797113500023475,0.4392988295989396,-0.20276432975492925
0.853266674,1.1465793999781118,1.3168817178187007,2.9976391378984846,0.21499635395751743,0.44686604423868787,-0.1981532034740706
0.893233193,1.2267102610159346,1.370802337363337,3.0595273517380113,0.17141513424948915,0.42294348511169505,-0.18813228927276776
0.933223887,1.3615353647718598,1.3625280748956135,3.0009435485279576,0.13256272580755807,0.41006054465735087,-0.18573188380039088
0.973275784,1.5179558004526224,1.4146689813445232,3.0462243390879036,-0.05255693438927387,0.41137784948427464,-0.18679029477199566
1.013228642,1.6166841217323504,1.3740623759227222,3.0118159127222386,-0.040603588349569876,0.414119357333489,-0.18874371028866194
1.053299043,1.6763094767456894,1.371694541925667,3.0340515238019727,-0.21633590808669065,0.38369773324711454,-0.18654357301244617
1.093225892,1.8429520141519777,1.3203343211411487,2.941352592036946,-0.2539741356978332,0.3621285882866395,-0.19049817041822711
1.133225299,1.9604457806487696,1.3320326491684686,2.998898274240517,-0.3229491393868006,0.3719790627937864,-0.1935420836891338
1.173284366,2.0435733398637264,1.2764419143898875,2.993388594074204,-0.4214926356897556,0.36780856949446955,-0.19253558665369092
1.213230833,2.2182401642529768,1.261306804939778,2.9633092906327505,-0.5292869624099602,0.347962354552937,-0.196776827191329
1.253223443,2.284477688400142,1.1511163062364638,2.955894429033484,-0.6110375681025157,0.35118430843896664,-0.19993363235681147
1.293273041,2.396558767018677,1.071573384997975,2.922316369507248,-0.661021584581584,0.34985805749134613,-0.20500586887831193
1.333294903,2.4141467984606253,1.0267133871559817,2.871112204332941,-0.7846811502143735,0.3563661901431086,-0.204371856412829
1.37328873,2.4686222798154422,0.9090641797008743,2.8363943641545353,-0.8886092142285954,0.35361899562768906,-0.20688894002781663
1.4132313650000001,2.6262470202262125,0.8341008340144116,2.9099141045209036,-0.9077776283084149,0.3549418294525478,-0.21046894504340677
1.453226086,2.676793218859455,0.7735125897855073,2.8933613582748183,-1.0235292036656014,0.37410153918526784,-0.21421678712569206
1.493225743,2.6951855378010627,0.6455926963828412,2.7912475159087062,-1.1772306868092515,0.3727333914100674,-0.2162499307327961
1.533309521,2.774500713643612,0.5234243559900137,2.757678512334686,-1.2328488108083244,0.3673249019895845,-0.218377268090628
1.573270467,2.705444632031516,0.3948601976814691,2.763165497627783,-1.4075890698319125,0.3838913463234847,-0.2203618404393759
1.6132172960000002,2.8132587054851212,0.3300111976484502,2.749174222572224,-1.4199757175131686,0.39409848766207545,-0.21759673709302096
1.6533146109999999,2.802130378150046,0.1842463551002872,2.8297326757922576,-1.5480020568096504,0.39025491946185953,-0.2185162020250736
1.693226031,2.82935905851387,0.05671294885638837,2.7694887447785215,-1.6525871620132584,0.40462527062691717,-0.21925365911026393
1.73322211,2.8087262615093773,-0.010041021481856326,2.8020041957287876,-1.7110980780607061,0.4136063482813957,-0.22109872426565202
1.773275146,2.7402676951032614,-0.16362214278052317,2.7961328754304016,-1.8206507521728694,0.44260213246906305,-0.22116866575150362
1.8132240670000002,2.780337699714764,-0.21262051353252756,2.7616112596529954,-1.9458919364607385,0.40855978532166126,-0.21810810801198866
1.853285378,2.7343287631715847,-0.3399212578446211,2.8055526187702173,-1.9489210073827177,0.41923633227752966,-0.2197295778288639
1.8932239970000002,2.6238642815899134,-0.39173594529816597,2.8461074837469695,-2.1210461526545363,0.4317722490820876,-0.221860430635541
1.933226762,2.5752755877304225,-0.5154877788687817,2.8609028143513884,-2.1984031324454008,0.4662981773891273,-0.22299314390634734
1.973227461,2.5474778407556595,-0.6563128886336335,2.8160800288660184,-2.3018057524229234,0.5073086209411297,-0.22138803464380394
2.013225717,2.5169956027566887,-0.775115380159072,2.943413601306754,-2.366903217879818,0.44223716186456613,-0.22019466176819133
2.053267176,2.397301486820028,-0.7728905648975931,2.864105261854836,-2.493886788576147,0.4690190838629247,-0.21809570967622996
2.093275999,2.2442647619776355,-0.8583766038393953,2.8826027561764955,-2.5167969484219905,0.4341777585781823,-0.21205743588220421
2.133292672,2.1862745288943293,-0.9014461816234179,2.8964426261316416,-2.619833358514043,0.43059670462850647,-0.21226900267223933
2.173251136,2.0707255480098743,-0.980410933159107,2.9155655822926576,-2.7671995185406417,0.4354883818805097,-0.21246142482077768
2.213227077,1.9394521552563018,-1.0040491257122695,2.8910353800534807,-2.884189117988534,0.43287595296242265,-0.20151251660108824
2.253239772,1.864290509533223,-1.013357476862782,2.886167467947996,-2.9003229208693133,0.4099650064914251,-0.2031472745865247
2.293309319,1.6967274579640783,-1.1026088554180609,2.9405248613911557,-3.0187141990594095,0.40456270989680637,-0.20566722221088812
2.333280183,1.596013926033669,-1.126173264219037,2.9323719506106065,-3.0817189627855703,0.4161206785705536,-0.20819845262246392
2.373235245,1.5030185090810204,-1.1503529580612162,2.902557374253531,-3.215245185589625,0.3957589958492691,-0.20205221477861757
2.413226054,1.3631596979991834,-1.0509949392994038,2.924707371398845,-3.320667064734581,0.3851821766450452,-0.20282404675897933
2.453264915,1.253931237127989,-1.0641531237127428,2.9134135198058986,-3.360150426385559,0.38068863681035103,-0.20340167535819087
2.493225315,1.1686952164094628,-1.061391000245057,2.882839416676058,-3.5009843079692633,0.3923999238113884,-0.20463748351326674
2.533223035,1.0742852264710077,-0.9667881427861547,2.890391824043109,-3.5312748060919503,0.3763366978732923,-0.19898215532994448
2.57327673,0.8897610794531184,-0.960480585068971,2.9016823990409857,-3.6110558892707223,0.36365485495009564,-0.2012261309218147
2.613215803,0.7930434541167893,-0.8726213408965862,2.831342857711083,-3.747479504031321,0.36744261841896153,-0.204198830509817
2.653236177,0.7873604366159703,-0.8093357713752625,2.8084766532378516,-3.8584396882421603,0.37559678528196244,-0.20876392733427276
2.693225182,0.6842683173678383,-0.7276902954566322,2.8202528919456364,-3.903613108113359,0.36856771717644266,-0.20104714963391632
2.733227593,0.6461530766553147,-0.6440683410071892,2.8336628002643454,-3.98347299319974,0.35717774743083625,-0.20733673278506667
2.773260636,0.5031275985323624,-0.47017850585007187,2.769965237167059,-4.077673977735594,0.3715175820884548,-0.2129818428685422
2.813225172,0.44826615368258615,-0.4696872551816328,2.8416460609229466,-4.1866664256646855,0.3919008851873417,-0.2183625856103993
2.853255244,0.4119200895372936,-0.3616707511779923,2.8947049388134785,-4.287043125928254,0.417336080556974,-0.1615875528142967
2.89328084,0.43103413525240153,-0.27026594094338213,2.9074380819254637,-4.3371187498655495,0.4436305544323591,-0.11182410263295339
2.933271391,0.32429138750091513,-0.1513182806118656,2.983418138330535,-4.308900599848561,0.47595732629101883,-0.06275621841567687
2.973225786,0.2522852837269799,-0.016734234519013014,3.0126765556125115,-4.417777042529289,0.47338065053629036,-0.018033437467375464
3.013225306,0.2742748974976043,0.05804529801560619,3.1578673295545374,-4.345976618823907,0.45403800481868145,0.024589736356635646
3.053267806,0.1453880990176806,0.19732963179880164,3.1576097167218315,-4.307503410752259,0.4396968859388251,0.05816578382762686
3.093223511,0.13735508642292804,0.3618056897649743,3.2010293382834436,-4.375255240425984,0.43244206839845056,0.08510053435654144
3.133229169,0.07763062677615436,0.44260749194161486,3.272853176055291,-4.3121990130183905,0.38554323998740264,0.10722768817067319
3.173266054,0.009182605864192152,0.5825150040769913,3.2314764638519207,-4.179369140244724,0.36154538782375856,0.12804869326098287
3.213224165,-0.09298935741180062,0.5851352823595093,3.2432858192979075,-4.187239915625625,0.35250297602711367,0.1465217591069716
3.253289251,-0.13690563927904215,0.7553722378261405,3.2880743676305353,-4.166765402608746,0.35481780810726204,0.16000604373952398
3.293221538,-0.2004329404474279,0.878592477548653,3.2309279165727163,-4.086754775308734,0.3149678195560232,0.16345131659967818
3.333229224,-0.2559795620483156,0.9539235112138753,3.2657782389818983,-3.9792315688141855,0.3081968219680904,0.17833814915182594
3.373266062,-0.4084851176732209,1.09145273393449,3.2239224913997875,-3.9161992192101525,0.31563858445118353,0.1902177909079189
3.413228453,-0.42268118537385957,1.1990734202166318,3.318715201961959,-3.8189279427478917,0.3209359156896387,0.19506084074661997
3.453287284,-0.5816624624987609,1.2371804252566028,3.24690337361296,-3.697299567449824,0.3111833778820409,0.2026417640586161
3.493222683,-0.6556322010095412,1.315818318019439,3.2191063872385293,-3.6184935149764215,0.3144086979148025,0.20816902805147694
3.533272782,-0.8066678840757715,1.3578916071160134,3.187234900571714,-3.537449647586595,0.32871753565007034,0.2108541403529911
3.573312685,-0.9163793370759572,1.4211467995136706,3.131557137221307,-3.4374883581878546,0.34340080776510246,0.20992379305090833
3.613221522,-1.0243133588562279,1.5036651628804356,3.138002314706929,-3.345956809049887,0.3541208882935099,0.2076463384806338
3.653279452,-1.158984064296592,1.504546338483805,3.1138024343354003,-3.2567472906571258,0.36574158613130275,0.204932693798246
3.693227611,-1.265661748692274,1.4223608437270359,3.1587467406101166,-3.095614826388153,0.40736460043782047,0.201466719159995
3.733276452,-1.4058460681025216,1.4828113567634449,3.1128941943722106,-3.0096526662889835,0.40529108457473323,0.19188805790941788
3.773228075,-1.500864506636965,1.4846785245905993,3.1932401764552028,-2.9798327406717218,0.40488246610207224,0.19169197441168837
3.813223611,-1.6501721267327099,1.4473915016257004,3.1883597106664214,-2.9264045683291826,0.4257762222286916,0.19283247955752353
3.85327154,-1.7924472982503408,1.430700848693717,3.1407500596280102,-2.8000303521546703,0.31960540618310646,0.20061700728584694
3.893283737,-1.8925670662742633,1.3229595109730703,3.0501005603449647,-2.750947990186639,0.2402425307500604,0.21027761102537074
3.933269566,-2.0387708429026055,1.343379335796095,3.0583004711967297,-2.662569127498579,0.1776810729479052,0.22436500125021464
3.973250895,-2.1403039769716874,1.2986272278238862,2.981993786482792,-2.521504872623455,0.14068583829163794,0.2398909687090186
4.013227272,-2.2190110445566704,1.2451158758932983,2.9808393835179,-2.429444152005815,0.28899006653914194,0.21636526498822634
4.053268738,-2.2626372219370476,1.1363614137061882,2.943387079794577,-2.3365346893899894,0.3668836336176988,0.20483945185763483
4.09322513,-2.344978518125987,1.0259471049479767,2.9869407173715397,-2.2340612436955665,0.4469906060572416,0.1893422792697981
4.133228704,-2.328220544454844,0.8920105916823222,3.048336455594608,-2.1840098035213655,0.5230486969051201,0.17098525840346013
4.173232935,-2.4952192666872612,0.8068206321090601,3.08105942012422,-2.123411977745354,0.455569174769115,0.16881483725523258
4.213224836,-2.5802001614488814,0.6931866348798248,3.095704062835893,-1.9991183822475447,0.42979086500097813,0.1691927913321511
4.253259549,-2.583445168333001,0.5499618133586889,3.120226560754937,-1.9143621173723697,0.4127412312814557,0.17293511476542583
4.29328105,-2.674508796796204,0.5611235472494792,3.118767954232796,-1.842809668932405,0.38770684572287895,0.17013352756746375
4.33322744,-2.6145681632078577,0.3513966440154666,3.1771408596625843,-1.7703896943364947,0.3562185080186862,0.17407746137729418
4.373226342,-2.6801708260862083,0.20121082490924952,3.1285582081167145,-1.7061864559919089,0.3343054386533476,0.1808006749351298
4.413225717,-2.693110586125227,0.08327931698513785,3.2038456687112493,-1.6558632718168382,0.3318036886668278,0.1867074626145445
4.453258402,-2.7257492782739785,0.01269602726445935,3.147276473422462,-1.542199913951738,0.3055473135214668,0.18725800988658672
4.493228387,-2.687304798030336,-0.07042396461035576,3.059219475050679,-1.4283829106526167,0.2855920272889649,0.1924396669693784
4.533275036,-2.713150514217318,-0.2587035359364865,3.062751536846833,-1.3635469700146663,0.27656701959116986,0.19741112578401077
4.573229518,-2.6488489699365783,-0.3721484471453537,3.0619052322795084,-1.2763402430481656,0.2803236413788066,0.20283180825024236
4.61321832,-2.576119228723485,-0.49781755959763857,3.004634019078534,-1.1975555026635976,0.2615156433595693,0.20503381797505682
4.653294772,-2.580163904309002,-0.6420409873969877,2.946442421215269,-1.0366896490805215,0.24944486210140265,0.2081626136653758
4.693228998,-2.486664909392679,-0.6917982356078479,2.9432859927641264,-0.9817045659463854,0.2597514088005591,0.21118896214777969
4.733283729,-2.4020792538688824,-0.7827928501771283,2.872186776811737,-0.9161447353709862,0.27189964941127315,0.21532920642206824
4.773221189,-2.384289391050781,-0.8186776443644218,2.858872577848419,-0.7984583625784051,0.27346283702808655,0.21728750948735467
4.813231933,-2.2970164759009912,-0.9853583926610424,2.8001947519517896,-0.645990763859578,0.29403526041219863,0.21903140957837966
4.853245256,-2.1612494826339623,-1.0346070263159075,2.8176825403560155,-0.5677170760934167,0.3117428738105996,0.2207344402798931
4.893230754,-2.103142334662121,-1.0734094261261946,2.7561253186994787,-0.5023362697288984,0.3260889520105592,0.21740105600967516
4.933226306,-2.0295689938562305,-1.136216099483852,2.7855928039011495,-0.4078934200493751,0.34065185382554025,0.22228395839582565
4.973275315,-1.9432258483550795,-1.1894099005354553,2.809164324923044,-0.36713490771593005,0.36176356963443046,0.2271778039589089
5.013229159,-1.812002079170027,-1.273470243342238,2.8237391358996753,-0.18493205947347235,0.3846437014237263,0.23719676347364488
5.053320634,-1.6799737394570773,-1.2101264274883188,2.8154301633451615,-0.13232395299961655,0.38594568129726153,0.2362935552437093
5.093227972,-1.581066234370933,-1.2219359760830317,2.8205794954129617,-0.013452021956256398,0.39619974351053444,0.23519574816715477
5.133223873,-1.404531877396655,-1.1957883451665505,2.883944646911467,0.10088474678557094,0.4156502928304039,0.2319384679987675
5.173234843,-1.3302248512107502,-1.2081881450528495,2.8747877537533806,0.16654853992697152,0.42071763730704814,0.22283514245032732
5.213227198,-1.2712091782404262,-1.1832211503651684,2.828691655820687,0.2520601357043205,0.4189533655051226,0.22156919078409626
5.253311168,-1.0489657157488408,-1.1900082004069383,2.859328750979734,0.40701164485209357,0.42885317555716196,0.2206098407845183
5.293224512,-1.0163858696879688,-1.1315212447328662,2.9095000452732265,0.48481416076393025,0.45385448301405007,0.21920148148249038
5.33322541,-0.9568352683499544,-1.0463860158314358,2.93200466914541,0.5610756444856349,0.43711717426981656,0.21180032585783543
5.37323795,-0.8120577705568676,-0.9653943752005463,2.9729466325354448,0.6381311792884133,0.4257835027664437,0.2107047187897416
5.41323132,-0.7006971972411142,-0.909281274229372,3.0094728957803025,0.7476953575634246,0.4434640662002681,0.20960446104918035
5.453309243,-0.6345886541799706,-0.749168496998431,3.0527598862662813,0.8116443795159339,0.4280897223385468,0.21039423976045418
5.493225227,-0.5199673335752442,-0.773105599721591,3.0444271259414895,0.9481900104789719,0.41514040223542037,0.20783036000850208
5.533255571,-0.524335200567031,-0.6083492377262597,2.9992506559579595,1.0873064301073174,0.40903687236681435,0.20563817517337402
5.57322882,-0.3920016878011865,-0.5032188933826687,3.030495023386031,1.1215039040176096,0.4110168880858105,0.2028370058588996
5.613247907,-0.33320173278123716,-0.3792896290259631,3.0055793839864693,1.1627385067665315,0.42551549980110864,0.1448293502224141
5.653295848,-0.3536220471093983,-0.34802456921055225,3.038479621161395,1.251554207143572,0.44831279810131236,0.08907427532433783
5.693223035,-0.31310168253078446,-0.1417424892124535,3.1606999202582386,1.2783717260419165,0.47241399880930846,0.033189497622083744
5.733290055,-0.231598246733052,-0.04754755345444451,3.2231029238924425,1.2841926717252896,0.5054626399407073,-0.018061602741162797
5.773274381,-0.17263441555864467,0.10579060747339313,3.2489013361112975,1.1850112199757505,0.45803252939729394,-0.05459581117007754
5.813240189,-0.17585564781700014,0.20383930329293376,3.4018896706535355,1.2538560307532145,0.4546012381329927,-0.08744613382030982
5.85322214,-0.033484178232175296,0.28922576326908195,3.3622822715468,1.1250306152437624,0.4470218390852975,-0.11288288504026192
5.8932242630000005,-0.08671465877820438,0.41856168820862516,3.3409695980073875,1.0902963526768967,0.4086310862679187,-0.12991878388034142
5.933223835,0.07584436434313316,0.5963001235603925,3.3684999131654894,1.0117367003267383,0.3910263144334432,-0.1438025912317921
5.9732301020000005,0.10979624421490211,0.6794907376699595,3.396489341634259,0.9944580609401753,0.38786746453443793,-0.15366254858203393
6.013233175,0.14670150399274134,0.8278588279913051,3.3595927195574187,0.850631724253294,0.4001173318819069,-0.15936339914933534
6.053219303,0.2706230937740507,0.8762835524890868,3.313245660313875,0.7839329477978279,0.37180313057717695,-0.1571866148340709
6.093223798,0.34497340867860715,0.9858605515709122,3.316701403110212,0.760455934610957,0.3709303367870928,-0.16124952560843758
6.133222574,0.4494157068272251,1.0834373272900686,3.280645556927861,0.6882201150272942,0.38239529616471196,-0.16333850472639916
6.173231915,0.5638438063714899,1.10947083373428,3.3165941856460006,0.5526313517302274,0.38640448011662254,-0.1579717965418235
6.213240768,0.6676336494362781,1.1759785373400142,3.199270428605024,0.5030038493979095,0.37872556105322414,-0.1596562817211509
6.253345249,0.7385676724201263,1.3049317609381526,3.2358980993213864,0.41761165514401255,0.3777681788231115,-0.16207621137165498
