time (sec),x position (m),y position (m),forward velocity (m/s),"heading angle (rad), from x-axis, positive is CCW",throttle (unitless; -1 to 1),steering angle (unitless; -1 to 1)
0.12389253900000001,2.95879908551459,-0.08479481072634262,0.014337550615134625,-1.6631879271749064,0.75,-0.7195555628375988
0.22388685900000002,2.928838827885207,-0.033227347974828014,-0.07533862498655614,-1.7400452522876262,0.75,-0.03472473816015064
0.323875118,2.999859538503099,-0.017473982000665494,0.4176892801468333,-1.7276761937551568,0.75,-0.07727912586800881
0.423898571,2.9215520497183323,-0.183672892612148,1.1408686165833026,-1.7701060046203603,0.75,-0.14421893514994902
0.523905571,2.8396080469257137,-0.36552905472438657,1.9955876943462572,-1.897868028306951,0.75,-0.2052127115888324
0.6238876760000001,2.8037739383885607,-0.5255679117807419,2.6194838866836894,-2.062575628032623,0.75,-0.21557867776062062
0.723878181,2.567659741536005,-0.7437924572606691,3.0683084879691003,-2.2982632906410383,0.75,-0.2120661956595983
0.8239312900000001,2.3226414655464556,-0.912203476096801,3.2020891964019573,-2.530111032102527,0.5899507849181792,-0.20523059411681246
0.9238471410000001,2.058853645087032,-1.1323894813879152,3.343910195606591,-2.7289036683459553,0.46078625260286354,-0.1954849684627731
1.023846417,1.7824302289527194,-1.1510681116574106,3.291472445214207,-2.9536617847136073,0.41170742559005746,-0.19065126923413994
1.123891418,1.47801253371186,-1.1475420984820282,3.240413502469044,-3.1754704593770207,0.36183682689724567,-0.19546414021359176
1.223826388,1.0753218941897194,-1.1658729308441071,3.0933014788590927,-3.421545736292483,0.3328422872949214,-0.20047746003156744
1.323900127,0.8654881035221059,-1.0979153766470926,3.101750598011323,-3.5595864905484786,0.34562751058453783,-0.20131987138537916
1.423845995,0.5881827484215222,-0.9396551519875802,2.983422265077771,-3.8511463114495434,0.37033352145793863,-0.21624940904590065
1.523835315,0.3705938547729354,-0.7556040082583644,2.9285889912757606,-4.072910686711816,0.5012809059243929,-0.1776347802709986
1.6238461480000002,0.17276713328048782,-0.4229536473286241,3.2305654385541978,-4.29322401867322,0.5615773217697905,-0.10533184973150238
1.723899434,0.06340682903620184,-0.13047944263814232,3.487107058005935,-4.219601160987061,0.5899507533721106,-0.006806352589734996
1.823903868,-0.10319606017606948,0.19027037858853874,3.747242728277688,-4.336911786784942,0.4816541869475509,0.06061490196812981
1.9238877030000001,-0.2696202019348087,0.422685314985546,3.6539746800392434,-4.157512334032739,0.389694073438604,0.095616870583415
2.023879363,-0.3728303370493113,0.764680146538619,3.6088059336395553,-4.12047328995622,0.3150025175826591,0.14055950762164124
2.12392277,-0.6892157990356849,1.0850155992552268,3.476119322553539,-3.7925919912204664,0.2469111014901089,0.17179021518222318
2.223880804,-1.0121272181229324,1.1974887065808273,3.4582357583604852,-3.6839754790178496,0.23474539014194734,0.1836209828845334
2.323897402,-1.2516148371099918,1.5078372554774422,3.3832692757973213,-3.4271325712872427,0.27419935784739297,0.1911175556863233
2.423828209,-1.636012149763238,1.5176119210156176,3.1758526223487835,-3.2173981679244266,0.3129287233709177,0.18767210718665156
2.523904057,-1.9543497628676345,1.4727108333376084,3.1364990685319443,-2.9596764217241165,0.35226702512084956,0.19319283846262575
2.6238740700000003,-2.200178626008967,1.3217568573888658,3.209990403916573,-2.7389759504112057,0.406969091303812,0.19650490752324873
2.723914732,-2.553209735731026,1.2622650509060842,3.175514519456261,-2.459641299644168,0.4440699987339525,0.21135076688606774
2.8238283,-2.6840120273169643,1.0410305670984046,3.1649535482691067,-2.2964152944789413,0.4466787429884131,0.21888945969788384
2.9238251330000002,-2.9143974441561498,0.7145449235731443,3.2389371618059735,-2.0276388611847014,0.48570498608759316,0.20511166536467632
3.023881483,-3.118191815534148,0.49902730662435885,3.2588734206927983,-1.835623288296849,0.46791912279960696,0.20744588453945353
3.123831189,-3.091775665293871,0.18738637568983443,3.246693573585794,-1.6071761850899313,0.44349782103526675,0.20923955189993376
3.223831118,-3.0917066108764644,-0.12230163321048852,3.2863948885529513,-1.3120302392584748,0.4181748126860677,0.2024806078785695
3.323913421,-3.1273823881841007,-0.4069092026513722,3.241302968539936,-1.1161796732529061,0.41255322098274466,0.20705622444385965
3.423825698,-2.957835282133978,-0.7147740376985786,3.1305145813288364,-0.942188980185152,0.3662465104625079,0.20642705948377724
3.523825034,-2.571140396093484,-1.0829608467034308,3.120701419298669,-0.625584691399633,0.3934291612372856,0.20935089816066121
3.623825026,-2.3633114900451044,-1.1101396078975951,3.1884573219099126,-0.4517921529099847,0.4230576512885357,0.20964322614337572
3.72383299,-2.1001153943023647,-1.2161226908691034,3.131857451867079,-0.23036022334203055,0.4399001551416105,0.21345226719796231
3.823829417,-1.767002705560862,-1.3291754468835915,3.2293583420426533,0.024982463376769404,0.45256932977277514,0.212215654654915
3.923831736,-1.3894936164951257,-1.2784782400386603,3.2615821754998042,0.1534291134605777,0.46056832161746464,0.21020151075463436
4.023827025,-1.1800152133500241,-1.191478349297951,3.220174691105384,0.3768542035994738,0.4558327197139341,0.2093506737260636
4.123888654,-0.8141050688607591,-1.0002435888422023,3.307247842923342,0.6888937746872468,0.4425149394312269,0.20058155985781487
4.223896683,-0.6619337723675964,-0.9461244353607098,3.2394376799170743,0.8965093748200881,0.4677218791059618,0.19448382431042993
4.323889752,-0.3343846580108983,-0.5943300525173649,3.4052923724405466,1.147765690930855,0.5399668454669778,0.11682518861085464
4.42387426,-0.25200819390011225,-0.3272365976259792,3.670516244745386,1.104434060848976,0.5583709968076244,0.024938272131242167
4.523829362,-0.13424519372048488,0.0301760806175953,3.7707988524270633,0.9917549143403166,0.5294603748615953,-0.04765365164739304
4.623888071,0.0814292243143483,0.39416580090451525,3.8257668291694054,1.035585572090064,0.4612665528729518,-0.09719327136886484
4.723853195,0.2134523311617651,0.7527360306340679,3.9181115822194306,0.925159003124905,0.37462466207528705,-0.12203656904740848
4.823859399,0.47791742464191067,1.1045625331078042,3.8704153062399405,0.8477547093191763,0.3195057255239476,-0.1481469746126558
4.923901681,0.8185722985185687,1.1862396401115438,3.646794175883207,0.6003414540741093,0.3032077624566941,-0.16075925371062033
5.023876622,1.0402290790670945,1.4243377846003147,3.4690426032014283,0.37162840970063293,0.2610010899577226,-0.1663782660440994
5.123830979,1.3639262181006315,1.645823678519652,3.2651113436468036,0.13199870548279252,0.2662257025884697,-0.17600324873587356
5.223890141,1.6728614724203656,1.6641222159790092,3.2814183553115863,-0.042524401838300474,0.2882239622162245,-0.18513038736924264
5.323870027,2.0023885734046583,1.5152171711746445,3.1120861417350736,-0.20402788270328112,0.29579083705381876,-0.20104160742861263
5.423888487,2.3486886945803094,1.4232160154681264,2.9176541004418537,-0.48918720478546135,0.35413279108164913,-0.2136785584194227
5.523846637,2.487500325566957,1.2507214696506388,2.9943785411745414,-0.677264185355321,0.42488817843738985,-0.22659578313545692
5.623831989,2.8776659207557618,1.0947438892027062,2.972505810354522,-0.8660174640402312,0.49551988029108696,-0.23915601796111674
5.723830989,3.0002866099341765,0.7870324482157571,3.055248668148044,-1.1475731545531334,0.5612678496694548,-0.23865299809164212
5.823886865,3.0238540634455773,0.580258783779233,3.2851284021094758,-1.38830409940684,0.5944095986815136,-0.23195075767963994
5.923881412,3.1280867140466215,0.310565885697079,3.233298906270511,-1.5929246904558245,0.5820628597557965,-0.22920255542225043
6.023836676,3.066175271392824,-0.16605957280667877,3.2787505442675577,-1.800004777172481,0.5550543706910955,-0.22382279308989733
6.123919588,2.869167911578776,-0.4851269253451701,3.3964574739252074,-2.082053739529689,0.5392632570170872,-0.22071403343474638
6.223922144,2.762557605338896,-0.7638882799004073,3.3756896145471527,-2.306370222283382,0.503058579443324,-0.21746417810163174
6.323884852,2.634310196835269,-0.9207420015146526,3.318088434159901,-2.540940580948637,0.4782953258778259,-0.21269570808091634
6.423838055,2.239703183829925,-1.1197805185191583,3.3774240665924355,-2.731218019026304,0.46121948073695307,-0.2033320709372972
6.523837545,1.866164934332198,-1.2882596495635255,3.3162165058298494,-2.85765192075692,0.43165437014556446,-0.20627111381215735
6.623838081,1.597390465096677,-1.3322458533962551,3.2000453416129293,-3.179193950856315,0.37314935542822736,-0.2160309671474153
6.723834777,1.224659353749712,-1.296754717193414,3.19257007565712,-3.364785649483999,0.3532594823742309,-0.21334414528075396
6.823833695,0.9801627456609189,-1.142323629416227,3.013249859069121,-3.593823100771381,0.3622212159566122,-0.22027885248042617
6.923837078,0.7515835362286625,-1.0309448268408217,2.986060173628633,-3.7844848374572764,0.36441269723950936,-0.22621329316457103
7.023875017,0.43731563814480157,-0.8041033909843397,3.0435829589289027,-4.042432976721547,0.48698074614444253,-0.19571392852619654
7.123876418,0.2701016751145388,-0.5197026245500329,3.2940236955293516,-4.128082763226925,0.6201618599483822,-0.10707717206269234
7.223874762,0.21987779671057184,-0.2433489854935286,3.487670375362278,-4.114658997348986,0.5897232603717687,-0.023443536699113508
7.323865305,0.053827940936427066,-0.04691889214400079,3.5850148701171234,-4.2453318888714415,0.5029060792520981,0.03911548239112988
7.42387814,-0.26262280711908376,0.3466662494406676,3.7961708911891443,-4.1300388989646635,0.413283078821366,0.08731901551245541
7.523868443,-0.4615132928804979,0.6736679555021207,3.7084595344054305,-4.0437038220388,0.32830665112247326,0.12564022920644663
7.62383012,-0.6988691558821385,0.952437820824879,3.6186316775705403,-3.865993616208242,0.267425159589597,0.15539360925638895
7.72385912,-0.9486279615201245,1.1551961078480364,3.570073639476174,-3.702462126345931,0.25716170853668946,0.16539780041036123
7.823879241,-1.3427355446909934,1.1682482777063032,3.3861365284456313,-3.3710615517175246,0.2570416778618809,0.17660448349537497
7.923846141,-1.670230661232966,1.4525772299768234,3.2813812609383537,-3.107689835395537,0.2856214033799147,0.18555572334378448
8.023871659,-1.9319633041524313,1.4322853552086143,3.143467432506895,-3.0003432381019843,0.3537618642195663,0.17921875618005545
8.123871127,-2.23836309212502,1.2872852161974715,3.0860633740763372,-2.663120282884672,0.39172902400241855,0.18877150804370452
8.223864936,-2.434201002665297,1.098471718982092,3.1631018545414005,-2.483269263646857,0.4211205543204468,0.1992514622816807
8.323830296,-2.720477207469914,0.8466997380295369,3.158356221182225,-2.4081802328192485,0.4587674469825166,0.20415931383576988
8.423831171,-2.866857515652374,0.6533836825924331,3.2688767268037533,-2.0212239328382346,0.4724858710590523,0.20299069735816846
8.523875513,-2.981652889794355,0.17432570868315028,3.223102906258512,-1.8539146197006455,0.441776389450672,0.20101647303433592
8.623864591,-2.9992213667408976,-0.04614075967814089,3.225325408611071,-1.525596093206183,0.4225432412398185,0.19865022249817096
8.72384124,-3.050080414591384,-0.32668153503971414,3.2252763759678547,-1.318825884995216,0.4128455280893044,0.19430858636514678
8.823834209,-2.916402281687244,-0.6158991105687656,3.3072814612432047,-1.113853267079982,0.3772635193431009,0.19012294791268095
8.923835778,-2.831631289771345,-0.8848643661459932,3.157140025611804,-0.8583057880580838,0.37114710816922747,0.19391067112166208
9.023837024,-2.5057389967034918,-1.1766255806555959,3.178868139889599,-0.6237463856077728,0.4113725981556001,0.20141407878133752
9.123836794,-2.3003976878938452,-1.3261981330754453,3.178417511154356,-0.5068945857452706,0.41947077299209673,0.20645255873292914
9.223837264,-1.9133160444115727,-1.481906891523681,3.1784476872050984,-0.2281556786401733,0.4358500128942633,0.21004627998535627
9.323825616,-1.594877359937774,-1.4431364729275105,3.1239074590381453,-0.014714514854320487,0.4671078961469232,0.20667426988801835
9.423878427,-1.3728005754114283,-1.4710875370098304,3.2631421684342743,0.3551386181568945,0.45098220324539334,0.19933976173083867
9.523830068,-0.988361649893607,-1.3301796003773605,3.2663293962801396,0.48267138423734823,0.4533014052547622,0.21568684126625798
9.623831686,-0.714860060179136,-1.1758819458882563,3.2296674997452337,0.6895276600034245,0.4572556486410175,0.19595309219007917
9.72392246,-0.3926598484915391,-0.954382421657104,3.2656515173563654,0.9436407694763818,0.45418439077448886,0.1903504832687893
9.82383816,-0.345732602899536,-0.6039845739357864,3.27606462386749,1.114706362060108,0.5272711514175802,0.1217231440812715
9.923834117,-0.17219378600818325,-0.3773980801857961,3.6083038705197525,1.2416018872769277,0.5592908616648254,0.02186974665813923
10.023893165,-0.06161664633464538,-0.04357842736553014,3.6051736353620796,1.1687204517144092,0.5465006367186445,-0.05515513487395078
10.123826697,0.15870159736099718,0.250341179573957,3.9533130222354056,1.1695575763156565,0.4469754870414658,-0.10132202764907697
10.223877302,0.3379591438185854,0.6596664699873832,3.829884741226853,0.9736865362985895,0.3730943843272941,-0.1277046959459995
10.323888901,0.5026135027821484,0.9143833588444029,3.6816906808223884,0.8027948911997914,0.33784835866683033,-0.14900747686040144
10.423886694,0.8594624392318858,1.1674221919661594,3.5287681123649315,0.5812172157152822,0.2987514527202617,-0.15726172823775328
10.523830674,1.157365614823141,1.410834982521478,3.4034376626193894,0.3276790599261424,0.27835873592505844,-0.15743814174154175
10.62385103,1.4377768072341137,1.3646413310902303,3.4206405642624262,0.13320898509847984,0.29994853140841565,-0.16190460516095923
10.723832634,1.7594977676962729,1.5611986185225424,3.26799457426842,0.06342994759594496,0.2821977012563256,-0.17573377751117786
10.823836088,1.997723544192222,1.4255962474860875,3.091722943034903,-0.2023144830847714,0.29592966027568074,-0.19528425095266252
10.923880082,2.3405658842975052,1.3132718105059198,3.0217538531668744,-0.4355690234407168,0.34275876031359753,-0.21477864277957892
11.023874392,2.584402323954486,1.2853130648988875,2.9059777908404434,-0.7158807740742827,0.40117826713837373,-0.22755173563097839
11.123853304,2.7816039472940437,1.0056359690699324,2.913231510092528,-0.9115032546714347,0.49087440955022804,-0.2420168732172032
11.223835206,2.94921324220836,0.74937366993988,3.0165602888475047,-1.208396215433082,0.5632782455987321,-0.23814292910134136
11.32383392,3.058387186341597,0.4405628804411829,3.0555078395788233,-1.4062374001663582,0.5921394658259872,-0.23571836617580566
11.42386447,3.107633722260139,0.13768277029643938,3.2360789458627415,-1.6871035086255106,0.5885184067073677,-0.22996091650797076
11.523899368,3.077672376303125,-0.2691746079903188,3.3531573841090934,-1.9111867425108628,0.5895415035324898,-0.21650777553375194
11.623831722,2.9359300779496946,-0.4771221988250151,3.282300167310055,-2.0623595786876137,0.5457203964982191,-0.21869439145164
11.72383635,2.6799864200222414,-0.8150578483402362,3.3738063364940305,-2.367633041349938,0.5123761567712609,-0.21567593218523348
11.823884979,2.589013315958046,-1.0549626237179928,3.3335261189502887,-2.5107727013562386,0.512420231587362,-0.20559020997923066
11.923878517,2.293869254792113,-1.202522163112824,3.2972353288577305,-2.7199746018723494,0.4631577617001858,-0.20187056026831893
12.023875068,1.9570509301339158,-1.2877130737444844,3.2751673937147268,-2.9616372869404834,0.42907743672080434,-0.20256692336597948
12.123835715,1.620604919011473,-1.3514995382634574,3.3378049607187266,-3.0936186267841603,0.42821018956797047,-0.20908306501574916
12.223888546,1.2290073356490607,-1.3718756428175067,3.127901124963088,-3.3637198663811723,0.3679038489584981,-0.21263882892375996
12.323836065,1.0345281194665445,-1.2629606919810836,2.9966257969747416,-3.6347181201020318,0.21117175417597384,-0.28474389159714925
12.42384407,0.7836650770763445,-1.0556475133208063,2.8661802516544546,-4.023898011709973,0.37327698296259665,-0.30135607734243375
12.523834303,0.5224066626063301,-0.9823196611729754,2.8267575080726135,-4.066198261987049,0.5471019577471002,-0.18047141647721268
12.623838248,0.3845396416710298,-0.6337693386770087,3.1543705942136095,-4.2995270846366695,0.6371492511449218,-0.08265902410525068
12.723834026,0.45046071102248775,-0.33931036519308483,3.4689107201900016,-4.340175257868831,0.6068811006908864,-0.006546699876203606
12.823832837,0.13982254791825433,0.07318428871109295,3.6105908727094094,-4.10941756678806,0.5173157598296094,0.05081514188573086
12.923891449,-0.17451568804416717,0.3464732145665854,3.677169842912603,-4.0665094017440975,0.4056403827209645,0.08875300195264245
13.023939121,-0.29037851264417724,0.6436025104394685,3.7559865659864764,-3.98864909115133,0.3706187190978438,0.12398705731552458
13.123836998,-0.5498528222608661,0.7886092850053353,3.703257055686185,-3.9132645228583907,0.29440655461904497,0.15235792450614977
13.223844251,-0.9194455071650596,1.0697619892015042,3.5496927534417586,-3.609664223197792,0.2492720708533586,0.1802929237098006
13.323829486,-1.1153838056673204,1.165165775769426,3.351788922778813,-3.478172625936996,0.26812998988264725,0.17031653207248185
13.423871559,-1.4477915762525668,1.4094433344687607,3.30547466421885,-3.150098955721307,0.2902965732738957,0.17394259618442154
13.523866038,-1.8373098770015024,1.3026173916372872,3.2291015611240326,-2.869162372821661,0.3422917080298629,0.18864952954687844
13.623864941,-2.0834316753933746,1.1611005390823304,3.186636526292529,-2.7161570312331835,0.09516492710182194,0.20676304320570554
13.723837235,-2.297867648292797,1.0219690807060755,2.792045970264177,-2.4390397119066396,0.17361604387186502,0.26775696281022693
13.823932463,-2.565381807447738,0.9041903276536644,2.8431068521942384,-2.2128695519755426,0.5372672730673576,0.20305306179320187
13.92383276,-2.7564708672474714,0.6415159216679959,3.0402568480945993,-2.0178925678057307,0.6011038127004529,0.17390118818269565
14.02389986,-2.7900472129427984,0.3444005636094841,3.2591717234800845,-1.8373251139102103,0.5271874991177359,0.18856248158354155
14.123933947,-2.7677388820538766,-0.04998787252944538,3.272482734422377,-1.6465214149847158,0.4292854458714388,0.19657920720274918
14.223836599,-2.8199036610438837,-0.2990126311941898,3.233799070164019,-1.3512934463021322,0.3708238699008535,0.19699111068032463
14.323891538,-2.6820777496603387,-0.6184188181904356,3.268124774938345,-1.0925856055968677,0.3516047200244136,0.1936985895291957
14.423896362,-2.5610633733339045,-0.9242947044337906,3.2597740176138683,-0.886394911943613,0.3588475231759944,0.19183143745649955
14.523903662,-2.382675671745392,-1.224897280360845,3.101224047093328,-0.5385464012604895,0.36736524745096616,0.20058643733545886
14.623891652,-2.100971789355844,-1.2842203144039803,3.2344264474691578,-0.42640993735640875,0.39711147272398795,0.20417266588397098
14.723867149,-1.934190642495209,-1.468174860714586,3.1457131294310847,-0.25723467727045163,0.43178607323585383,0.21788297874329485
14.823906592,-1.5521382876261018,-1.4925480422853452,3.1247477892286857,-0.03365548696645045,0.4311907037307128,0.21439941199890844
14.923829311,-1.1827424737020231,-1.4729773088478113,3.222871645787024,0.29431349276892954,0.44308397700098695,0.20655619326897096
15.023886511,-0.8611445027967239,-1.2616118612800167,3.141819554358496,0.4741859061902964,0.484814379643446,0.2063412766770136
15.123887662,-0.6638197571695074,-1.1328826790563886,3.182589406552799,0.7352570711018511,0.46327217908869067,0.19776494198035885
15.223830223,-0.39712637735611006,-0.9249611004733552,3.312059575982312,0.9470706451894118,0.5000146361376621,0.17396256963897605
15.323840424,-0.2537734278924957,-0.6009037254885898,3.3107158084636916,1.1667046217926211,0.5389642615288521,0.12857036958373616
15.423839612,-0.08554482646559312,-0.33021347047635974,3.536020835747238,1.3164638625351015,0.567531651282421,0.018697911447615692
