time (sec),x position (m),y position (m),forward velocity (m/s),"heading angle (rad), from x-axis, positive is CCW",throttle (unitless; -1 to 1),steering angle (unitless; -1 to 1)
0.13976707800000002,3.0431602510532314,-0.13313855329928184,0.1252466507716799,-2.0373700534250374,0.65,-0.05693353831521894
0.33979557200000005,2.998066408484473,-0.07779312248850992,1.0537724659851315,-2.007695980778666,0.65,0.03421205227090896
0.5396697930000001,2.692516594009528,-0.5017919328250571,2.2570466973936605,-2.1082839572600123,0.65,-0.11538269675248206
0.7396706820000001,2.3513911823604934,-0.9926582020194918,2.9052045498505072,-2.2109696169050044,0.5725215032137866,-0.1908993104659774
0.939666777,1.9314444178366923,-1.2652580570710392,3.036514700895594,-2.8533350641793533,0.35089383752161185,-0.24070449966857532
1.139668729,1.2852803944400581,-1.303676673950567,3.1008629487348056,-3.253722721240317,0.37142153013470386,-0.2541891613214943
1.339671127,0.7395988147482151,-1.1219161094792434,2.927407440788285,-3.6880246055722985,0.48099210547379095,-0.252640262664561
1.5396680520000001,0.4257842714051563,-0.6012222907974154,3.109339269210481,-4.069410654721829,0.5644255665023837,-0.1799563457724693
1.7396713890000002,-0.0004772562596009611,-0.18382126175255298,3.4932596827065554,-4.253539973679394,0.537622229614917,0.011783509016917866
1.939664038,-0.3951610297068375,0.8311038593779566,3.83413620824196,-4.026140796438009,0.32440106568111826,0.10263251276615865
2.13971614,-0.8843415661091102,1.1754388689612603,3.560661000308443,-3.7773177868637053,0.21196487696098051,0.1601438741269284
2.339664079,-1.4875706463175096,1.5315004896736961,3.432201002693917,-3.4054263369900704,0.211754118511777,0.178613996551062
2.539668333,-2.0743011421407798,1.528118263485451,3.0471280613495115,-2.625051666876958,0.31026449718704374,0.18808530596455886
2.7396669080000002,-2.5641013560992025,1.2591396959820773,3.1198850132116167,-2.430327954998326,0.4049428923396262,0.21468752961868487
2.939671719,-2.9872401866948084,0.9263594684517994,3.24499478283645,-2.0074121436653822,0.46687039832305116,0.22331138291618197
3.139683589,-3.0815576171743126,0.2397181466961266,3.1012264273434917,-1.576269098359612,0.5246834812646805,0.20288294409521965
3.339664484,-3.052419061383033,-0.35265223265845713,3.133817672003916,-1.0181021866775934,0.5140080517909988,0.19744042663567288
3.53966898,-2.617108732661947,-1.0239748379179043,3.3656056993865953,-0.7400432679388096,0.4755184754400273,0.18901329042192228
3.739665541,-2.118865531984955,-1.1388955392612217,3.405901993493166,-0.3775291752287797,0.38676846126541703,0.19017779769997198
3.939667288,-1.3158385588295118,-1.2689768475962055,3.1762069252116185,0.09175636655047759,0.34061341163834397,0.20001910740801776
4.13967163,-1.011173732499854,-1.002439471854678,3.026273433471218,0.7323324004226718,0.3693342558149262,0.20716833679142907
4.339668816,-0.26728645096917675,-0.701357904576027,3.174348140727656,1.1935404339887583,0.5184706020715817,0.13008147637192707
4.539669713,-0.2253189191217421,-0.019712813145563945,3.471041933701946,1.180915633212888,0.5681709054542639,-0.062036814316047025
4.739671793,0.2669321014457063,0.6231297761431768,3.839656157528991,1.078726389545395,0.3575905291128991,-0.14441782744719123
4.939714761,0.6945519762442784,1.1208503880085703,3.7067024208919475,0.6335058414563475,0.23179370523952586,-0.20578744381488595
5.139673252,1.136284569460171,1.5240400205959121,3.2317558284127657,0.36557386016915316,0.270574118247544,-0.22564266057717297
5.33969209,1.755390036021712,1.5926989820781343,3.1172421195916993,-0.32408448601518675,0.4119667462880587,-0.2552739253923537
5.539670742,2.3355122336234917,1.3750619636185897,3.1447247437013703,-0.7899467124718929,0.49704194847054656,-0.2522152771706469
5.739765019,2.638512514435493,0.737670669821158,3.1449743606761196,-1.1163080244434742,0.5241421659579377,-0.24216785350048003
5.939666475,2.7601702952757328,0.13777321241194262,3.3341127850204315,-1.7213114194597823,0.46408081100640186,-0.22341633864113394
6.139664662,2.713292683838479,-0.6486795324318055,3.2460786614137183,-1.9594267594310677,0.42127536325321774,-0.22290118157381475
6.339665481,2.164239741911117,-0.9773628030287814,3.3740602858425532,-2.732398486374395,0.36721890363637066,-0.23231404561721847
6.539666935,1.7826679646587844,-1.3058217482904162,3.152596376868203,-3.0628808488570485,0.33327047356535466,-0.2597434766916401
6.739663319,1.1316519583209836,-1.3221580303749716,2.9717763994032076,-3.442799578181306,0.433060043503486,-0.2565216989316906
6.939667963,0.6051951100502697,-0.929920735215954,3.140262393817434,-3.930335952755131,0.5579717714865615,-0.24487649630877317
7.139673504,0.29523017459328005,-0.3367434531369449,3.212507102887517,-4.261335296614219,0.5762204337921636,-0.08304914715743308
7.339666651,-0.03642568811948005,0.38035966593373144,3.7574897608024345,-4.227694732562364,0.41854688728938233,0.06253962301581914
7.539668187,-0.48728514047271276,0.8170906709788346,3.9038339198717855,-3.9074502684912296,0.29979111894671534,0.1357244476826609
7.739670953,-1.1064212606242048,1.4942335149030082,3.559787535106756,-3.6277567557379977,0.21096317740682083,0.17334357329280842
7.939668038,-1.7600480969718655,1.4724437570630338,3.2762151724440227,-3.1795718979824628,0.2521398458103071,0.18447948772193629
8.139767548,-2.23922442097905,1.3672701460665595,3.2938381176308282,-2.6799907061261665,0.3572932326740989,0.19859895399703958
8.33966739,-2.7658965411700516,1.0262809929561467,3.0027259630166063,-2.2304518001088245,0.41916621049077435,0.22285612755610207
8.539666904,-3.0653480640793647,0.5116194416133576,3.021005480324325,-1.6708854485882916,0.4900226164904721,0.2195873505808884
8.73966683,-3.023165739979798,-0.03692839362854772,3.196443775346051,-1.328897865175528,0.5112117701693526,0.20692621274733652
8.939663719,-2.9135064007365257,-0.6493519083106268,3.3297863039443176,-0.7949592386794102,0.48274057286401273,0.19245215039604846
9.139727027,-2.3478036672998366,-1.217271744600425,3.450877240867395,-0.5601432039170166,0.4422365934804315,0.19031887694198538
9.339692425,-1.903532173027306,-1.2141837647162868,3.1000798684016537,0.05423065477513752,0.3960715154195576,0.20067913831625603
9.539673597,-1.308295976539963,-1.2683779463631988,3.0128396737919636,0.3974268065998872,0.33994643029261845,0.20456354117617742
9.739667711,-0.6092848608197791,-0.9030118044917087,3.0152765682117675,0.8988921201900538,0.41900951665294806,0.21292861473625616
9.939668216,-0.34937794765756003,-0.2770488402535751,3.435311707971079,0.9638093108368316,0.58999752219342,0.02198339302779721
10.139677181,-0.03611294647624913,0.3688683381203544,3.6420688645302857,1.0099397587902474,0.44154981512363856,-0.1007498306492866
10.339668065,0.31831525291056123,0.9545172964481099,3.685582627142913,0.7680507204968763,0.29670571626709313,-0.1830573262338812
10.539711617,0.9832554088699836,1.317196260339009,3.3790027579236144,0.3020851464658662,0.22961575443415522,-0.21600112921058184
10.739682457,1.6160510713216847,1.6140471402041647,2.9678599277333966,-0.05673509558824589,0.34761936349110206,-0.22245189945331414
10.939738336,2.146082155344184,1.2782984400540107,3.054180157428835,-0.6287860721788378,0.5063583980685634,-0.24240954349901125
11.139691694,2.645337402775385,0.6754491495246451,3.260734511015046,-1.03505353200849,0.5057380669237945,-0.2352508198040805
11.339672461,2.729749929702735,0.3283312429547697,3.196225050893531,-1.4933487824104126,0.48005205290553615,-0.22619909635536792
11.539718252,2.826348690746158,-0.5036503726827493,3.150052631729571,-1.8069858771857599,0.4505527130471027,-0.20497599448969922
11.739667094,2.45263032270543,-0.9562870160020491,3.1590261546227993,-2.2934298556456723,0.36233335417064316,-0.22310547136054926
11.939671213,1.9367328871928273,-1.2225329090686259,3.356562599037281,-2.760722957645344,0.3372426960841084,-0.23282107458881557
12.139745443,1.4989139006040566,-1.3841388319538028,3.1161075154676303,-3.21500592575556,0.3907012010777093,-0.25063653576351114
12.339674074,0.8235274731315386,-1.106395733998285,3.0342112154055068,-3.5057848140748873,0.48963958401787055,-0.2427059651658345
12.539676539,0.31679590730896756,-0.6409665600089443,3.290301947040815,-4.336665087821416,0.6024439213044378,-0.1774232655907278
12.739795167,0.14574298866409488,-0.22521872128165732,3.5665930362449623,-4.305809190493193,0.5357877306461725,0.02850174842293262
12.939666806,-0.24432878993763743,0.6041417889650889,3.6088986479271234,-4.124280427457364,0.33677864282764597,0.11954579955799155
13.139706658,-0.6371944942369361,1.2092702656313232,3.5320953884897137,-3.6425904024203604,0.24645833075003948,0.17116311439821497
13.339670206,-1.2582264313213611,1.443732561526758,3.270265852367092,-3.2580101753555213,0.24509745574315908,0.18095338161717556
13.53966674,-1.887397445320409,1.612669511229478,3.144650945672815,-2.7543432812945983,0.30816931027597005,0.2003827679010146
13.739792281,-2.430817017443845,1.4222781305962329,2.972928746673683,-2.327094486370733,0.3823799165427126,0.22426897354809888
13.93966711,-2.9811394801795115,0.8516305460352689,3.076621603029327,-2.12809912301034,0.44543058756451526,0.23568472780177036
14.139666784,-2.8811641597014335,0.15805766126547086,3.1688459225566463,-1.5061912514183255,0.49665647935591695,0.23261004000482824
14.339669347,-3.000105577131013,-0.30988819708561627,3.298861164922285,-1.044828105425438,0.5178249780918434,0.2168549007806545
14.539674192,-2.680897529568821,-0.7066275768937965,3.3695330833565023,-0.8155206189489429,0.46968484034669145,0.21771468855781867
14.739668328,-2.1468200181090444,-1.1776079638241246,3.3241243812170764,-0.3087858148038884,0.3993240120127718,0.21391599062237293
14.939669351,-1.3878005893930139,-1.3843459671489324,3.2277600297505846,0.18893653944349592,0.3425914247305094,0.22150598360874377
15.13970008,-0.8403039875083776,-1.0532099099732848,2.993819931405062,0.6145209394554684,0.35774884303395205,0.22438673514289542
15.339793294,-0.2772027573997612,-0.5971898959033207,3.118257282168283,0.9884398365384215,0.5524262561589982,0.13455166270809218
15.539734287,-0.06623504026560081,-0.04980229230878211,3.4782402903483782,1.2461145584928606,0.5467552470837853,-0.03251702855168325
15.739669142,0.20457372113338138,0.6093043754714145,3.600747838878756,1.0716454234397772,0.3584810468513409,-0.13407536902665432
15.939678089000001,0.6120007998360728,1.0188666316014194,3.5316730987528278,0.7031012216183326,0.2301024519418489,-0.20977524819643342
16.139687874,1.3181780727687167,1.3521819599740104,3.3307910297176253,0.19764031402270235,0.2705602878070791,-0.21760704199986491
16.339669642,1.9814778337279273,1.2839206917682424,3.10006403429509,-0.3041719506585957,0.3887468365512118,-0.24631988738781446
16.539685722,2.323086443229226,1.2150900122038821,3.1487998052863504,-0.729824914619338,0.4770152029691151,-0.25495009809579977
16.739670699,2.8528686744793625,0.6645279024005019,3.269929135173879,-1.344473581125836,0.4972795005857145,-0.24300023982321595
16.939667412,2.9013901442546546,0.02325324185959217,3.2832305001833606,-1.5843754553377836,0.4720697048462637,-0.24798393828489407
17.139669621,2.8144887982880915,-0.6500496715697257,3.1285395903941358,-2.085544401743916,0.42614350630363845,-0.22895678100715686
17.339667492,2.375342444810388,-1.0184738493335213,3.0526686736560946,-2.65330591305619,0.3683378701184732,-0.23087859386466184
17.53976616,1.7385630652956283,-1.3195471908041672,3.2728035220962224,-3.1321016670966917,0.3621527785879337,-0.23726563509618367
17.739669478,1.2488898833246325,-1.2952788206931791,3.07213673711877,-3.3345227534076414,0.4558156075135126,-0.25687059759970504
17.939676066,0.7014422666653033,-1.0974541485342095,3.179065145604854,-3.971176769868593,0.5285857030258447,-0.22867631952262868
18.139687841,0.03405730514787339,-0.5445477730803922,3.2600008681513475,-4.225323553573409,0.5887434004196237,-0.07353897221141667
18.339667841,0.03888460122816268,0.19346297060456183,3.8342100741844853,-4.250550920620765,0.4325762513915872,0.0701537611171525
18.539797712,-0.536920030433297,0.8537219138069811,3.7563447949394417,-3.8300901945451304,0.27575376912881433,0.13762330465664308
18.739718354,-0.8818247809378849,1.164556965058565,3.490196384208889,-3.499671100674497,0.2226367046384128,0.15082017194296302
18.939680557,-1.592589087871881,1.3915895275810146,3.155198803252137,-3.1536998954913065,0.25215352066062,0.18409088085210543
19.139665478,-2.3134202443244143,1.4655290260653493,3.1659972094551536,-2.7734610997554396,0.2614819207726109,0.25138973669741593
19.339667445,-2.5463958759605605,1.0033040318764557,2.973189206111132,-2.2750428807261143,0.435538967857428,0.21707504612948111
19.5396657,-2.988409023301596,0.4503561892628524,3.1065669029437353,-1.7170976049133997,0.5175158715675712,0.1986394598316273
19.739669902,-3.037000081828502,0.04673411331821445,3.374153401453582,-1.3721348323462883,0.4859891728276359,0.22135406047144474
19.9396809,-2.833925788343034,-0.730240127075975,3.2815511322174977,-0.8285508163883472,0.4576726301355085,0.2084554786547375
20.139697618,-2.3726473655829308,-1.0321084454661416,3.2347111327585263,-0.3799587691189572,0.4502806429905668,0.20721180095562206
20.339666134,-1.686436129430836,-1.3570375406682844,3.1023232816001314,0.062396957087337786,0.334192283911925,0.21458839417363385
20.539684741,-0.9668087988445137,-1.2414482119867787,3.035617824897289,0.5464303767559887,0.3491623412393828,0.22764816085735176
20.739666846,-0.4990404029438988,-1.0546225500650925,3.230227433407441,0.9634466772364677,0.4595159910711946,0.19679899225152883
20.939665183,-0.24800608722364137,-0.4117391650606534,3.199312474771694,1.2199567730201708,0.5886784280316624,0.033140150767482376
21.139725068,-0.06710325730920226,0.03454599204112291,3.7383789025752376,1.0541532417725281,0.5099950572910218,-0.09857048363943817
21.339680175,0.4687309828752157,0.9160260995982695,3.5962449843698474,0.8893279420832573,0.2582031523074185,-0.19188672774461635
21.539767304,0.9255284777616652,1.129606074899999,3.381924636951466,0.4719434380625096,0.22820270628922298,-0.21495779737280032
21.739678312,1.753102615161107,1.4399720481141678,3.144514988160786,-0.04972498598625025,0.32393810179318,-0.24219921208257525
21.939674013,2.345477531917722,1.3701261892414716,3.150867245334732,-0.5618077469096909,0.4339097124562613,-0.26032165646475125
22.139685472,2.611919876515781,0.8688373934891053,3.203634861078057,-1.0399122415097075,0.5049707182005744,-0.25885762401438805
22.339680006000002,3.0219879210783405,0.20035736921269523,3.2904086555050744,-1.3558098080910328,0.5640173317359266,-0.25894910907541696
22.539687287,2.9088266305476878,-0.31857133036427243,3.170390875692305,-1.895898682404723,0.4438673665282306,-0.22957583248816998
22.739668536,2.576446169310825,-0.914491356736398,3.249580313057525,-2.3502953563540148,0.4284349209659309,-0.24609805459666367
