time (sec),x position (m),y position (m),forward velocity (m/s),"heading angle (rad), from x-axis, positive is CCW",throttle (unitless; -1 to 1),steering angle (unitless; -1 to 1)
0.131611862,0.13443964396974187,0.19886923919937669,-0.00792883535549971,1.5310522454406732,0.0,-1.0
0.17162527200000002,0.14321495576531829,0.18708188592618635,0.010594303916440888,1.5557054530157033,0.3940363762196451,-0.11626709049203594
0.211627574,0.13858658850171512,0.19249526537852718,0.2100507087153275,1.5221138611950316,0.75,-0.13256692263011333
0.251628678,0.13781701446310313,0.20431675839125313,0.5055236116445515,1.5395026904601663,0.75,-0.13843460036498179
0.291628891,0.13591351605743235,0.25980759979756546,0.8477172521524869,1.48969183951617,0.75,-0.14159732074964185
0.331700606,0.15028668656853936,0.28380076352366507,1.281139910748802,1.4505200795855122,0.75,-0.18598211983562182
0.371631027,0.15565163708145782,0.3351015273329313,1.518358619356393,1.3948686022657784,0.75,-0.2149371046062267
0.41162275200000004,0.1885830890961393,0.40179682694658003,1.8364813247466512,1.3070244533110251,0.75,-0.23833420774992695
0.451632807,0.21045855886436274,0.4684925038738486,2.1122807143037323,1.2172431207058751,0.75,-0.24034540238235677
0.49163282300000005,0.2601157329825934,0.5673243530765355,2.378573815192863,1.130963811838691,0.75,-0.25514347077088445
0.531620599,0.2923036440621737,0.658353733330436,2.5796046823325494,1.0278977431579794,0.6962533048005165,-0.2591711101849302
0.5716303380000001,0.37447591572243066,0.741737170759965,2.6910001973478836,0.9252774371108231,0.6254665407587319,-0.2589707356375101
0.611629721,0.42739390195486315,0.8086089505395387,2.766392747620925,0.8303283729128025,0.5229264731068289,-0.24812919011780984
0.651632875,0.5183389480867325,0.9030952700868601,2.815472773610543,0.7351086169270696,0.4493067997314498,-0.24657215615588665
0.6916248730000001,0.6206270217401624,0.9793810427310193,2.816106783097082,0.5703780640707842,0.4127088554369859,-0.24622289930753813
0.731624291,0.7068855765188057,1.0248827234628275,2.8481746876879646,0.5266450246624282,0.39490107807500774,-0.23849794573522307
0.7716313600000001,0.8412656932033389,1.074839760215013,2.8573436788026,0.37989598604588476,0.3662797485091264,-0.2372594419629763
0.811649362,0.9134983110543957,1.1246938395098316,2.840220844433313,0.2934232986379231,0.35819101895871036,-0.22642742799389962
0.8516323490000001,1.0203785495902205,1.1663642693089336,2.8555552159020934,0.19010105929833387,0.3633238884457594,-0.23117836561721325
0.8916247540000001,1.1274753995745752,1.1647510085679982,2.8451976449355025,0.11343728368049985,0.38084312987204755,-0.21717986867979458
0.931620839,1.2605981054381752,1.1586522402872486,2.845657681940805,-0.044820895384773005,0.4198671722725092,-0.21946883856055568
0.9716388340000001,1.3517768771422933,1.1561577813967625,2.871001308856661,-0.08345891106313735,0.3485512659807236,-0.2093107343325998
1.011620762,1.4629752900684978,1.1552734385520391,2.8588898108302914,-0.19430345852692493,0.3600256449669432,-0.20909656132418117
1.051621772,1.5702108725784452,1.1117925257168142,2.8830737100520545,-0.2809003909975512,0.3461227146748826,-0.19283081993277082
1.091623799,1.7143564194187737,1.0611381826471902,2.8939764349474633,-0.4041310894056385,0.32707763020509184,-0.20120254130454243
1.131642223,1.789959983925089,1.0098792503157634,2.869376163653208,-0.47353921376096997,0.33304962143739564,-0.20212618919070174
1.17166871,1.8822321019122785,0.9707129394375309,2.867309696134233,-0.5602698504339599,0.3344033926777051,-0.20245183495891403
1.21163803,1.992887318324503,0.8917371701071268,2.866910056467222,-0.6588926538049255,0.30802333827113704,-0.19552390978187864
1.251635043,2.0757139425151188,0.8225276569288552,2.8940706732647037,-0.7486503219098516,0.3114710082331778,-0.2014386744360417
1.29163058,2.161075275085259,0.7470640493425096,2.8431061614349256,-0.8240349524877435,0.31542762539241626,-0.20110568516048558
1.331619657,2.2327202414007976,0.6658670219119943,2.866989664052797,-0.9346507809958403,0.3348595091230204,-0.19903854777981986
1.371621121,2.288359616212688,0.557436328612174,2.859259803850507,-1.003169679984545,0.29984308560151085,-0.19816503468555313
1.411623524,2.3703774428748754,0.4251678067690258,2.869154652086299,-1.1335435827865235,0.30616460780925514,-0.19813153966740119
1.451627599,2.3935077618914296,0.3590195356329619,2.8546796130557635,-1.1958394412676834,0.3146566045392333,-0.1987519692438007
1.491637102,2.4059453309390806,0.23015603338401067,2.880903830900196,-1.3189077773295435,0.29680961434989706,-0.19270406522861053
1.531702962,2.4413693645940375,0.14191293892113985,2.8463235218913234,-1.3839903767589754,0.2842503857656752,-0.187881888990313
1.571629954,2.4523335855569117,0.023310731816218438,2.8553053726777,-1.4632691374409583,0.29254803671145496,-0.19864175364246364
1.61161393,2.464172576929162,-0.12261456694823931,2.8257957988942897,-1.5932658756546505,0.2843570155312144,-0.19111053310729395
1.651646345,2.449756195962516,-0.1948919511435915,2.8336396925069742,-1.653353447522386,0.2854055017403448,-0.2006871618175597
1.691627176,2.4467940238107384,-0.3151006690032091,2.813462475312725,-1.761676340826603,0.2812985666531014,-0.2043608472008821
1.7316342420000002,2.4119811982351282,-0.4130066614463403,2.8261173388160956,-1.842805281226759,0.2959582873325317,-0.1996957027233619
1.7716267710000002,2.387260712660049,-0.5128517807665162,2.7912265211377756,-1.9230993662445266,0.28925959116206723,-0.20032880219658816
1.81164659,2.335850355418033,-0.6410375917005948,2.7891572662077464,-2.020383117455557,0.285373134526498,-0.2045891101311822
1.851639746,2.2894763891862135,-0.7425998142815733,2.7748581431735184,-2.1057726601175455,0.29451115732238264,-0.20930287462865307
1.8916259210000002,2.2324669677416504,-0.812798567378028,2.791127673670511,-2.2079170975463,0.3095705865397625,-0.21308738407953315
1.931619058,2.1467732569904046,-0.8912679316727594,2.774644825596528,-2.311198323142276,0.294132785828074,-0.20683227954955774
1.97169492,2.085437216444008,-0.9802400245811312,2.745618977219929,-2.382934927238964,0.2912087322711701,-0.21059410264795153
2.011624413,1.9974490769143343,-1.0693112840593586,2.7718970555646276,-2.4764514942366382,0.3012433903149162,-0.21384500433586034
2.051617634,1.9206812312683106,-1.1293047324074217,2.7707691411066135,-2.5658363169582215,0.30862739429747044,-0.21009137298482058
2.091653173,1.788227900948448,-1.196835428124072,2.717450286417553,-2.704631304233451,0.30193065876513964,-0.2108290979870075
2.131620624,1.6934704178090856,-1.2332038207510798,2.7601467976862404,-2.7693206246894437,0.29503821590316087,-0.21353218696827858
2.171627788,1.6065147115783924,-1.2512259925293006,2.751880198997963,-2.8576409104491876,0.31742480443129745,-0.214966788903159
2.211623285,1.4936306185358361,-1.2588943785001852,2.7323342979705076,-2.957217313987347,0.3057066367255226,-0.20626843158147357
2.251704721,1.3919036444706543,-1.2913871961556964,2.7594729316306457,-3.042856365798009,0.3110708144199896,-0.21350997928661386
2.291630915,1.2515941860106232,-1.2698342220361352,2.7588577787681774,-3.1324166640072417,0.3177476822446025,-0.2137748359573419
2.331647758,1.1665182216937073,-1.2942422531345024,2.752503268381765,-3.2306370726328537,0.34175111098784244,-0.2135091773982496
2.371618863,1.0367634365172955,-1.2881740526326033,2.7454509412428756,-3.356209127052174,0.3174311725000449,-0.2056690455718145
2.411630813,0.9437728196468291,-1.2555270305672581,2.7606816386074433,-3.421491572881938,0.31751472041964046,-0.209349815552474
2.451631872,0.8576824239951413,-1.2141881047445515,2.7720424161687442,-3.5238330067944346,0.3301840465906849,-0.21191380481393132
2.491628352,0.7583570376819547,-1.1738730262287023,2.7630810894743276,-3.6333873199837976,0.3560127333178538,-0.20523578378560545
2.531635085,0.6549819037131313,-1.0984872404852835,2.787886510712509,-3.6931069672981693,0.32782218870355806,-0.20154752446854568
2.571635639,0.5603088169553163,-1.0356225941277133,2.768443700815676,-3.8136565704402807,0.3279660587027988,-0.2047096318858203
2.6116140039999998,0.500684855975286,-0.9662805860798432,2.7783657538677566,-3.883001645090855,0.3351622846696466,-0.20774806395971987
2.65163569,0.39799313189672725,-0.8846019523982467,2.781525263365088,-3.9778702844316,0.36437623947509973,-0.21039871925561382
2.691623339,0.3055246172009954,-0.7902804420370342,2.789316753385867,-4.099528675936888,0.3323723390827257,-0.20421511255851937
2.731696595,0.2565519818412312,-0.707132393361361,2.792668720145499,-4.158065299875256,0.33197137403956484,-0.20689502645530872
2.771668501,0.18935326900302316,-0.5945643294344296,2.7711448465297166,-4.275321164549309,0.3462449685383247,-0.20811383804105638
2.811627504,0.1730377184740564,-0.49449549358549494,2.8117567346356327,-4.35990716941567,0.35224807552051474,-0.16568614137560606
2.851664146,0.13697019671452904,-0.3884700623642471,2.825683689760862,-4.432011444207294,0.35780727081932207,-0.12771797556188
2.891634054,0.09815564966833627,-0.27552253530379633,2.8913462463261705,-4.494931336601174,0.3623426473241335,-0.07282630990894952
2.931627985,0.07451887293398636,-0.1620372105930355,2.969136759384791,-4.53177330328168,0.3666373382097035,-0.03476612542918733
2.971632345,0.03974823907866919,-0.02800493237125081,3.0042339989635756,-4.562850234766048,0.3546281711090617,0.015942816816085635
3.011625512,0.03593483881074946,0.07713276798309665,3.041333223909061,-4.532314870308904,0.3234758047725942,0.06879314271995367
3.051630045,0.009403255098436284,0.180678332444028,3.0838903050863373,-4.4935531503387205,0.3117694305455296,0.11366099303848136
3.091624223,-0.022238094425345606,0.3080114271687073,3.125999337054359,-4.446779152669735,0.30631468587725696,0.15303394347589488
3.131704785,-0.05662153631050058,0.4618847363044956,3.1098630632499207,-4.378157144256776,0.27535446210281117,0.17892185595516608
3.171752058,-0.10375756010827251,0.5791624540835064,3.0973744390866003,-4.322363780548406,0.2598198138926147,0.1995039291184587
3.211626083,-0.15238146078305423,0.6459462527919171,3.097367810669936,-4.2415442100488505,0.2579247636778034,0.21033209567623654
3.251627003,-0.19915699790277566,0.7461755096804844,3.068214647853672,-4.15071549505237,0.25603161681900966,0.217530921692248
3.29162112,-0.2717523661321143,0.8612560081272204,3.0876165491174916,-4.074468708268578,0.24941309132409095,0.22312895522345394
3.331639549,-0.38114338250881674,0.9697621282719926,3.0308822971622273,-3.9434682020962724,0.2615169435060152,0.23278382601695893
3.371653792,-0.4475817206516627,1.0432006184149307,3.0155304884735523,-3.8483816303651013,0.2861692390628978,0.23430739772990802
3.411631052,-0.5491873412448257,1.1263845973519886,2.9925746643648834,-3.7668174650898503,0.2780451763619893,0.22609102859988525
3.451703706,-0.643233316858287,1.182182706637161,2.9540740725507457,-3.6560449595702047,0.28120518243386444,0.21867428845606432
3.49162142,-0.7370088824810472,1.2633706959372957,2.925791990398557,-3.51899215018964,0.30090485525951755,0.225464116807143
3.531619036,-0.8705806570474671,1.2885669341057966,2.9209604298908056,-3.4491580158783295,0.333424245687568,0.22273162139828315
3.571622234,-0.9875087662267603,1.3156146707578333,2.884581926115808,-3.346307107936871,0.31844164034189115,0.21156357021393613
3.611625247,-1.0817663775728332,1.33235071165106,2.9138152613645616,-3.261370488886014,0.3266975782384143,0.20228431980989373
3.651639255,-1.190376630283305,1.362483279910501,2.923625253416709,-3.1945728453752658,0.343520545689992,0.21019927949987677
3.691621398,-1.3273000102485581,1.3541688475269709,2.918042864481803,-3.1012140043248437,0.3688527918374871,0.20408165385380025
3.731617972,-1.4106093268187825,1.3446792048358993,2.9531730178224187,-3.0415302705360636,0.3333561822381314,0.2049423356131913
3.771627924,-1.57323730808535,1.3431571511971085,2.968897504653583,-2.949158541413531,0.33312456316358124,0.2109167540041292
3.811633646,-1.6583915891524932,1.317659412679846,3.015743352511622,-2.8604045957846096,0.3377164866423936,0.21090196508781583
3.851620688,-1.7885293631112151,1.2671129553499951,2.973761246679965,-2.7658222144137206,0.32950112575264257,0.20780341841639205
3.891641727,-1.9160958107116919,1.2101327361236625,2.9640523981919613,-2.6499689229721493,0.30539632230344455,0.20649321643768712
3.931624502,-1.9786659358573349,1.15612601751274,2.9517475508165236,-2.5820113221353465,0.29833472865604416,0.21747427270018316
3.971627258,-2.064095391838279,1.1068156734265278,2.9547437860120795,-2.488600299316517,0.31616344839832683,0.21966231341802897
4.011624216,-2.162778977006058,1.0081240198853052,2.9417013295863628,-2.366206763355178,0.31055915499994013,0.2039847562412296
4.05163375,-2.2462292424575474,0.9456599418922743,2.930082030091796,-2.312603451388107,0.3021977458064395,0.21145561478360797
4.091624252,-2.3195978459263875,0.864202811258834,2.8709938850242427,-2.2182548263751376,0.3065339395021232,0.21191004286534942
4.131617906,-2.3940321948627163,0.7587353131698998,2.9331494340580586,-2.1121212338418176,0.3305724676257699,0.21333484667514604
4.171628497,-2.4560183983075454,0.6608506215126811,2.8732014018119645,-2.0236893071485538,0.31349071401416606,0.21290080611247117
4.211620777,-2.507359394551645,0.5501330375560561,2.8980437427097714,-1.9292999024500013,0.32396307454283535,0.21308353641478872
4.251620871,-2.528557129652294,0.4564120168753146,2.9134145063478023,-1.84623618761961,0.3163294625116496,0.21281145575518778
4.291625948,-2.5724241932741405,0.3321604857428208,2.8868482057594984,-1.7421715150557069,0.3207787869875554,0.20831565653370654
4.331700766,-2.573608467996075,0.22757591524109513,2.8928629760509184,-1.6580362578564383,0.30803871462039517,0.20866919217985325
4.371638269,-2.586234962998629,0.0943672634763125,2.900246698764324,-1.5886689215414471,0.31054200583740416,0.20916192727592203
4.411621245,-2.6012007580286465,-0.014243087765535139,2.908392035875602,-1.5035476847533955,0.32878440398444364,0.211317926092237
4.451626364,-2.553399389998772,-0.12913951310780394,2.905273513927075,-1.3946248243220516,0.3031798749648648,0.21160009763051163
4.491627297,-2.547524483123399,-0.23127819455444862,2.868552688262132,-1.339519089844892,0.29926565675226,0.2157274147861679
4.531621424,-2.5057861845115292,-0.3426990422501165,2.8737554979620525,-1.2240029725651227,0.30537805834887677,0.21810430041712486
4.571625697,-2.4621464149191987,-0.4684477686336488,2.8789918241338617,-1.131745640860301,0.3275442193336661,0.21981011523276675
4.611623923,-2.4163562872412054,-0.5543567094869017,2.8705835392936896,-1.048345623537906,0.2976386367724336,0.2172207944573919
4.651624041,-2.3661652104286364,-0.6564299398755458,2.859479006200096,-0.9502807613238152,0.2980781651341967,0.22089856402680877
4.691637096,-2.303877788609268,-0.7450099000173878,2.859871259127835,-0.8619071187468651,0.3019491943213484,0.21622375017984571
4.731616779,-2.2152551062638866,-0.8551644294040017,2.839907770377571,-0.7665805808070841,0.29505270177470166,0.2167251891980564
4.771644705,-2.1368141821711037,-0.9112905799260786,2.8351431648032577,-0.6716687934627473,0.29292153504119833,0.21821822752246015
4.811622827,-2.0512415313140506,-0.9659905269644941,2.8395869782443266,-0.5937872826625454,0.30073574547223125,0.22104427790107134
4.851700822,-1.9409868366522165,-1.0305057576509635,2.821365856362641,-0.4844207954575423,0.3124299008591509,0.2173151771994933
4.891638116,-1.8573569998261628,-1.094148851511317,2.8202841657992215,-0.3953811552793183,0.3022342846769062,0.2195785969379576
4.931621669,-1.7331162200056083,-1.135127932313973,2.8365740173811527,-0.3297722273919239,0.30088955541988693,0.22248343420589795
4.971631141,-1.621036968250827,-1.168653983225316,2.814031692948111,-0.2301599163818466,0.3183779795532371,0.22463605827338812
5.011620202,-1.5378518296112906,-1.1827122784845057,2.8368994278198123,-0.15060003842719016,0.3367379182049434,0.22714161115297596
5.051623107,-1.3941387597777004,-1.1776613390232198,2.826432502715948,-0.02491287279037721,0.3004079711955437,0.22474009400704545
5.091626481,-1.2760035107018393,-1.201369756993648,2.813443369472596,0.08695160846556027,0.30566001772634893,0.2265064857808501
5.13164774,-1.1980181583075338,-1.1873319667805975,2.83026542183688,0.15820022416669605,0.3178544805502286,0.22755513916166062
5.171639806,-1.044938229746751,-1.1605245938850852,2.781934643910896,0.27396942848720257,0.30833836756756916,0.21985349481531882
5.211619873,-0.9741517351450881,-1.134071350112284,2.821362446682971,0.33317761980412625,0.30124525941553726,0.2139497799790374
5.251623135,-0.8533892284734287,-1.0758724667018715,2.8066793305816455,0.4200441121226546,0.3165754623921205,0.22347592321121706
5.291625565,-0.7342452551711183,-1.0373965624482282,2.8147828395940353,0.5475652710020724,0.32247475548802307,0.2132060041533233
5.331626692,-0.640337911519142,-0.9808174729517234,2.7964350026913043,0.6094071863201717,0.31256635980803515,0.22196051286216098
5.371625934,-0.5376488741760307,-0.8893838345296646,2.811853655544429,0.7395893195497236,0.31686585373011245,0.22483167723009273
5.411712,-0.5020159338184971,-0.840937513041409,2.8380633640294928,0.7835959601372867,0.32481009048270676,0.22040218016254934
5.451631452,-0.41458718317418214,-0.7537585511325778,2.832703325046783,0.8816133356915519,0.3551770162350343,0.22942778662501132
5.491627394,-0.3212217002501222,-0.6268690348539506,2.8337872890015094,0.9970260501245422,0.31536226049746646,0.21788097462283654
5.531625214,-0.27054515345659874,-0.5693993948609847,2.8227082715604084,1.0744799292913747,0.3214904254857393,0.22897846047483705
5.571623901,-0.2142714764877275,-0.44597303640184643,2.813146565467309,1.1513484414071047,0.3332076652487459,0.23022121886695
5.611624316,-0.20061214915214573,-0.35013671002002017,2.830538706578921,1.2507471844200029,0.3253847048534142,0.15807913913189636
5.651625427,-0.1582760358662762,-0.24559879682102523,2.865817218893006,1.290146107027962,0.3365125464025659,0.10357988287245079
5.691628408,-0.1390122993138203,-0.13937065865897952,2.8875886448024546,1.3348463948159446,0.3547488890353686,0.04177896344028023
5.7317314370000005,-0.10283462561017985,-0.03811349394340856,2.949293103184947,1.3303617801711707,0.3725225695303178,-0.019208966872006437
5.771629922,-0.06220530544049188,0.1124441887129958,2.9754688520339725,1.3090390537068186,0.3388938589821849,-0.06425959499471115
5.811625257,-0.04368830384850992,0.19166979592305317,3.009338730844248,1.2749822895763854,0.33093200085533414,-0.10385587995790488
5.851619239,0.0038285710417571054,0.3019753629822573,2.986105024851734,1.210407972133882,0.3238643184483213,-0.1351265196410981
5.891636191,0.05128563401227477,0.43405887675508903,3.0070267524280636,1.158976049275432,0.30648476821297915,-0.1533442310926775
5.931617483,0.13317112853198065,0.5585934985725234,3.0157351194700976,1.0611943389704612,0.2967831138203758,-0.17315674217044708
5.971628577,0.18794375522724335,0.6186930333837545,2.999533915587681,1.0091202268500141,0.2994378087219909,-0.18624526394326876
6.011619388,0.2299552047736988,0.7399874390531975,3.0215661480554057,0.9060646005802112,0.31096085387624123,-0.19581716895008683
6.051631017,0.3094089246420295,0.8149919577920436,2.970040472691258,0.8202345886224534,0.29119445668046673,-0.19301286387056144
6.091628411,0.40831604655236714,0.908823175138044,2.964446535769543,0.7488641147851185,0.2981260912412006,-0.20267564821956063
6.131617436,0.4988913141478797,0.9982986601244604,2.9553745851054942,0.658671927587682,0.30366461182985055,-0.20485752627133536
6.171623862,0.5772788792889566,1.0780883484417192,2.9648024028706574,0.5397740069898632,0.3129158519814576,-0.204139051286084
6.211625391,0.7146434982085721,1.1288626994989173,2.9208096970735857,0.44070132691764746,0.3097304983776615,-0.20448716746807669
6.251643402,0.7977060134403643,1.1664982596080773,2.9516505566842755,0.3928812936255194,0.3120981817560198,-0.20472323233324846
