time (sec),x position (m),y position (m),forward velocity (m/s),"heading angle (rad), from x-axis, positive is CCW",throttle (unitless; -1 to 1),steering angle (unitless; -1 to 1)
1.034828973,-2.338409397877537,1.0950436274229252,3.049107887775362,4.317260249086192,0.39496728812405935,0.20518018229623913
1.134818931,-2.49844410151553,0.7951682206204163,3.0978388473893723,4.5459431899654765,0.36815799832026963,0.2027521613347981
1.234908062,-2.481610394463405,0.5103907978448616,3.0595517928120186,4.784663121441718,0.3431560041537613,0.1969627856190319
1.33480851,-2.4097598446952877,0.20442922873158315,3.026412516251433,5.030469610048297,0.3154594804568801,0.1893271449529164
1.434806183,-2.3316353257107165,-0.09349784029224086,2.995323151430697,5.215506780228684,0.3190723637963942,0.19250590933732598
1.534826929,-2.1454100234699633,-0.272935141280452,2.9487901601008026,5.473680472831654,0.31332728223695605,0.1926951245679773
1.634824752,-1.8970917265324094,-0.5377565219730952,2.9046907020622785,5.71430673477719,0.3040628023448581,0.20268713330874558
1.7348194860000001,-1.6573907033935575,-0.627427937473082,2.916718339984932,5.968098975954384,0.3120192188028453,0.20123865109845152
1.8348090240000001,-1.3842988363489688,-0.7188311711276195,2.90420468720382,6.160957687784685,0.3320283205884491,0.20410828104725898
1.934830615,-1.0978241341445034,-0.6945884675345195,2.873659210721043,6.397498976960141,0.32048979831822577,0.19451514409132822
2.034815843,-0.8199593620809498,-0.6306191423430799,2.8766693797333334,6.602580620720643,0.3203023383104089,0.19525481929929883
2.134813516,-0.5593002624088858,-0.5207342341521981,2.890642601564002,6.889130065565321,0.31933664958935626,0.20672764893276932
2.234811072,-0.3350398125093444,-0.297296705597322,2.878634131190058,7.139572411351095,0.2944429013029158,0.20822913007755192
2.334809851,-0.2026118585076339,-0.09846437064451827,2.8270983556479146,7.354979173259894,0.317243642287131,0.18124536341683517
2.434839431,-0.06260334926366867,0.17024553868351314,2.86344097070233,7.526702577649319,0.3381352748584386,0.12474735877233153
2.534808106,0.0649357740725004,0.46655853574265427,2.912445501442587,7.5983182056283685,0.3413171930531773,-0.015901639695389318
2.634809478,0.11022019666327988,0.7283053508803425,3.0435362794088756,7.559563895421032,0.3370974469892501,-0.10339879176491389
2.734817948,0.23972046021411536,0.9999420900018666,3.0278213956262747,7.3959438845925725,0.3246080679505431,-0.17690815215936043
2.834912929,0.3848208860640607,1.262399831761573,3.0545884687122737,7.216708925580985,0.30876997240587184,-0.2069695489720736
2.934809174,0.5852862954515637,1.4638707068132377,2.971752575717788,6.953869888029729,0.33673390129791325,-0.21365430044858605
3.034814377,0.837654104117997,1.6647745433482204,2.9704928151285332,6.710934632263861,0.37620746783815173,-0.21650288988415087
3.134808602,1.1179007690719773,1.741643259535826,3.033205672193923,6.461650760861015,0.39500172725959726,-0.2062744088168298
3.234810023,1.3886090473874773,1.7621074027674395,3.0531720469035744,6.210238724485727,0.4011852439114082,-0.19745288253902205
3.334811094,1.7167312193795246,1.7493549401044963,3.067923646631557,6.064928312484753,0.4191545242487904,-0.19312434276008233
3.434840658,1.9857058533092857,1.6659442410751244,3.0839101882227147,5.816900853340565,0.3862890187805092,-0.1915032405810072
3.534862383,2.2523587635775457,1.4716921191118795,3.0970903256079283,5.65584681916727,0.35629503829251824,-0.1850837102172618
3.634807994,2.481831593930208,1.3245914840403965,3.13870893154843,5.434196438060071,0.35215631669516256,-0.1888601395380592
3.734810488,2.6160618130247815,1.042989648991865,3.111263450222823,5.212762009432109,0.3428845765370216,-0.19559911093435928
3.834823305,2.7782529303926315,0.7163094213031816,3.07188139923363,4.963663927485556,0.3315376263436778,-0.19408691716393325
3.934820929,2.844538987529058,0.4220150102421606,3.08244192954581,4.773953639791995,0.3276287600947857,-0.20219629032071237
4.034893938,2.815768083438153,0.09943019581333247,3.017439136695849,4.523127743753851,0.3381090866226311,-0.20449303693793602
4.134822102,2.7336853359667748,-0.17671575387545638,3.040581365808444,4.3044264010711375,0.3247234596266373,-0.20595306716851133
4.234808055,2.572378519562891,-0.4521260223067153,2.9960997359531203,4.073689935618536,0.3743735376055328,-0.20817392189553438
4.334834559,2.4248733775895426,-0.6459372128843671,2.9867222506649154,3.8036522604822722,0.3533766686120402,-0.20893848212454535
4.434812613,2.13295298282607,-0.8668374424269668,3.0031429750775533,3.589785073030337,0.33618370227930566,-0.20276733705896366
4.534813264,1.8821014761629427,-0.9458171384479527,3.016899943347038,3.3674617537959133,0.32892313736106593,-0.205246131601205
4.634817939,1.5612075728582497,-1.011785175959071,2.961248770060239,3.1315156620487565,0.35247086174277875,-0.20423826389725672
4.734844141,1.2145539896104716,-0.9567121448924529,2.987202632068982,2.9116664205102074,0.3171906371168719,-0.2003530693211991
4.834810447,0.9733657085548395,-0.8580218787569808,2.9569967547065072,2.6473878603550793,0.31197821256851843,-0.19152498859830805
4.934931307,0.7222081017387945,-0.7256616251981836,2.9538328333126254,2.4980385980388755,0.3049314523714935,-0.2063436205006881
5.034822426,0.4845574242738597,-0.5189801461556115,2.936334331744213,2.2886312923435854,0.28313061190766076,-0.2148588145421247
5.13481517,0.38344122281682164,-0.3055809674455683,2.8924241611652333,2.005578558483274,0.32464894672210304,-0.1677732481391768
5.234819717,0.2588917794431932,-0.0033419527201590422,3.0271641031857706,1.9301531672930838,0.36811970748261696,-0.06619319656170648
5.334922465,0.13368900621752602,0.3123827296998989,3.1357699031847455,1.8876405139560026,0.3591418287491983,0.05284047713888096
5.43480913,0.005001437920983249,0.5729996933874675,3.1817029118854485,1.9773660645733608,0.31175519817784564,0.13296574826671326
5.534922838,-0.16125451695076262,0.8544215388412604,3.19185676080341,2.152756843795339,0.2893837223483009,0.17202695439409135
5.634814556,-0.3566696778759128,1.0985621151049891,3.1765633726895977,2.3880919909630873,0.2782421070909332,0.19800777108115425
5.73481706,-0.5756630209913776,1.2887105339653495,3.093164433357356,2.630107445307209,0.28429735645988236,0.19931605734874158
5.834878494,-0.8958883186398479,1.4490967052432537,3.028257502931308,2.8916443865341765,0.3264870562634298,0.17888968499104987
5.934813719,-1.1507261944051723,1.4380640099110786,3.0154594379252964,3.124778285437323,0.36895403307809144,0.16980741457005508
6.034820083,-1.4707774250682222,1.444003793919,3.079150287539721,3.272849838293997,0.37368369091642706,0.15684912811848514
6.134810543,-1.7396796392018736,1.3888589317604687,3.098572830068008,3.5213621093703913,0.37236937828178923,0.1652729150277648
6.234830259,-2.039606954563771,1.2549879762823257,3.0718198054397003,3.7048676224186163,0.3442386430511042,0.1780546134457703
6.334810675,-2.2736258717100535,1.0339735968062367,3.082208143463242,3.9283972367038804,0.31756471492245547,0.18570243664172276
6.434803148,-2.4941481581764497,0.7721181160644135,3.0270442240792343,4.18755948630976,0.30797538827396365,0.18194533798491036
6.534893747,-2.612567299594174,0.5334848336053594,2.989561699130816,4.405413884932064,0.30268292238812766,0.17376592598430174
6.634815241,-2.6609657859716487,0.23525327113433173,2.9565415010062184,4.567038069685717,0.30477840604349726,0.17970252887421603
6.734809993,-2.684719595408249,-0.03197427203932664,2.924894081701587,4.840352149614515,0.3136575316776477,0.17327823465269787
6.834813206,-2.61096768136858,-0.3353952282486048,2.947142722810065,5.058003390438702,0.3126070746537679,0.19314068584287705
6.93491637,-2.4390725939555997,-0.5822807009948019,2.916558558327251,5.30647938259827,0.30777498484668936,0.20436430241091272
7.034823848,-2.3179344563888415,-0.8157657744597271,2.843015597125739,5.534617495827237,0.3238483415290321,0.20139311970763865
7.134818985,-2.06247363152589,-0.9569390973830856,2.8373990684820916,5.774010448421374,0.3487132633894594,0.20014407535646206
7.234873142,-1.7996812649391016,-1.1013316124032,2.85604687933573,5.971497132817505,0.36985392912839377,0.2004949104450226
7.334830118,-1.4993915136130338,-1.1469250782395868,2.90351756153454,6.2308040095049355,0.36380553134545734,0.19491403569936658
7.434841055,-1.2049268179779218,-1.1121493081970932,2.9372403814516885,6.498045752139927,0.3915570783505246,0.1989675370405347
7.534819289,-0.9500551524426072,-1.042632927061323,2.9991813916689405,6.7210699906471305,0.35040296515829006,0.190569597236739
7.634926744,-0.6890765456619985,-0.8795698656666779,2.9300516901929408,6.945486395443541,0.3372158835759222,0.18678824141469805
7.734819009,-0.5121261617645382,-0.6607609677503827,2.9765828975634396,7.184640413361197,0.33283420736378067,0.17898298404145718
7.834882017,-0.30229853140511087,-0.4768840364542694,2.89756858865584,7.37349759048837,0.33914869310757384,0.18633087285322977
7.934808534,-0.21749314807200693,-0.1756753139133712,2.951198523043045,7.545780480569475,0.36195213809025817,0.09081314109679964
8.034889739,-0.15290159500077496,0.11425809620943161,3.042876104342381,7.616457546254353,0.36702608346489846,-0.027450803269578824
8.134832797,-0.053187399402587446,0.4288899839334779,3.133752504772972,7.537902112956783,0.36672877526103864,-0.12065907440576126
8.234894231,0.04222022127541435,0.6843826810618063,3.1529772993744167,7.409614440436051,0.3164870366340623,-0.1786392553686594
8.334819149,0.232212784617468,0.9619653770868456,3.1170673073129045,7.214186250409547,0.31190888909560144,-0.20434339691744408
8.434896884,0.42631106434518495,1.2101008145342111,3.106342499889185,7.0072333727947775,0.33630396815463276,-0.2111853975501107
8.534905508,0.6807576098042636,1.4126383602058126,3.081804213761599,6.760433167964493,0.34987458636423613,-0.20584515318078309
8.634814003,0.9693076596919507,1.4964634762725717,3.056658367763947,6.512644236698318,0.3642006913931875,-0.19940553780861522
8.734821264,1.2441618928439933,1.5314518091841094,3.0778844606440963,6.317976127104105,0.38145747789746276,-0.20147946662126548
8.834810333,1.5654610655222159,1.5316018357657444,3.100148225548748,6.080758956652192,0.37791835567698767,-0.19783299726531017
8.934825761,1.8518680866632475,1.448871476264393,3.112713167920235,5.933605474949931,0.3639951004582185,-0.19219055551958658
9.034831057,2.1164611680178043,1.2575857872014966,3.063384794789066,5.67757163544314,0.34244295332348157,-0.2009387531165146
9.134816266,2.3798387630228257,1.0879927377722665,3.0969390110295163,5.439814942094156,0.3473983905773751,-0.20595997546589104
9.234811217,2.5972791484181803,0.8540334096044391,3.096020484113057,5.215169804708587,0.3153319978900346,-0.20587801114855966
9.334807915,2.6888151742306983,0.5518979794751839,3.086246162214296,5.031219238041072,0.31486709221719544,-0.20150796859998235
9.43480244,2.785942420910316,0.22835480195155733,3.0186640611689772,4.7891674168023455,0.32798685677777006,-0.2177539392677269
9.534914102,2.7320785614214578,-0.013404419901247881,3.012770742689009,4.554908098701865,0.3139995909148548,-0.21328561231291507
9.634822197,2.6984650310399845,-0.3127657309988564,2.962231276732005,4.34940581380183,0.3125889307753776,-0.21434732584382782
9.734891077,2.519429144477765,-0.5458067047892848,2.9701370273530388,4.115057031318768,0.3295357641700494,-0.22384971390349423
9.834818438,2.3560845435301174,-0.8156388024458693,2.930966336024945,3.9283925931727453,0.33254190617942614,-0.23065811418907914
9.934835238,2.130016539502828,-0.9653609709991943,2.9974814168559836,3.636722943439557,0.34306023106706124,-0.22338322054482912
10.034846957,1.8359059872882704,-1.1056350210901167,2.966937343952387,3.3968817554408473,0.34823524425096536,-0.21559880399140097
10.134871859,1.559354198026156,-1.15362329600484,2.9775733866308993,3.1671927082243205,0.3533513903274558,-0.22336573501167767
10.234821646,1.2509054080991058,-1.1533687832814727,2.9665592051206024,3.0256026133390637,0.3308664345107307,-0.21841210544319986
10.334822608,1.0165358403361482,-1.0363455815793816,2.977752200066245,2.7465398530514973,0.3375421204782082,-0.2164254860586311
10.434860961,0.7064184173737553,-0.9076418903037676,2.9462491748451844,2.544167797817441,0.32037885205501027,-0.22135625099313552
10.534919309,0.5081538552133122,-0.752543303888924,2.9112611947662246,2.260881661151537,0.3098797530227752,-0.21589285636187752
10.634826086,0.3362188811165238,-0.46667640044862474,2.8782233919075892,2.0405946753270556,0.3392484229939912,-0.18209862490285708
10.734832734,0.2088427110666419,-0.16536869538131346,3.0416335269753523,1.9074143316295242,0.3920449060101538,-0.07032900658519757
10.834870242000001,0.06995592189159414,0.10488526991446906,3.1964656512993477,1.9190050866593245,0.36764185451989645,0.049090409741955096
10.934830337,-0.03818874772777741,0.36900737389552507,3.297174420068076,1.9817964057384263,0.31897449792077553,0.11702236715705285
11.034902937,-0.15306057343713564,0.6552368863377538,3.2786895400969653,2.1338780142909246,0.29790669202488357,0.16268500286800838
11.134815174,-0.38970206082670517,0.9219754031032378,3.2904610987863046,2.355837068882641,0.26196979831142464,0.18712083616643882
11.234816425,-0.6487661159859277,1.133453406179792,3.20247736614598,2.5995354282578336,0.31910925308504384,0.19694633124134717
11.334835274,-0.9256348469400842,1.2402420661918572,3.093266232217066,2.8720305615456114,0.3102101102379986,0.18990746500860697
11.434802211000001,-1.2107856266392834,1.3099636026699433,3.043790532259775,3.0991648697521783,0.32788510540607346,0.17472260110936289
11.534897284,-1.4714183323551713,1.3104544035138637,3.0324089379966996,3.321620176126151,0.3432311789616409,0.16399630003138194
11.634815906,-1.7964810298986746,1.2001912706378883,3.0307962993094453,3.529684596140363,0.36377121704334675,0.1676535829952153
11.734816159,-2.068348498318711,1.1467295361207397,3.070835523817433,3.700236786810005,0.3274228859677315,0.17459690948303783
11.834837629999999,-2.3556820934872555,0.8795687202859052,3.0401958713971466,3.917590735533235,0.30889285997688326,0.17631388705461387
11.934820179,-2.5170781344202124,0.6596568396662897,3.0451633244733487,4.147174870438261,0.32878958651118173,0.1798894654813852
12.034809182,-2.6302015096484896,0.39970904188846385,3.0437307857284885,4.4038422620733275,0.2938001657540097,0.18267751241341135
12.134812187,-2.7200994243382732,0.10596914799398169,3.00002549817747,4.602228638203654,0.27681449643214967,0.18649015653279796
12.234809134,-2.7048868896186105,-0.20363207192866273,2.949821498765998,4.799059266106588,0.3086263895035346,0.1986191912381842
12.334817912,-2.663445026094683,-0.5335606352698248,2.85107418762558,5.051977015462822,0.2919607806465183,0.20076301484295972
12.434810332,-2.52387010943052,-0.7217850225678631,2.8441128838930054,5.322372014322049,0.3037325537076054,0.20127114785906033
12.534814896,-2.3402324384097026,-0.9480756194428921,2.8622918931164696,5.5339871178105815,0.32463453325440156,0.19165019287178464
12.634921551,-2.140639925377615,-1.137033306232679,2.893671488212325,5.768857174960304,0.3528265285537749,0.20459614882235067
12.734814248,-1.8709131725930503,-1.2328218782210454,2.915203235198932,6.011513047581808,0.36995010374464576,0.20325283130795335
12.834814249,-1.547882870440207,-1.2570693684501832,2.952262557677504,6.232771302177389,0.40757323026846787,0.2106211856189638
12.934815965,-1.2925086411297244,-1.2485942461369892,2.930885346820365,6.468505116635032,0.37185852292145655,0.2014641630674902
13.034919716,-1.0303867571268046,-1.1600156665563135,2.9449201448830835,6.704178989214698,0.3533411883821558,0.19675503182989146
13.134819227,-0.7273094922464209,-1.0548283891845545,3.004594133862429,6.918991456497055,0.39042853426737895,0.19491711357468403
13.234808636,-0.5273511641150574,-0.8263603303958963,2.9992166122842936,7.153938972067398,0.3572715569338168,0.19160755815733588
13.334860161,-0.3446663181899601,-0.5766423531546202,2.9752075427960465,7.4111289812820464,0.34857534565511733,0.17521879529135817
13.434805467,-0.2071509848496815,-0.31039058591268226,2.986472230612416,7.591752742411443,0.35862530240469415,0.11069726840423566
13.534815567,-0.1417776645140795,-0.029862275562030607,3.1032117345606487,7.675959536497098,0.38789807486581096,-0.034365797738289475
13.634809128,-0.08158397836830372,0.2692727436272615,3.199396529938887,7.599043620304095,0.35744879723291845,-0.12978507648666815
13.734808503,-0.005092835270797114,0.5964845303057501,3.2112448095045165,7.473105958935827,0.3143818099740927,-0.18328570853296042
13.834821299,0.1646479725360809,0.8738869211220314,3.167659301018452,7.277952831850725,0.31905737158854475,-0.222459143626183
13.934810861,0.38074246957413704,1.1533224656317864,3.152058961400345,7.003374903379111,0.3217148274617591,-0.2273203339185033
14.034816065,0.6336794365301838,1.3407818456820129,3.0902191946017354,6.806522817986962,0.34836949355987684,-0.2237238483603425
14.134822306,0.8742040829135139,1.4652994887061241,3.105606480411928,6.578767074979007,0.3717361287297962,-0.21895711171980728
14.23489146,1.178446164464467,1.4758961930294783,3.0894603982920423,6.374588345768984,0.3759525132196727,-0.21064383882582693
14.334813081,1.4960717059211783,1.4938555491082344,3.126965754522194,6.1167258228745895,0.38287236487196286,-0.19091403621614536
14.434803021,1.7992689965375068,1.3992689254489115,3.1335914977298347,5.902578074284724,0.3755320724832477,-0.20356896536175675
14.534811071,2.066448350690914,1.252278574879167,3.077530882560264,5.7228671743963435,0.33523120238348464,-0.20508514274424214
14.634808959,2.3244236063400088,1.0756546946633487,3.0768858587762216,5.475882053042843,0.321777053816919,-0.209500182207203
14.73493569,2.480432382245933,0.844115569288373,3.0755100021858794,5.230977936638666,0.3377870332479848,-0.21871965134069393
14.834832448,2.6253395011255973,0.5679223380058568,3.057800737110518,5.0622303498485905,0.31085617446428865,-0.22038448150179193
14.934844876,2.7344736093451285,0.2692534834289363,3.0289927799487484,4.8318758590180835,0.3095343483034704,-0.2233209941379521
15.034817673,2.7240220807394295,-0.01725741746568718,2.961659356667563,4.630076381601043,0.32633451543387815,-0.231125738838637
15.13491258,2.6622077038781256,-0.39020111961275616,2.951397976649622,4.306550077721034,0.32627735567474303,-0.23496610371242135
15.234811389,2.5517566019396565,-0.600926394781055,3.0132147555741167,4.124019945686356,0.3324311703493075,-0.23404906040726242
15.334825827,2.3457762561391813,-0.8383299767030934,2.943969787988377,3.9329618799157466,0.36754588474527544,-0.23662219482985428
15.43480745,2.092105404419409,-1.0249743463231766,2.982898034010479,3.6569701825753476,0.3456162891877411,-0.23157397035224284
15.534815958,1.8434766352894385,-1.1019419842365323,2.963306246273882,3.466208804125638,0.33598941016449463,-0.22303123880266534
15.634902223,1.5574830642533457,-1.190732802973846,2.936965360788796,3.2454798404107628,0.371049295373553,-0.2336750752970961
15.73481029,1.1995870654312022,-1.1470055351388304,2.9880312502186688,2.9710318708611676,0.34372614305630106,-0.2284655427556131
15.834809816,1.0036942317695712,-1.0401276528811148,2.9227469212602593,2.7371591484885203,0.32876889189785286,-0.2278955554607723
15.934811669,0.7137949696062954,-0.9683088942736455,2.930869089579854,2.519347428181447,0.3303807791516833,-0.2241260685302726
16.034818061,0.4778890035857985,-0.7452580011132325,2.900864700895345,2.3281166468045207,0.32241157445522656,-0.2259213695926126
16.13481298,0.31845346122436363,-0.5044357257856518,2.9454908833722286,2.0790364027270147,0.353426491889847,-0.17777414181282897
16.234810814,0.17431374664747523,-0.216638168086428,3.0592994235254354,1.94076386430787,0.35780223879506523,-0.08984655666523331
16.334818845,0.041907314996104436,0.0697892350345508,3.2114332200324367,1.9342515574045458,0.3795332004240164,0.036539212662040875
