time (sec),x position (m),y position (m),forward velocity (m/s),"heading angle (rad), from x-axis, positive is CCW",throttle (unitless; -1 to 1),steering angle (unitless; -1 to 1)
1.031055812,1.6379461503728177,-1.3099608215257241,3.097328372562068,-3.114748754672344,0.40695446480163733,-0.19326779539197977
1.131058667,1.3693534616092378,-1.3386422131891307,3.0529222064429136,-3.3523054345186325,0.392006729974458,-0.19350932797253578
1.231057344,1.0532575768605572,-1.2411778530264042,3.0630104296982386,-3.5591693926259538,0.3569777153822749,-0.19415103294826477
1.331055849,0.7744020112284254,-1.0734186712823857,2.97041237891794,-3.788582439923495,0.3511558490810082,-0.2009210462048118
1.431053503,0.593506473824269,-0.8837251547630531,2.9863378345401785,-4.00797531506215,0.376564118870546,-0.2043986327461349
1.531059549,0.4122864774115462,-0.6444452787626347,2.9784839694658696,-4.183959462666281,0.4597583508318689,-0.14619953965886484
1.631053411,0.2680498134174429,-0.3961183581897689,3.1887447314709485,-4.3160117658831,0.4863195446564941,-0.06365105228494597
1.731054182,0.13835688874438468,-0.07220557800489376,3.3305576977948177,-4.342280469573535,0.4889232825282732,0.029327282619316445
1.831055782,0.0047951590423538845,0.24958629072031469,3.4302321642496785,-4.309868999113926,0.41941912405988674,0.09749606970448062
1.931053933,-0.17647812563437307,0.5580025887638942,3.4688779510157626,-4.1937044879092795,0.34531561395970495,0.14435872015442155
2.031059231,-0.38072098571217095,0.8424116613870871,3.455149292715673,-4.017097019646815,0.31190943572462637,0.1768118919586388
2.131069856,-0.6094173338027872,1.08147986871,3.4131978639120444,-3.7968053386389053,0.2903988986859317,0.19594341756006825
2.231124342,-0.9481607144649908,1.2581222448889877,3.341848351933806,-3.5465405586531533,0.29982993981285977,0.2030681261006318
2.331053323,-1.1740133926335168,1.3768453079504603,3.266666659900108,-3.3488041426574338,0.34827027215718337,0.19415496071987443
2.431047984,-1.5142767081174269,1.423238154642877,3.2522906421073814,-3.115290204796556,0.4008547853442006,0.19797843391286257
2.531059664,-1.85384146931943,1.3855064590180852,3.237878049476767,-2.9044626767240227,0.4093222895993745,0.20237246575338838
2.631060108,-2.1414852980536248,1.282450995619971,3.2458683844289924,-2.7039013938769356,0.4046548310128217,0.20428180717701347
2.731063438,-2.444586610155024,1.1152973290548855,3.2704071758379354,-2.4725794343380296,0.41658579861522516,0.20842327753914375
2.8311130010000003,-2.687126008999582,0.9148326088823484,3.269095553157896,-2.281719708923325,0.3850490645969018,0.20929688096692273
2.931056098,-2.90506917290262,0.6178562118462776,3.225362704797405,-2.025301635927724,0.36596123995631935,0.20761528266143509
3.031056897,-2.997208019492495,0.29761148339022525,3.2299566227539405,-1.815569112524595,0.3475016971880312,0.2047182522790937
3.131064072,-3.084483987632606,0.018732857261752327,3.2401101183504224,-1.6073520071297835,0.3532313824276038,0.2030667214450054
3.231057401,-3.033632007930721,-0.30291423884161545,3.12393352032824,-1.374764219589487,0.31045894453664014,0.20910636436999916
3.331053926,-2.937560046584131,-0.5924681051843189,3.0599478231709467,-1.1189084177939577,0.2836325078421517,0.21650103388119968
3.431059304,-2.7560712838174446,-0.8516714895301581,2.979487189412923,-0.9164439570763626,0.29511465690856553,0.21979348317570943
3.531084593,-2.6242178693373255,-1.0924035457652557,2.8911623852643635,-0.6761277997958401,0.32390448328289945,0.23061658110798613
3.631060042,-2.362197132658819,-1.2274378297112813,2.911562516918444,-0.4789609782651955,0.3828732990093561,0.22852053258642374
3.731056057,-2.05158912599722,-1.3333688870433344,2.922439029656703,-0.20706792737301458,0.4259253559909599,0.24372356870950299
3.831058483,-1.7843010781862059,-1.338909745826726,3.0208160603696004,0.010841535333894821,0.4461736556204209,0.24569140845962878
3.93107352,-1.466956782385725,-1.3260285703918002,3.044924989934438,0.20408876490738356,0.4720549704485034,0.2365317104525134
4.031061816,-1.199046620647457,-1.1964916453069714,3.151570928248013,0.4944516948429485,0.48343968959087175,0.2243288109119086
4.131055647,-0.8871501699561484,-1.0223436764566391,3.18737348504106,0.7358184240858342,0.45988071068732395,0.21930508580319474
4.231059692,-0.7340013586629572,-0.8262313029064037,3.2256203151331677,0.9413129047894163,0.4792743171569153,0.18169893926505834
4.331058119,-0.4693806897058743,-0.5462372538470686,3.346218191492749,1.1215384747093722,0.49943960325350456,0.11830533919344473
4.431065356,-0.36160197727911586,-0.22375143834591862,3.5340150302675095,1.1244422613348317,0.5271123771670924,0.004219382135813953
4.531056442,-0.21930883085892086,0.08709298666580892,3.6147362088460744,1.1221710349514267,0.48056054305784207,-0.066789846156371
4.631054522,-0.0314913456584784,0.4144705869903159,3.6916142406162646,0.9614262334211755,0.42864623015600917,-0.10584486656163704
4.731096181,0.22910169616241496,0.6986780005881044,3.673232360269901,0.8142455867556586,0.39291274568816825,-0.13107681236672003
4.831056878,0.4809412993689903,0.9623606596952262,3.6137180480248707,0.6144911128019208,0.35804898518427114,-0.13632373861354535
4.93105394,0.7956482779909804,1.174348174043382,3.535621912679395,0.36052924157906063,0.349772138467095,-0.13375187749171577
5.03105584,1.1085349618095952,1.2390491395676713,3.419654568319016,0.20962608057415166,0.3436452336494137,-0.14038405242143043
5.131055274,1.4153229911156164,1.3615576352404908,3.3309237113586874,-0.0031269121171150945,0.3115584862349066,-0.14431916973779965
5.231097195,1.7277932419200401,1.329098941613251,3.2385003070675613,-0.1657142028874874,0.3116837844158792,-0.15127269592106268
5.331056549,2.06538928373392,1.2632476632871128,3.1595076431131646,-0.3598488113994192,0.30170136472021314,-0.16763802392483856
5.431053721,2.3905110793933813,1.10087003021465,3.0555878615552197,-0.5626953910675361,0.2988882732468783,-0.18723581362236288
5.53111224,2.580482245615504,0.901806177271032,3.017179947938261,-0.8468514587178104,0.322380330510191,-0.1996984683053664
5.631060603,2.71967346277993,0.6916632895737125,2.8940864521585525,-1.053637841438002,0.3834207634420797,-0.20324914435059485
5.731061314,2.858654650410624,0.42491430506432704,2.9037358491107925,-1.3381644050068886,0.3975119968269756,-0.20993332139819676
5.831058484,2.921747625200475,0.1502256326628352,2.9154336019078797,-1.5209094414270472,0.431974988163227,-0.20689938994001925
5.931056704,2.907292450311761,-0.142865968949352,2.9701831504696625,-1.7657408880860574,0.4605168547197369,-0.20596977410559325
6.031053813,2.8401406718196607,-0.44443387846115695,2.964014645241189,-2.0279571292403764,0.4668284111682536,-0.20710503850285886
6.131065383,2.694899718364508,-0.6974081414815277,3.0001825994128324,-2.236418811756576,0.46118215399703644,-0.20221778396221046
6.231054606,2.5012399289658966,-0.9456917549492606,3.0480867851975932,-2.455880366507621,0.4721261305726162,-0.195650771560881
6.331083688,2.254748376881869,-1.082815039320706,3.0525760934461625,-2.686150538227959,0.4625201817151604,-0.1932826555391664
6.431119259,1.9589268348192008,-1.2074716038294022,3.0852048213775367,-2.887442119571229,0.43546730846259807,-0.19063760611698544
6.531068962,1.6317926203175022,-1.2792876802104494,3.115066272728835,-3.144684587375074,0.42165769452873914,-0.19192587134998804
6.631057355,1.3175720284762025,-1.2468023071243652,3.021992981556439,-3.3284554414540657,0.3957744357072984,-0.1921962086157821
6.731076782,1.061104415312805,-1.1765420974594438,2.9134560617462704,-3.6018875947961586,0.24083074110962993,-0.24846582236396175
6.8310994879999996,0.806449616343633,-1.0390675719906188,2.7349567612370107,-3.871344874314535,0.3440842129147019,-0.26466498838053587
6.931058443,0.653536462143719,-0.8419076528272846,2.755891472411335,-4.094620839216775,0.4487979194896196,-0.19158023635132818
7.031156665,0.5008849645670012,-0.5891034486532076,2.9077751446274442,-4.289076070316476,0.5271164935785744,-0.12171537714958992
7.131089586,0.3459895864821007,-0.3327136026857359,3.1050144058626983,-4.334725057745999,0.5368681282402971,-0.047448354028300804
7.231054814,0.2690516729424881,0.005874367367261891,3.353186291878392,-4.397938059791871,0.5028884200454771,0.04942233847557959
7.331057345,0.0867519556164387,0.28840464808809946,3.4343795346680133,-4.317295040022356,0.41813135346953395,0.10673998126201374
7.431056269,-0.06145360147547805,0.6160429081891602,3.4883953706098625,-4.1997622958639,0.35243481187369624,0.14905421108357433
7.5310623230000004,-0.2767302738980278,0.8883018076203995,3.4656014573735514,-3.999284990699046,0.31376227149486874,0.1822621463022303
7.631057986,-0.4773090227488,1.116301087830117,3.323210052125417,-3.8235065850326406,0.2968579133585892,0.1994969374457426
7.7310579960000005,-0.7929807747909173,1.3260374217288224,3.322695844997048,-3.523201157489124,0.3259522675913479,0.19672409008306804
7.83105978,-1.1342288342859226,1.4345673751863008,3.2352346686984257,-3.3082324135480863,0.374002726476954,0.19779616839945202
7.931053636,-1.4045256044933654,1.462118526187229,3.2133456594278074,-3.107348216147306,0.4115920349775273,0.1929977518272123
8.031050008,-1.7647374395770559,1.43984106970144,3.2470572111357408,-2.89971136363079,0.43644639072668306,0.19060025460440438
8.131062755,-2.013198140451279,1.3395136926310605,3.286625077603223,-2.7318672212427018,0.43493523922086946,0.1992227203373169
8.231068886,-2.329558635558134,1.1437688853244579,3.3301325107806927,-2.4964013140466323,0.4024149101921867,0.18893782286504615
8.331053998,-2.5489895567913665,0.9246485643038242,3.3257909637978673,-2.258236516782626,0.37425697373494116,0.21705366626173198
8.43108689,-2.733827262077984,0.6724202973225809,3.226157018999147,-1.9958323392463324,0.3817859910196882,0.2029450788860178
8.531126125,-2.84343463696263,0.33687793576465924,3.2110698088431167,-1.8039716771949033,0.36378844344019634,0.19216364248691364
8.631060304,-2.9639835004036166,0.010540737925566625,3.1770556696851133,-1.5539159952525305,0.3397694042604666,0.19303849012669627
8.731060043,-2.8941533765630383,-0.25508925342306665,3.1343629108170936,-1.3116212157580687,0.3155997178864239,0.20169028364928618
8.831055150000001,-2.819803614099575,-0.5231208719363403,3.098077773419315,-1.1550225777225083,0.28668782632586703,0.2077183933796921
8.931054197,-2.681603884479586,-0.7898195205210061,2.9841696662889916,-0.9193625040095889,0.30326242791328917,0.2116455646902068
9.031090395,-2.480014816073633,-1.0638690542522187,2.9345833442626623,-0.684812929701848,0.3382913839527648,0.22949047449689916
9.13105862,-2.2048877946588123,-1.17297539896151,2.934385905784727,-0.40989326710568,0.36017167498190744,0.23866693397801014
9.231068348,-1.929295126253248,-1.2861131175730725,2.91003130251354,-0.20050982960067126,0.4038015722528398,0.23934026691744142
9.331056541,-1.655130134776337,-1.2965459217657194,3.0107862085984936,0.030741691303836822,0.462998362620365,0.24200752480127918
9.431055056,-1.3458945422412083,-1.3177141472573812,3.0546891183448777,0.27913375711080995,0.45847582146793836,0.23077369873105347
9.531055096,-1.0844420921226006,-1.1616268737610174,3.1264111920333875,0.49178334825964204,0.4704654944638829,0.2265972403518574
9.631058512,-0.8283944860170093,-1.0230905982554779,3.1546472589583914,0.7445780672937957,0.48207079110500733,0.2182175864989938
9.731060496,-0.6151374468269868,-0.7846912540570147,3.2416419229670788,0.9123897241526546,0.4708004393762448,0.18559744052986635
9.831056877,-0.40993402866788337,-0.4870233804325429,3.304933575626792,1.099506308390323,0.4881505968808574,0.12017981906061866
9.931055753,-0.25122608833563476,-0.1614769739588545,3.474434731145336,1.1426148067971054,0.5471695009640262,0.004717520766418303
10.031062607,-0.1199322607100199,0.1646434156383717,3.5805369171772345,1.126639513818664,0.486854268176471,-0.06402915508741211
10.131058416,0.09513119781487155,0.44481516246107144,3.6669701569337296,1.0050653447407731,0.42868685115179567,-0.10550745102986012
10.231052429,0.2777178329081118,0.7251317862137265,3.69773195025029,0.8159856860990401,0.39817428136413735,-0.13714301312854038
10.331065975,0.4790943285545985,0.9813470915407502,3.5803933027960104,0.6423436410497156,0.3592934045187939,-0.14883911224495835
10.431076661,0.8338133825367081,1.188372572743686,3.4721213167430443,0.4213346431989491,0.34681108332100186,-0.1487169460822454
10.531057646,1.1203875476240082,1.3547555676458314,3.3851318580273855,0.2198361880103168,0.35107488551464144,-0.14982564724770012
10.631052969,1.4932701988515698,1.4100761365630687,3.292471127032007,0.032582682103454316,0.338107568941749,-0.1510070991250677
10.731059336,1.7533157323222186,1.3962833026616053,3.183810603868731,-0.1813755511806413,0.31716263514329435,-0.15901460657221014
10.831055975,2.0660368768569044,1.3265241222888677,3.123544950909101,-0.40113310092352356,0.3212976893694757,-0.17243090440270945
10.931056436,2.368147038921003,1.1518189732190307,3.0371698591410103,-0.562332175126568,0.32466177882066904,-0.18806776748101103
11.031054555,2.627626852596752,0.9822945432664488,2.9954055020273525,-0.8662514276952412,0.33725446060030434,-0.19671097527946904
11.131066515,2.784975658062843,0.7613361990489307,2.9042171770032956,-1.0163616618506683,0.3887637633570765,-0.2106514104394879
11.231057304,2.9109869338191476,0.49260529864482483,2.897253459545064,-1.2851818489172377,0.4226963045847771,-0.21831169237658665
11.331055809,3.0017665615890006,0.1818175553222645,2.9396596509451474,-1.493227952043643,0.43795743956458627,-0.2198416357449519
11.431054192,2.95522660588686,-0.08806193553756815,2.942046074866409,-1.7155230888279396,0.464137848879921,-0.21636738813808493
11.531052441,2.833563874038725,-0.37545882349515686,2.9658148833842755,-1.9933980322342966,0.4747957236166941,-0.21466003400520767
11.631056496,2.7091074477507058,-0.6246859184627791,2.990033019755003,-2.1974266878426305,0.4715454990731389,-0.21090960125154082
11.731055804,2.518748934727085,-0.8602756941896751,3.0342021775646817,-2.4509700183698704,0.46786212741696426,-0.20671280561677324
11.831052172,2.2890956223301826,-1.0429654701313344,3.072950276379099,-2.6375328149402733,0.4815000460741013,-0.20009689561185498
11.931052539,2.026364161875371,-1.1743712199739802,3.089798326835511,-2.856311784266421,0.44715955487006187,-0.19205856601317237
12.031057222,1.7216839949623972,-1.2338609129713416,3.067991274587473,-3.12446216295422,0.40769006345573294,-0.1976804938271278
12.13106493,1.3890532654564969,-1.2006886443089944,3.066934201937616,-3.3103178618813804,0.4020671758619747,-0.1993150876171928
12.23105561,1.1206797897378502,-1.1424014409227883,2.9952958659246582,-3.5499031547766715,0.36252748200461654,-0.20131594898780522
12.331060489,0.8855970657948764,-0.9995911960071768,2.954306309900592,-3.8083652978741895,0.3619807066700147,-0.1994509147509425
12.431059167,0.6482486641305271,-0.8042978792105722,2.8766612487846452,-4.0112583132780095,0.38838372707851215,-0.20740316842262166
12.531054482,0.43029104091411996,-0.6027513346084312,2.9959599952468174,-4.1945101799268025,0.4564982455331876,-0.15125511919679374
12.631059506,0.2994286360486767,-0.3058143166389553,3.1082959059805253,-4.304243019705248,0.5061005293750778,-0.05904108664323716
12.731058552,0.19497280817663076,0.021469390314622448,3.334109303668205,-4.328265410360771,0.4976651745392356,0.03262361769604992
12.831054777,0.05930140571682452,0.32083313989166307,3.436676609008831,-4.310792068417228,0.42806908132574945,0.09376392243654741
12.931060959,-0.12331456051190609,0.6247863719316088,3.497631939050021,-4.141959035637225,0.353797789514493,0.14107688357872536
13.031055771,-0.32920593867226866,0.8861268738291193,3.5049285884815604,-3.9882612885848725,0.30788869048540984,0.17470400246193332
13.131058394,-0.586730229858899,1.0909650780117714,3.4064053789472695,-3.799758333984922,0.29588622037629403,0.1921658351704957
13.231055908,-0.8541867400025528,1.3093257924138502,3.3243348042547267,-3.492336775910299,0.3150286569876987,0.19060725768932776
13.33105783,-1.1481876689798098,1.3846284572981864,3.2174474169039313,-3.303092515113772,0.36529705217489966,0.18599497002736953
13.431058113,-1.502409167874242,1.430067215859951,3.256572356908454,-3.088317761355893,0.4114059299367506,0.1928568552180231
13.531051294000001,-1.8043290004688575,1.4013620985172353,3.21405054065849,-2.8859693201145635,0.41841569881291774,0.19860007558428894
13.631060901,-2.1007644246717985,1.2776375599910985,3.2776935991927534,-2.6522003673517682,0.4135333506844686,0.19824422580518297
13.731059496,-2.4096342430596307,1.0983095091501927,3.2990607419660303,-2.456726843357605,0.41200927544437976,0.20206573834417832
13.83112327,-2.649130614459251,0.8580620029320414,3.265614004369806,-2.19251331944933,0.3895649842385537,0.20084112522988784
13.931062742,-2.8202849978918714,0.6120986955582671,3.2416982076498964,-1.9858411276624846,0.37496148339129126,0.19625104413181252
14.031060272,-2.923389904695745,0.3277040449296021,3.192791137727021,-1.8180556064116375,0.3706364974200815,0.18979287219264318
14.131059877,-2.989875195702607,0.024503758308565375,3.1514072617629405,-1.5281032542240238,0.33585721114352834,0.1960292022791268
14.231063467,-2.966072775120546,-0.3323575295837661,3.1733640505773937,-1.3584931061287417,0.30741271870823367,0.20265922717762225
14.331058416,-2.902617515478269,-0.5953741967292815,3.0457210826100245,-1.1642706023735248,0.3055476713192178,0.21153580141416112
14.43105852,-2.7327749419447698,-0.8857560538347954,2.987029976665431,-0.901871937036646,0.2971267892124536,0.22206158909120297
14.531054346,-2.4965993182091744,-1.0885989549311066,2.9049784297184544,-0.6547500136345177,0.3245409883150508,0.22720564616897618
14.631057673,-2.286512192287795,-1.2023710831688557,2.941894326843023,-0.46181579900776487,0.3762957499253786,0.23644055863652533
14.731061347,-2.0218798741666424,-1.3470003186538637,2.9389752378975977,-0.2258324042080491,0.42813864739585306,0.241760682903967
14.831056074,-1.7133027682673714,-1.332781317919476,3.037140056150376,0.019602846770745145,0.44847994019396265,0.23661700301596045
14.93105392,-1.4234830459555712,-1.32494345693917,3.090423386039683,0.2345194647496519,0.46804980446368083,0.23457717271915376
15.0310596,-1.112203786342048,-1.213076661862611,3.156104993475558,0.4670990849549683,0.4839223285516008,0.23016141652230362
15.131112696,-0.8658323573026752,-1.0537162802149376,3.203825422057232,0.7176893184605585,0.45157916446889534,0.2195909080287179
15.23105096,-0.5922205863885008,-0.7995482347609575,3.2272867869261033,0.9692925938749337,0.4784132791820765,0.18460265702560294
15.331114584,-0.450305780772411,-0.546329806404864,3.3491141397162854,1.1076355219943117,0.5138250632656252,0.11509733964954078
15.431057613,-0.3103228837057684,-0.21589228833068858,3.4438393625478207,1.1722564040750971,0.5229246817033095,0.0030537117236406723
15.531129957,-0.1525134793468678,0.11967531068017354,3.6131269999562114,1.1120330077878815,0.4849000040900303,-0.07486990482418905
15.631057535,-0.004656155119025789,0.4434003534964159,3.678559345833754,0.9609167703683609,0.455549833574729,-0.11767205655723427
15.731101614,0.22166862452859695,0.7267010492593798,3.661302611372819,0.8153604935788915,0.3909377512849198,-0.13526899945318135
15.831057352,0.4811694980765886,0.916215440885104,3.5316795317025593,0.6612249085589061,0.3654884804663811,-0.1384104146942138
15.931059845,0.7908526386342463,1.156954987228135,3.4657939618332505,0.42155697186316343,0.3591829344872994,-0.1482997476907566
16.031056115,1.0841608600321047,1.28720301906704,3.405316820780081,0.26361818114343977,0.3395661072399332,-0.15312487928378082
16.131054516,1.4330809973546677,1.365860135697519,3.3604858262538935,0.07156589278211055,0.3207845002579138,-0.15620156713628103
16.231073972,1.7627743119398553,1.3361192124704917,3.250589593667226,-0.13582576809821154,0.3186831547177571,-0.16675637168754504
