time (sec),x position (m),y position (m),forward velocity (m/s),"heading angle (rad), from x-axis, positive is CCW",throttle (unitless; -1 to 1),steering angle (unitless; -1 to 1)
1.031727124,-2.1919452629185554,-1.158084905162021,3.254144977792485,-0.07658409840898513,0.5141733891213002,0.23682062399705023
1.131723923,-1.8908750253284636,-1.1658296240804085,3.3002938096111767,0.11360307855382555,0.48910815030796406,0.2389796564774423
1.23172564,-1.5155042352790367,-1.0461376814340861,3.278869782568997,0.4033612511963115,0.4232282814132001,0.23151921504685555
1.331729786,-1.2481978311580768,-0.9077000933882707,3.237246541348371,0.5795084056600501,0.38474973775416027,0.21317847471370052
1.431870004,-0.9743381492372057,-0.7159813037333126,3.182672045938774,0.8524997937738372,0.38608659044164884,0.20359449445286282
1.5318023649999999,-0.7754827689348794,-0.47084281499154723,3.140183874920504,1.020031233783156,0.4257189466247922,0.12841348383606127
1.631716179,-0.6034894347466288,-0.16150420147605463,3.3382937579526226,1.194297239790368,0.4656983049743129,0.037011890627291176
1.7317145900000002,-0.4770521913614332,0.18284659138552767,3.441458268199293,1.175715474210954,0.47054572558486046,-0.05834173902473084
1.83174583,-0.34353169509022546,0.4250024077977413,3.4974715333446498,1.0526464471158805,0.4299148484430656,-0.12130667869029331
1.9317412530000002,-0.18579125243057495,0.7652515444392166,3.5798710360936443,0.9040661391483186,0.39625929560983886,-0.15642432230189382
2.031805771,0.04847241254910625,1.001639382535877,3.5331392722132127,0.7048327965363941,0.3852328209118763,-0.1678323981649292
2.131725968,0.33110643249893623,1.2286623670513255,3.5145610956696385,0.5219400990315813,0.3847187755033689,-0.1770960656056541
2.231740901,0.6747975015811473,1.3666837332872224,3.489641149045977,0.31506935814393294,0.3794370469110421,-0.17555018890651408
2.331750755,1.0168929663945676,1.451215550740475,3.471646432747479,0.13052110969813413,0.38745885107595973,-0.17402726304012817
2.431818684,1.3396901383724409,1.482490798461763,3.4153081086840222,-0.15090040994760548,0.38129685923893797,-0.176462076339692
2.531755346,1.6848759165893337,1.4154782276342657,3.378880406305781,-0.32835129194924745,0.3663093785080968,-0.17007840030420918
2.631726817,1.9855438182120646,1.2907004476764048,3.4153443864372632,-0.5864947460092133,0.35446495187849936,-0.17567947279070234
2.731730447,2.2605311126614738,1.0775983118124886,3.3239996461626027,-0.7283601554973305,0.3524209999107038,-0.18303209310194427
2.8317264040000003,2.4971397314667647,0.8263696569683225,3.272008007824677,-0.9462452445049633,0.32811433105005927,-0.18833237752884371
2.931726395,2.675782532759653,0.4909995248595809,3.295158956949377,-1.2235999527544295,0.33897907813507255,-0.1861735593221366
3.031750954,2.712481081422392,0.21443297508297407,3.1994662534879104,-1.3863729091381385,0.3429318196578764,-0.2019323284309101
3.131743336,2.8511500010531763,-0.06700388415987164,3.1553031363538304,-1.6141134718384855,0.3394468788114864,-0.2027567355462518
3.23173454,2.705914071388266,-0.34814130565852436,3.121147958444604,-1.8386382118524582,0.3577230157112577,-0.20864838261885457
3.331739246,2.602291110644767,-0.6550181951156032,3.123715195440716,-2.0843211602945053,0.3969403658554241,-0.21331268226350905
3.431731466,2.4827715441624267,-0.9270990829266553,3.1345083124862962,-2.3073808962993425,0.388419071999937,-0.21605164202733473
3.531733864,2.185123170130975,-1.1252320076185447,3.0931923152511933,-2.544925475937287,0.3894056177766717,-0.2104492357862695
3.631813777,1.9315292397158805,-1.2756206551484892,3.1957391557980945,-2.7512364573461485,0.40217544730489807,-0.20335959972339218
3.73174373,1.5846864842488135,-1.3676983247431218,3.197639870800832,-3.0130803786499745,0.39150218685335914,-0.2140228569724768
3.831893847,1.2792640590970152,-1.3776117103130294,3.1547765484357817,-3.2296464435419123,0.37415874845144176,-0.21611913051971862
3.931740745,1.0299807793674043,-1.3423588013531327,3.1472321250008073,-3.4250258787042203,0.3670412208781133,-0.2013028789787073
4.031731236,0.7504034497442357,-1.2513262999686685,3.144352208230947,-3.6880657418294276,0.3757339789368501,-0.20364177415707507
4.131730515,0.46042661255855055,-1.0652591089856847,3.1393132920198985,-3.8940759614813283,0.35349683415793703,-0.20363686800744632
4.231727107,0.2544756300517133,-0.7741557359292992,3.12956859080955,-4.1626388411640365,0.3888994663596985,-0.1848772727691858
4.331728481,0.13614581983858945,-0.5711713618923221,3.2332366969354034,-4.323325350242286,0.4486498793751622,-0.09507582375855372
4.431816199,-0.01919718786432246,-0.1795725529095749,3.4269358843913373,-4.350592614661719,0.4284549629566413,0.005772892316820341
4.5317319860000005,-0.16532469379960288,0.08249481767725482,3.513361973892256,-4.297127109607295,0.38566853164756587,0.0739757109581563
4.631725724,-0.3431224470941159,0.4080091318096772,3.570815665161272,-4.205601776053832,0.3378564704247677,0.12504347929627593
4.731812961,-0.5070644127978435,0.6950272104406169,3.5673245764387636,-4.02726766158509,0.2630663962070413,0.1539614620286008
4.831729409,-0.6959098605460027,0.9602037452706381,3.5163821755936886,-3.8183292441211196,0.22699573898622913,0.17646239928608456
4.931762534,-1.0286317177264936,1.2212604571575019,3.316779270037558,-3.5960361716441933,0.24137420679886554,0.16836038752005247
5.03180423,-1.3215628113256959,1.3349368990080317,3.2112583027926886,-3.3599751540069467,0.27225190320154347,0.16946539069873148
5.131817237,-1.6868052846310897,1.3738316607005157,3.144538178270265,-3.122023003289171,0.29765112097788815,0.1726766339723029
5.231729616,-1.9355585331360126,1.314481896309045,3.0693126226423524,-2.890982180512205,0.33186579293658386,0.17156252995775434
5.331737446,-2.259843482561852,1.268736689633454,3.0973508449416394,-2.726897459072894,0.3410974743867703,0.1768401546350792
5.431743071,-2.4887753972519135,1.0905349150044439,3.0495741245445274,-2.52793486178913,0.3305204512458786,0.18596884337813066
5.531812693,-2.736703520709553,0.8937319768882905,3.033657886600172,-2.2764846976818953,0.3439986512801761,0.20036746002802772
5.631825253,-2.889169807531616,0.6365757274072845,3.0097012919287405,-2.022783797305502,0.349787381620324,0.20079469971673589
5.7317691150000005,-2.992113925143549,0.2829607873428972,2.9916985412685646,-1.7793290296318927,0.3468884894093327,0.1990322407631348
5.831755526,-3.0569347589547937,0.04790203345090191,3.0068158319610254,-1.5734795329133682,0.3586679777813908,0.19542820657290133
5.931732564,-3.025897868641554,-0.23166833928247138,2.9971461253332765,-1.3128410306382128,0.37948496889438,0.21125680156765053
6.03174493,-2.9186889132759224,-0.5459249857413133,3.0480379219155505,-1.094039827478482,0.39098259446605443,0.21594009437849937
6.131851139,-2.724945177482142,-0.7907895219926538,3.028838147387272,-0.8627921982068821,0.418277592312166,0.21700351104371016
6.231743549,-2.5030746298609126,-0.9983599715915178,3.098258055674727,-0.606553725848465,0.4497771317605685,0.2161996385164468
6.331746112,-2.256892289162823,-1.154265206810883,3.0660810245807713,-0.39165863796880357,0.4552839933843781,0.21065948976162527
6.431734861,-1.9693027986211158,-1.2443963283368977,3.2112927795282813,-0.1531773102105788,0.46077510943871086,0.20497908414122737
6.531734692,-1.6541463205226317,-1.286620834137843,3.249416345569028,-0.01772176258796189,0.4550963771080933,0.19922508176295287
6.631732632,-1.3209495462222722,-1.2132987125860908,3.2480708509870837,0.2808781475506607,0.41747305953319697,0.18674890247478765
6.731818148,-1.026892762829892,-1.1339039519437222,3.215457374888076,0.5065843834257395,0.38866148084594165,0.1857940848266361
6.831810739,-0.7108032827596027,-0.9239814042826656,3.229584723415978,0.7399930777817579,0.38878099468374366,0.18832595332137264
6.93172666,-0.5294191799727982,-0.6473272669324095,3.196941029818625,0.9525093667541349,0.35405875159718797,0.18434600178591953
7.031729224,-0.3489309038673002,-0.43684704958201215,3.1857632040277832,1.1588080076876368,0.37015470855778804,0.1422456488462226
7.131762723,-0.2269140833427042,-0.15220728833997046,3.291925636433513,1.2559772461275929,0.45763021886422073,0.01823228441340524
7.231739272,-0.13499293754830302,0.13826652435840026,3.3936382672731003,1.2650569057622478,0.4478579042049142,-0.0774373560014531
7.331729632,0.02080113788973552,0.5263829217987166,3.4196039698856673,1.084741663675383,0.3990668455473633,-0.13808160183589208
7.431753907,0.19858851473715045,0.7790194816119523,3.466335274701378,0.9879617827548293,0.36922092217570496,-0.16349968191642386
7.531798897,0.4034775549277184,1.0229741677325204,3.403732368143302,0.7628073716175131,0.3473227911186426,-0.17004027206318753
7.631725186,0.6207408408483012,1.2387227244581582,3.3826193509234654,0.5451341171539502,0.3511121183936222,-0.17284573739121967
7.731742936,0.9821444128803569,1.3889703463887628,3.365039399372549,0.27872087577502164,0.3859705026538866,-0.18579595103265695
7.831744556,1.2872508899391717,1.5097439773618402,3.3351594890366423,0.07276347966459341,0.3753141645156079,-0.1819145167793138
7.93176247,1.6531287228304845,1.449872622327747,3.2944446605849045,-0.1264341725817868,0.38079930100826453,-0.18124775371019536
8.031812424,1.956656822647815,1.4110396043161344,3.2528983720325697,-0.3890434146937231,0.3919783175709693,-0.17971780305346044
8.131741327,2.2601837424996885,1.2732955088936104,3.201005793545315,-0.5783768198935909,0.370604926858805,-0.18533669810165293
8.231742661,2.5278814461590056,1.0997498261895746,3.2537165757957345,-0.7605869685148533,0.3632219606392163,-0.18823024381564524
8.331812505,2.7104931209869494,0.887780052483292,3.268472929248635,-0.9719027990272875,0.3779814334495589,-0.19784338944710692
8.431729329,2.9070330125660404,0.5830777825754158,3.242789037337171,-1.1920814170310223,0.35824205068651394,-0.20322452325768525
8.531800659,3.0074246891014407,0.282183065237225,3.2189990477566006,-1.3977047147347779,0.36201341081968985,-0.2083587967731365
8.631733357,3.022627746609614,-0.0806889435065935,3.150242046652256,-1.6336491184609385,0.3997950402504209,-0.2066078812041801
8.731743743,2.914691239024366,-0.3825117008775672,3.1815085312801554,-1.9123966760249433,0.38526666291308254,-0.2046937515977773
8.831745785,2.820637117482355,-0.676739537094949,3.1608898467459685,-2.1063199253720666,0.3860496454820553,-0.20388886024471659
8.931732281,2.620876345257973,-0.8938265149690244,3.124068605245841,-2.368453924051923,0.4179466929301916,-0.20546015895169867
9.031726092,2.3665779803860723,-1.1227947655148165,3.1721516239650622,-2.5699653059077816,0.4221301128597753,-0.19304903054358974
9.131812035,2.1244920964067786,-1.264043563287701,3.2016747252817166,-2.796601314290074,0.4119090462938337,-0.19715537533862149
9.231727052,1.7812785606560315,-1.3190502262141903,3.243686279856879,-3.0251015165371316,0.43286793244860955,-0.20134768562673033
9.331725746,1.4707496802085118,-1.3635828995542845,3.2403416900226274,-3.206804834133475,0.38550437029009577,-0.20026828927143572
9.431742865,1.132015762074712,-1.268690576210245,3.2348146147409684,-3.489219021116293,0.36487465377233397,-0.2027669967345189
9.531725017,0.8636511663548404,-1.219890726647122,3.1892957240526965,-3.694536759222389,0.35972652482630996,-0.19741880399673792
9.631735037,0.593901012960241,-1.0132698553240476,3.1338357860654655,-3.922461435789315,0.3500555557546515,-0.1913579920946873
9.731744338,0.3840209577180744,-0.7785252223947456,3.1540996315617775,-4.139029904596431,0.3877093418491697,-0.1707465848442618
9.831739073,0.23443310963761457,-0.47620537075661307,3.201111426420377,-4.2959459768274995,0.4250696770483455,-0.1014983727466404
9.931729467,0.08738255193033109,-0.17838908977545323,3.41063925680424,-4.355965865301206,0.4694668226564685,0.007672433546746925
10.0317252,-0.0021138282453595876,0.15079278454836062,3.5574116435175154,-4.3130339579633485,0.3901446729597245,0.08419135677225047
10.13172796,-0.18617873837228008,0.45947139644322493,3.6096842860225475,-4.196590269948257,0.32837975853302453,0.12172613084630375
10.231861782,-0.367496475064379,0.8002761538177964,3.5881639203347726,-4.0575455951714865,0.2767096387726675,0.15772058311446463
10.331714917,-0.6310113295061778,1.0363763697695327,3.497293098670939,-3.8112941611231546,0.24526044782921097,0.18108128362245596
10.431778682000001,-0.8837539335107456,1.2310173769539754,3.347373039496296,-3.6235387238821284,0.25570867701091093,0.17513759899751524
10.531726926,-1.2183608735348643,1.3334214748319837,3.296340508793277,-3.371404744358201,0.29228675057908554,0.1829449535399672
10.631828524,-1.5103824674710358,1.4196187342016513,3.171609544966948,-3.1013621249857963,0.30532365257107486,0.1778631420660226
10.731723148,-1.8456904161868268,1.3670080689123238,3.0981116102406583,-2.918231325942114,0.3341452898913142,0.1688245875497965
10.831739795,-2.127944812506977,1.2504036979735849,3.1236153312395114,-2.7344607637229807,0.3522505157586396,0.17772700335470715
10.931803602,-2.3825972764441796,1.1194782329814699,3.094232590148452,-2.4840235376204802,0.33580127370831236,0.19141303557960374
11.031714572,-2.6728711167278587,0.9045091587031414,3.102380480524879,-2.239865413800087,0.32944060340743014,0.19248695573685606
11.131738481,-2.823607126051209,0.6845537724709393,3.062256191789528,-2.0799960352062823,0.33795171278395625,0.19767693264055727
11.231705079,-2.923765834135694,0.4209039116506112,3.073964586664319,-1.8283682959137626,0.32835519361083704,0.20960886954158842
11.331730654,-2.947924626958512,0.09313894728224678,2.9882334643103103,-1.621557523064285,0.35138023699680665,0.20469837876875854
11.431744146,-2.939207205606907,-0.15995825290929214,2.9726023427570727,-1.3908947963820086,0.34834577554040774,0.2179509674704848
11.531742742,-2.875922546010212,-0.5230931772889672,2.983432544796145,-1.125437064217148,0.378082760744647,0.2195781264465568
11.63172754,-2.7340909035503245,-0.7739459016127035,3.0303056969739073,-0.8827558889995651,0.41955799904948315,0.22386830776199831
11.731729861,-2.4794518846714904,-0.95413494389715,3.063209481222152,-0.6882032186164946,0.46124218605948314,0.22769136074669855
11.831842356,-2.206872552041113,-1.1332532523830645,3.142471459394297,-0.44552853147923693,0.45014799440340586,0.23012199709004316
11.931771745,-1.9416842831707886,-1.2486537532869864,3.1634815244006975,-0.22021286531375672,0.4413548603695316,0.22746839193304685
12.031732973,-1.60865163011906,-1.2391959715658367,3.21286431986826,-0.011874329456487698,0.4658337713711161,0.22209625280849357
12.131724402,-1.2914075673361347,-1.2624416449868832,3.256964152593518,0.2853521849058041,0.425655426015845,0.21059054834065494
12.231725334,-1.0155136652997043,-1.1215537861914624,3.208444539609874,0.48000466623375426,0.39658754439146326,0.19291868042721033
12.331746448,-0.7216564141136637,-0.9373288327868885,3.2068396235713363,0.7741210938972323,0.38687975257868007,0.18593142814476407
12.431742535,-0.4980134687186691,-0.7652177773174267,3.2008475737293467,0.9160939148247587,0.36157333195599234,0.1888765869109652
12.531734519,-0.3215930477296067,-0.448544108107633,3.2622498517889094,1.1422895940520945,0.39824784779638395,0.1277062543252558
12.631731452,-0.22148076976867354,-0.1923835369280224,3.3020942604641492,1.2291473656531424,0.43572515838662623,0.034176685734318125
12.731804322,-0.005761766727559375,0.15421935090929684,3.41944491748611,1.181718221720824,0.4530510181825665,-0.06524831650073908
12.831725225,0.07499314331135895,0.4283847189984643,3.4636740409943827,1.0820047817856178,0.38630203256429735,-0.11909600843485707
12.931727675,0.2546994350252366,0.7939605626360923,3.4737885134490725,0.9477173768332063,0.3454916348786809,-0.1595355938249117
13.031731813,0.4746457373083718,0.9774737703038405,3.445776652478093,0.7549634738372384,0.34551669680897173,-0.18055324214563595
13.13173104,0.7343222036909431,1.2219595470804732,3.4137548842524112,0.5240869316738569,0.3380578226419509,-0.18307854672749063
13.231741842,1.0408055974092523,1.390019698796493,3.3218554702670016,0.2982650093630128,0.3544728099495707,-0.18380742467423175
13.331733598,1.3268896344183747,1.4576395405609919,3.3038514060476727,0.0724372596500661,0.39224052054342495,-0.17896685129425632
13.431751235,1.6821995690672764,1.4470096420238068,3.2614432369765014,-0.15137595055988665,0.37861850025773075,-0.18007938234699147
13.531740565,2.0056706287314867,1.4235083403509057,3.2513023760493978,-0.36229723110115813,0.37767597603250347,-0.1809590042023821
13.631812465,2.3172700562212283,1.2300972126208345,3.2028116024093825,-0.5733044819810357,0.39586086312876106,-0.18855396803800617
13.731817068,2.5459768451008813,1.0654032895257068,3.2598943457377527,-0.7513445637800187,0.3644351299649732,-0.1903545729655664
13.831738155,2.813662482300235,0.8087796992196874,3.245200276042164,-1.001311457041755,0.3548244169537553,-0.19153009430890003
13.931819463,2.908347231133789,0.5092026121077726,3.2049237137092828,-1.2011631609573172,0.38564339836408557,-0.20209941478819138
14.031743267,3.0174800427010027,0.22760256127594827,3.162655915190936,-1.4368955423278247,0.36389225083968463,-0.19607331988254914
14.131726718,3.0123712296066705,-0.09893108407369319,3.150646261579375,-1.6475487928063344,0.3784966729602856,-0.19553848545975425
14.231817790000001,2.9716593709928887,-0.41032889035196835,3.124216296962146,-1.8410775430756157,0.39607259929658034,-0.19079486864312162
14.331737448,2.8560998878047075,-0.6947395591040059,3.135670707046285,-2.1209313082700723,0.4037404287922257,-0.20339924292123066
14.431734018,2.6409909013306168,-0.9519743856197054,3.14440441733906,-2.369794408476687,0.40492202965175006,-0.20743149014207377
14.531807442,2.3943505647273033,-1.1583012773786412,3.2133219342248123,-2.570659512162917,0.42425294559316196,-0.20321720993045056
14.631727808,2.1446490518517787,-1.2873020122627223,3.236871878342137,-2.78686283366046,0.4254186230142526,-0.19958507700608552
14.731739468,1.7838927955161585,-1.3731017050051728,3.206411346156627,-3.030397588483615,0.4047628668021736,-0.19186178922423655
14.831726129,1.4719734200171446,-1.4063440526527535,3.210599427390288,-3.2490075236094555,0.38998699953287125,-0.19270163909021243
14.931728815,1.19069897050703,-1.277131083651795,3.211825338768978,-3.5091569265042115,0.3771373353662512,-0.19443301095649693
15.03173832,0.8952293490167726,-1.1950486988545996,3.1887155568199055,-3.710369819983671,0.35313849442651646,-0.19617667841353661
15.131726549,0.6319539204477099,-0.9999854890428997,3.1805545479073256,-3.9048798745748083,0.3374538870768287,-0.18965710559958796
15.231731508,0.40582504969152233,-0.7822649078001614,3.142050866464577,-4.10733164450545,0.3513411802835814,-0.19741101107998754
15.33174524,0.2551247579865643,-0.47850845029417827,3.2022696441712375,-4.310877754562464,0.43153422734662705,-0.09835298520327262
15.431729351,0.15904681913620747,-0.20443519255364564,3.402052597042231,-4.355963595960349,0.46042423298194884,0.013625350712785967
15.53173211,-0.005990842909591728,0.15530976200808164,3.5270102830229733,-4.305636887349937,0.42242920068250617,0.08948514134552149
15.63174816,-0.114573510671909,0.4364265523449488,3.6049219368388945,-4.197324691171764,0.3357079393633828,0.12869690642331513
15.731728565000001,-0.34643626513088754,0.7731783715849613,3.5408643519042022,-3.9827099008740525,0.2735533416269237,0.15995681839345793
15.831738349,-0.5986769174676141,1.001164336684088,3.534599154263237,-3.816718278554944,0.26437549217538214,0.17735666247483542
15.931729323,-0.8782905792444174,1.1922117305999367,3.376080522305554,-3.53274034202517,0.25539112558966753,0.17847587444601626
16.031720711,-1.1800936546396896,1.3084982934584426,3.2568938075997713,-3.3018416619581417,0.2834701983348243,0.1675927177328125
16.131742321,-1.4784573658454911,1.3610131941123855,3.183731080485568,-3.112083038495601,0.3395733749545357,0.1685844821830264
16.231754832,-1.867427185493128,1.3293689180156474,3.1575072195643665,-2.888613304184295,0.3327094817410862,0.17132005640753914
