time (sec),x position (m),y position (m),forward velocity (m/s),"heading angle (rad), from x-axis, positive is CCW",throttle (unitless; -1 to 1),steering angle (unitless; -1 to 1)
1.023846417,1.7872518418904682,-1.1984311423623641,3.2759170570260516,-2.9633150787168465,0.41170742559005746,-0.19065126923413994
1.123891418,1.4492812722141557,-1.2281022742293617,3.2308579600763676,-3.199990611528786,0.36183682689724567,-0.19546414021359176
1.223826388,1.070740487455189,-1.1807230948022946,3.1175478904503917,-3.4140308913943853,0.3328422872949214,-0.20047746003156744
1.323900127,0.8373229742744551,-1.092448757832489,3.0145159559349297,-3.6373719095458226,0.34562751058453783,-0.20131987138537916
1.423845995,0.5719852315237137,-0.9313355777963322,2.957040087922541,-3.8796725224813318,0.37033352145793863,-0.21624940904590065
1.523835315,0.35683341353985726,-0.7358487706968735,3.055094784691254,-4.104345528783106,0.5012809059243929,-0.1776347802709986
1.6238461480000002,0.20364733222195278,-0.47352825929248316,3.225595887058373,-4.251290237306342,0.5615773217697905,-0.10533184973150238
1.723899434,0.06723954219865712,-0.17696209326436782,3.446856848833747,-4.291841970438756,0.5899507533721106,-0.006806352589734996
1.823903868,-0.10110186348851627,0.19262565021235317,3.6101869059005645,-4.269391465227082,0.4816541869475509,0.06061490196812981
1.9238877030000001,-0.2753972190259834,0.5164308164795046,3.6657472221801917,-4.228890414828185,0.389694073438604,0.095616870583415
2.023879363,-0.45445708652312805,0.7939108893740912,3.664425208301205,-4.08598684212104,0.3150025175826591,0.14055950762164124
2.12392277,-0.7057944716013048,1.0512483249977058,3.571435240168014,-3.852562396890224,0.2469111014901089,0.17179021518222318
2.223880804,-0.9774179154535991,1.2767064274881048,3.4430603328248215,-3.6325616521609665,0.23474539014194734,0.1836209828845334
2.323897402,-1.2812997661173728,1.426690113948832,3.3183022389761003,-3.395497800059564,0.27419935784739297,0.1911175556863233
2.423828209,-1.5933177861027685,1.529145717232741,3.2185075650308126,-3.1677818570779763,0.3129287233709177,0.18767210718665156
2.523904057,-1.89220448762402,1.4858000990577598,3.1636732693350886,-2.978148214039992,0.35226702512084956,0.19319283846262575
2.6238740700000003,-2.232840989350261,1.4267641336282195,3.1964193464389474,-2.7383928144614185,0.406969091303812,0.19650490752324873
2.723914732,-2.507111438142593,1.2383320698647324,3.1760209014602863,-2.4988591143839076,0.4440699987339525,0.21135076688606774
2.8238283,-2.7431855030878194,1.0731711822831496,3.217511358251835,-2.284656393903343,0.4466787429884131,0.21888945969788384
2.9238251330000002,-2.9478892711584743,0.7908424154179322,3.2157898804348717,-2.030851830583401,0.48570498608759316,0.20511166536467632
3.023881483,-3.0974424120136415,0.47486064860812605,3.212468867594297,-1.8384155722580953,0.46791912279960696,0.20744588453945353
3.123831189,-3.1262368272749663,0.17717796644276718,3.291951283800004,-1.6366918440767275,0.44349782103526675,0.20923955189993376
3.223831118,-3.0906489661077674,-0.14445744949665126,3.3431003423218093,-1.3741338041029991,0.4181748126860677,0.2024806078785695
3.323913421,-3.0229702639317124,-0.4823971479796357,3.244918679386782,-1.092955425224153,0.41255322098274466,0.20705622444385965
3.423825698,-2.838101616012083,-0.7645547466577238,3.187137220102227,-0.8892284252227849,0.3662465104625079,0.20642705948377724
3.523825034,-2.6643134162555073,-1.014569885743197,3.175826013123841,-0.6921746606986725,0.3934291612372856,0.20935089816066121
3.623825026,-2.4102655214531303,-1.1673449489916472,3.1422308853718257,-0.4491291504788027,0.4230576512885357,0.20964322614337572
3.72383299,-2.126420308460347,-1.317859824683922,3.2062730875007874,-0.23086938514275065,0.4399001551416105,0.21345226719796231
3.823829417,-1.780329550317544,-1.3908665402210378,3.202017257676593,0.016809711888800892,0.45256932977277514,0.212215654654915
3.923831736,-1.4863718416695484,-1.335769361897644,3.2169009245608193,0.18330896413284054,0.46056832161746464,0.21020151075463436
4.023827025,-1.1519503686050154,-1.2274747936641723,3.2586177575238615,0.4520159087121644,0.4558327197139341,0.2093506737260636
4.123888654,-0.9239855612521234,-1.0831726986722552,3.254637374079615,0.6623324451674262,0.4425149394312269,0.20058155985781487
4.223896683,-0.6321356236036508,-0.8961402142698778,3.294234993698903,0.9050525515748203,0.4677218791059618,0.19448382431042993
4.323889752,-0.44370904507550457,-0.586760084650539,3.3779255216629376,1.0986560075712257,0.5399668454669778,0.11682518861085464
4.42387426,-0.299842050186687,-0.2504518247260661,3.512281666036141,1.1703969032416015,0.5583709968076244,0.024938272131242167
4.523829362,-0.1573286085272024,0.053577260989945995,3.707116989608527,1.1336038661803225,0.5294603748615953,-0.04765365164739304
4.623888071,0.04332497981918505,0.37938068878527936,3.7942384058195002,1.0770215283097304,0.4612665528729518,-0.09719327136886484
4.723853195,0.2718831763217001,0.7102897448188246,3.8428406480529533,0.9079974463883748,0.37462466207528705,-0.12203656904740848
4.823859399,0.4485313632207828,1.0333605544256625,3.797416686032789,0.7716552414990862,0.3195057255239476,-0.1481469746126558
4.923901681,0.7408234417828966,1.2483216023869357,3.695191719131946,0.5625065457977226,0.3032077624566941,-0.16075925371062033
5.023876622,1.0738697854036712,1.424132928243687,3.5322020760755843,0.3720023076567596,0.2610010899577226,-0.1663782660440994
5.123830979,1.368360215399417,1.5468310201860551,3.3657700430610342,0.1682023051780039,0.2662257025884697,-0.17600324873587356
5.223890141,1.6999738102187918,1.5988548485738279,3.185890357256707,-0.02394238662077983,0.2882239622162245,-0.18513038736924264
5.323870027,2.0076209193860306,1.590318671304924,3.0767615858562207,-0.23740368384037452,0.29579083705381876,-0.20104160742861263
5.423888487,2.3046890266194087,1.4839005826625122,3.01627717400835,-0.48821219016051387,0.35413279108164913,-0.2136785584194227
5.523846637,2.554416352456476,1.3151911632282802,2.973994168424036,-0.6657991854441325,0.42488817843738985,-0.22659578313545692
5.623831989,2.7277991210685473,1.1022547133325875,2.9810100161678004,-0.9246937692825045,0.49551988029108696,-0.23915601796111674
5.723830989,2.9098390777705463,0.8531382343099783,3.0536200077279276,-1.1702010976235584,0.5612678496694548,-0.23865299809164212
5.823886865,3.0273721725058635,0.5272242197590287,3.178291377824818,-1.4379689471507149,0.5944095986815136,-0.23195075767963994
5.923881412,3.032302700839481,0.2306714414871006,3.285597191091361,-1.6264473947886464,0.5820628597557965,-0.22920255542225043
6.023836676,2.9956998688099956,-0.10078451984393605,3.330506947723697,-1.8741590818229312,0.5550543706910955,-0.22382279308989733
6.123919588,2.882698760066822,-0.46187574680302007,3.3591241681716033,-2.016085761101409,0.5392632570170872,-0.22071403343474638
6.223922144,2.734427738451801,-0.7532148991256321,3.367211589458741,-2.267493287977583,0.503058579443324,-0.21746417810163174
6.323884852,2.4618084437862255,-0.9656572075702115,3.3531188020728955,-2.492356166888089,0.4782953258778259,-0.21269570808091634
6.423838055,2.220528610301276,-1.173070885880267,3.3089846019486275,-2.689156630006597,0.46121948073695307,-0.2033320709372972
6.523837545,1.9008475858481735,-1.284929839951126,3.2897076868976938,-2.9369794234604854,0.43165437014556446,-0.20627111381215735
6.623838081,1.6003013402358794,-1.3029405073754865,3.2279583084384993,-3.138061004251629,0.37314935542822736,-0.2160309671474153
6.723834777,1.2516650206310682,-1.2820947071419626,3.1077482024111025,-3.374824667865379,0.3532594823742309,-0.21334414528075396
6.823833695,0.970807324432982,-1.1430924293159157,3.028471895905195,-3.5960969967319087,0.3622212159566122,-0.22027885248042617
6.923837078,0.7044961001439729,-1.0192826655459792,2.9666351254594687,-3.8530396764056034,0.36441269723950936,-0.22621329316457103
7.023875017,0.5544709206749175,-0.8406553769429039,2.990177351542186,-4.025766776160595,0.48698074614444253,-0.19571392852619654
7.123876418,0.2946734178877961,-0.6136436432214672,3.207429554465092,-4.171907919227669,0.6201618599483822,-0.10707717206269234
7.223874762,0.16064029367898355,-0.2998323310983956,3.4525937741243755,-4.239427260910514,0.5897232603717687,-0.023443536699113508
7.323865305,-0.00853734812917401,0.024463106301048806,3.6048625956619325,-4.245961131989938,0.5029060792520981,0.03911548239112988
7.42387814,-0.24655367925812866,0.32045145597664054,3.6993443723757697,-4.142831881959024,0.413283078821366,0.08731901551245541
7.523868443,-0.41052172912686863,0.6498415767871402,3.707819188418297,-3.995607396392494,0.32830665112247326,0.12564022920644663
7.62383012,-0.6447577656767108,0.9028911311047355,3.619953311554009,-3.8635398809996255,0.267425159589597,0.15539360925638895
7.72385912,-0.9899422933960808,1.1252196870841853,3.5373883180457315,-3.6201941669082864,0.25716170853668946,0.16539780041036123
7.823879241,-1.2929167210921573,1.2642496509804608,3.444731290220239,-3.393536604402702,0.2570416778618809,0.17660448349537497
7.923846141,-1.5869115661052513,1.3346766064290965,3.2948876593464753,-3.1673006560864057,0.2856214033799147,0.18555572334378448
8.023871659,-1.897393220640601,1.3073367416617658,3.1595587948764217,-2.9299282267986246,0.3537618642195663,0.17921875618005545
8.123871127,-2.2245865459071057,1.2834799979485885,3.130022689426296,-2.70987326992866,0.39172902400241855,0.18877150804370452
8.223864936,-2.4995891075057055,1.0402759351306934,3.1297007817131877,-2.4785962520699933,0.4211205543204468,0.1992514622816807
8.323830296,-2.711054228678459,0.8483611573509313,3.1553465157947405,-2.236324696975031,0.4587674469825166,0.20415931383576988
8.423831171,-2.9195098829264094,0.5952474569918413,3.224630073723617,-2.0444177410448168,0.4724858710590523,0.20299069735816846
8.523875513,-3.0107032525952118,0.2611302289391773,3.2163477398901166,-1.7741504444306853,0.441776389450672,0.20101647303433592
8.623864591,-3.0060483482058333,-0.05308148172075658,3.29312703143951,-1.5395135653245549,0.4225432412398185,0.19865022249817096
8.72384124,-3.0424755423395258,-0.31536897979935996,3.1926774796317727,-1.3315874179882599,0.4128455280893044,0.19430858636514678
8.823834209,-2.9377880359986244,-0.635089613357776,3.1641976908391833,-1.0975443121297135,0.3772635193431009,0.19012294791268095
8.923835778,-2.753915926617516,-0.9471793832154116,3.1776194877300257,-0.8493471374505239,0.37114710816922747,0.19391067112166208
9.023837024,-2.534703005822075,-1.181775914349648,3.1580704904430936,-0.6448738933138206,0.4113725981556001,0.20141407878133752
9.123836794,-2.2687191559897566,-1.3301907601393284,3.2122723177050876,-0.4064015126179048,0.41947077299209673,0.20645255873292914
9.223837264,-1.9901460167095397,-1.453745266950626,3.1982654514213715,-0.22246317573170776,0.4358500128942633,0.21004627998535627
9.323825616,-1.6645745032635964,-1.489067567081977,3.2031367991068045,0.03474161596058518,0.4671078961469232,0.20667426988801835
9.423878427,-1.3669998978930782,-1.4449807513279898,3.271463067541256,0.2553129680218657,0.45098220324539334,0.19933976173083867
9.523830068,-1.0221113121910552,-1.321169936065778,3.2897345412965664,0.4870336126422211,0.4533014052547622,0.21568684126625798
9.623831686,-0.7552775445680845,-1.1584167155847391,3.2683874392859003,0.7097958653738157,0.4572556486410175,0.19595309219007917
9.72392246,-0.5012626834933388,-0.9137968293776371,3.304550010790993,0.8916460288315698,0.45418439077448886,0.1903504832687893
9.82383816,-0.34173983473379327,-0.6637704784556375,3.3957990722285234,1.1023144371437261,0.5272711514175802,0.1217231440812715
9.923834117,-0.230743190363866,-0.3293862435358909,3.5742266567932375,1.1907158353214025,0.5592908616648254,0.02186974665813923
10.023893165,-0.07480319933305457,0.027211431960936373,3.703023833345295,1.1824551378660653,0.5465006367186445,-0.05515513487395078
10.123826697,0.10983385736208084,0.3106393944957936,3.7972056774137237,1.0689144770702959,0.4469754870414658,-0.10132202764907697
10.223877302,0.2750467519532929,0.643902509606111,3.7697991189699787,1.018720832640225,0.3730943843272941,-0.1277046959459995
10.323888901,0.5728641786648843,0.9694463165809786,3.7115583505446117,0.7718100146648248,0.33784835866683033,-0.14900747686040144
10.423886694,0.8151584833366636,1.2057069911333285,3.5992582240000015,0.5606784049127139,0.2987514527202617,-0.15726172823775328
10.523830674,1.111487034105998,1.3600375179081317,3.444181305073699,0.3744667889717338,0.27835873592505844,-0.15743814174154175
10.62385103,1.429261221336566,1.481580568700359,3.371155484377844,0.15290675950478558,0.29994853140841565,-0.16190460516095923
10.723832634,1.7743891475253117,1.5393826493951785,3.221703469456462,-0.04727827605628587,0.2821977012563256,-0.17573377751117786
10.823836088,2.0445859321021596,1.4686453505876973,3.0656817395050076,-0.24630182466332856,0.29592966027568074,-0.19528425095266252
10.923880082,2.3443503385335918,1.3877868217732117,2.9655304045587934,-0.4661702852265874,0.34275876031359753,-0.21477864277957892
11.023874392,2.5790319401250996,1.202793646816576,2.9787388743594736,-0.6881390770380637,0.40117826713837373,-0.22755173563097839
11.123853304,2.789685937033179,1.0196078053031612,2.9991057395326246,-0.9577277643872736,0.49087440955022804,-0.2420168732172032
11.223835206,2.9483555074046457,0.7357610265698632,3.0451506157828767,-1.1764668076674032,0.5632782455987321,-0.23814292910134136
11.32383392,3.0586433974419394,0.42637456794999096,3.1349389884167103,-1.4196242423060386,0.5921394658259872,-0.23571836617580566
11.42386447,3.06011579455056,0.1234660909200189,3.2725055029073165,-1.6242015289342173,0.5885184067073677,-0.22996091650797076
11.523899368,3.056292558035247,-0.1872539824568694,3.333707254408795,-1.8735960931622513,0.5895415035324898,-0.21650777553375194
11.623831722,2.9113423499605884,-0.5361031341096805,3.352211759640446,-2.0320948978130793,0.5457203964982191,-0.21869439145164
11.72383635,2.7591488054745894,-0.8329377115301557,3.357089500825071,-2.2966895298422396,0.5123761567712609,-0.21567593218523348
11.823884979,2.526309366448281,-1.0265761276414673,3.346646932653289,-2.518633357009364,0.512420231587362,-0.20559020997923066
11.923878517,2.2239462754566985,-1.207463825646045,3.285888857114105,-2.755971537951915,0.4631577617001858,-0.20187056026831893
12.023875068,1.9265297776002153,-1.3266803767861286,3.3370132464604545,-2.891187097118662,0.42907743672080434,-0.20256692336597948
12.123835715,1.604213784800385,-1.3620093220207916,3.209578800014864,-3.143861420206391,0.42821018956797047,-0.20908306501574916
12.223888546,1.314526006656458,-1.3985140337168618,3.1581151682330866,-3.358572686973359,0.3679038489584981,-0.21263882892375996
12.323836065,0.992901559138904,-1.313671900471437,2.985932734465094,-3.630971403867134,0.21117175417597384,-0.28474389159714925
12.42384407,0.7700995748040234,-1.0931848442743042,2.799586195949874,-3.8787477212972057,0.37327698296259665,-0.30135607734243375
12.523834303,0.5715619994824147,-0.9082222057112098,2.9232178236045057,-4.117169777418237,0.5471019577471002,-0.18047141647721268
12.623838248,0.42064321380059216,-0.6141402931540961,3.1839196195248647,-4.267833531591838,0.6371492511449218,-0.08265902410525068
12.723834026,0.2911786490386366,-0.34149442049848727,3.4917589852885325,-4.245428400059435,0.6068811006908864,-0.006546699876203606
12.823832837,0.1130476995356646,-0.002053248954239785,3.603417659724601,-4.224733860321706,0.5173157598296094,0.05081514188573086
12.923891449,-0.08425074918772257,0.2843017311890002,3.7071802309044823,-4.115119919225645,0.4056403827209645,0.08875300195264245
13.023939121,-0.28736491858161073,0.5768142457067658,3.7453065648831876,-4.0135640161492745,0.3706187190978438,0.12398705731552458
13.123836998,-0.5606211638119902,0.83923836568842,3.681854332610872,-3.893440709228935,0.29440655461904497,0.15235792450614977
13.223844251,-0.8526863550282864,1.1048613408597616,3.5995042080427275,-3.613113557742518,0.2492720708533586,0.1802929237098006
13.323829486,-1.1777103515956509,1.2145284539324637,3.4403518037001795,-3.4109031328610415,0.26812998988264725,0.17031653207248185
13.423871559,-1.50396345785283,1.2947715308338221,3.328556750249504,-3.168155744756904,0.2902965732738957,0.17394259618442154
13.523866038,-1.8234663720289983,1.323436259235054,3.1746602672458235,-2.959321637409555,0.3422917080298629,0.18864952954687844
13.623864941,-2.130147592494604,1.219865745123538,3.049083024349294,-2.689824597276081,0.09516492710182194,0.20676304320570554
13.723837235,-2.3693347560895397,1.0235449410218838,2.7659316247071706,-2.427356508936142,0.17361604387186502,0.26775696281022693
13.823932463,-2.5599593336729454,0.8612156644976132,2.8307765497139497,-2.199489230729256,0.5372672730673576,0.20305306179320187
13.92383276,-2.7382079136370856,0.6308731705082782,3.0938521910805954,-1.936387155029665,0.6011038127004529,0.17390118818269565
14.02389986,-2.830650140602382,0.2919215667570707,3.255922498365203,-1.8417485493744992,0.5271874991177359,0.18856248158354155
14.123933947,-2.8488952882876886,0.007890408315128435,3.266154098668578,-1.5907008117489814,0.4292854458714388,0.19657920720274918
14.223836599,-2.846312460648038,-0.35940495484274015,3.230770527023025,-1.3465885889804246,0.3708238699008535,0.19699111068032463
14.323891538,-2.7262481560828618,-0.6620185325324334,3.2377211747861123,-1.1161757592493542,0.3516047200244136,0.1936985895291957
14.423896362,-2.5717306294705278,-0.9044556462043657,3.2212861028563142,-0.893732015170019,0.3588475231759944,0.19183143745649955
14.523903662,-2.4096771623950946,-1.119041741113306,3.114003306572883,-0.6654285873745144,0.36736524745096616,0.20058643733545886
14.623891652,-2.099532004505291,-1.3077438982341445,3.1435277446708025,-0.4656295039401619,0.39711147272398795,0.20417266588397098
14.723867149,-1.8706853605511289,-1.4510769143268945,3.149036347132846,-0.22526602336164087,0.43178607323585383,0.21788297874329485
14.823906592,-1.5027039111186762,-1.4546250474283489,3.201069474270207,0.03299856432225583,0.4311907037307128,0.21439941199890844
14.923829311,-1.1816369872432453,-1.427887205060409,3.142163682941343,0.28778300501454956,0.44308397700098695,0.20655619326897096
15.023886511,-0.8897694770450394,-1.306547394843376,3.18552274461812,0.5109595955640387,0.484814379643446,0.2063412766770136
15.123887662,-0.5841298319034006,-1.1258874951555295,3.197647324282724,0.7523985147037588,0.46327217908869067,0.19776494198035885
15.223830223,-0.37844145370101895,-0.9001993171344941,3.2813061824356167,0.9129192844006166,0.5000146361376621,0.17396256963897605
15.323840424,-0.2226727309953874,-0.6538107484232463,3.403729635951582,1.1354270089107674,0.5389642615288521,0.12857036958373616
15.423839612,-0.1077998201701621,-0.32696869768443976,3.5493992674062382,1.2273624941738688,0.567531651282421,0.018697911447615692
15.523904419,0.05871000605635977,0.04758057984783365,3.6894470036309195,1.1651624621925423,0.5104457370044764,-0.062369628219708276
15.623878524,0.1719252692132382,0.37766188900336917,3.8090614543356267,1.1329093297309205,0.44162215474765876,-0.10682215623903236
15.723885912,0.4004602346462438,0.7222354888988903,3.7856566436218095,0.9758025150868381,0.37170786072126105,-0.14049147562029868
15.823829514,0.6337619390715292,0.9856931950800009,3.6894981910491027,0.8094417092283103,0.3131776458732989,-0.15208043412850278
15.923892388,0.8598348695678664,1.3058292584501612,3.5458218281326412,0.5381278081128937,0.3262880682091406,-0.16171885930952612
16.02387842,1.1608217845462063,1.4226037328103414,3.421539791820449,0.4311050060084549,0.28546447042512146,-0.16103993297023642
16.123833849,1.4847138754159523,1.5034035812737998,3.303318470222677,0.17362092086358807,0.2782321467905438,-0.17559521759932364
16.223843427,1.797818746776148,1.5403459407926894,3.12123264225862,-0.043140492698360344,0.3010196364110044,-0.18653337654421598
