time (sec),x position (m),y position (m),forward velocity (m/s),"heading angle (rad), from x-axis, positive is CCW",throttle (unitless; -1 to 1),steering angle (unitless; -1 to 1)
1.029015088,1.8608005870271032,-1.297277618388834,3.009578204645132,-3.4469456914361456,0.4587965820950318,-0.3302126924105982
1.129020175,1.5742446204505627,-1.1939917056230949,2.990632573471882,-3.6804245230886368,0.3930030218422305,-0.3209656134105316
1.229009882,1.3384268579873952,-1.0021751727555597,3.021696445814496,-3.9540538514197134,0.42492701197826566,-0.2533300387252384
1.329011547,1.154830298778102,-0.7622592713919897,3.0794248968794875,-4.135611640005743,0.4504062662270791,-0.14790959810234133
1.42902252,0.9940137197993688,-0.500657232002298,3.295893012331936,-4.268416267058904,0.4845643939413493,-0.011823910846928293
1.529006741,0.8141689477071549,-0.22003240857296277,3.4758080014351793,-4.229119054954869,0.4180630439496461,0.08830347390424384
1.629018328,0.6477395307306484,0.08441432335685978,3.5499577084164837,-4.096790197751561,0.40733890953040897,0.1463665299187881
1.729016121,0.40765306770717635,0.38239964555663136,3.5684013349957286,-3.886964372548221,0.31729552144551676,0.17111812441019222
1.829033457,0.1444254929010466,0.6189580066426117,3.5169206929171297,-3.642166756762203,0.2811856524397272,0.18302769604732846
1.929013308,-0.15733075450494835,0.7387363234216897,3.3996085643932363,-3.4137104149626527,0.33627189312396255,0.17562242101413597
2.02900762,-0.569861775478294,0.8123485439732268,3.316941054538555,-3.2077286689682794,0.3240359309533949,0.1628768623450738
2.1290114190000002,-0.8019346804881311,0.7940890368030009,3.2303662531829205,-2.99004160603935,0.30304093317932324,0.1483186708369438
2.22901121,-1.1156604959438394,0.7503621432790654,3.1427861390740013,-2.770016267926975,0.236185738785318,0.15731013494444654
2.329018482,-1.4122202761320395,0.6090501156776014,3.0551204951671025,-2.571286075980919,0.20129095579164644,0.17006795115777895
2.429012748,-1.6548539707056042,0.4913358162861365,2.916562905768669,-2.362614801068521,0.25099634046247143,0.15382673022060014
2.529045376,-1.8422952945822728,0.21286214572514264,2.902765558237078,-2.1902013953911506,0.25294237074444653,0.1758086389013959
2.629014463,-1.9837617366435638,-0.002887559235747357,2.863139636788182,-1.9552764664827187,0.2595040436182176,0.170434958384789
2.729009058,-2.051782442650396,-0.289087351029951,2.796919985144961,-1.7197326546958087,0.23640071423265388,0.18257160776922435
2.829023918,-2.0518616211689076,-0.5426083193422225,2.788062945200917,-1.5031247750019028,0.23074215917712274,0.20240214647860397
2.929003728,-2.0252736467412533,-0.8443612573718102,2.7291423864913846,-1.259584453517277,0.23231770483688324,0.2139832844538602
3.029005219,-1.9267417935452325,-1.0804269399415845,2.6697922999404136,-0.9876994369225791,0.2626444248352043,0.2297407618999468
3.129017295,-1.7567445303607023,-1.3168256153185158,2.57700764825945,-0.7960438889170007,0.2720069083626257,0.22819840319820547
3.229016365,-1.5814877685661064,-1.4768917577875165,2.605258169667826,-0.5286790504893134,0.30408909669616047,0.22580260592503051
3.329012328,-1.2967397566376762,-1.5518481309303258,2.6000867314347365,-0.2989908708126157,0.3458305719251422,0.23170914748875898
3.429010287,-1.0387655345741365,-1.5906835165717441,2.658504418351912,-0.022011498132955127,0.351984514265057,0.219429849220781
3.52901968,-0.804718558159428,-1.5562452744206365,2.7200527608379033,0.19677733487816937,0.3769895518399139,0.2186199879445224
3.629032626,-0.5163888164191627,-1.4708743202961245,2.737714913029899,0.446145676664932,0.3819256950891278,0.22005389858701352
3.729013891,-0.2815463441787863,-1.3436128921327377,2.8147835142148723,0.7218637456576639,0.3743231421433042,0.20771869919798946
3.829015854,-0.0901347473029261,-1.1366881469100751,2.858511392017931,0.9609603234085626,0.383965784803835,0.18678823938819752
3.929021444,0.02193229721549137,-0.8792516290308474,2.9185141679265456,1.1331795930367232,0.39220207232992854,0.19327643034923336
4.029004764,0.17455222212940058,-0.5283847108187548,2.964702628171725,1.3755984356519804,0.38698336725236243,0.09997251462600026
4.129025025,0.1950008532997643,-0.2615663698323273,3.1092896564502728,1.3908303962374382,0.3660309775462831,-0.02176087115385449
4.229010915,0.28853439147216053,0.039885365261861316,3.1020580006030776,1.3790065732926697,0.3422947874628728,-0.12613758512109483
4.329018166,0.3490736164701083,0.31000371540160315,3.1379279734105543,1.2266568578840273,0.28754958205627884,-0.18607443412547026
4.429023108,0.47701085621570766,0.5882423074236353,3.037180095730617,1.0175583160280395,0.2761728296104876,-0.20983056283976023
4.529018752,0.7131373609666086,0.851526374254104,3.010297835396932,0.7641666948702229,0.2976976853872901,-0.22404202404130721
4.62905221,0.8728331278828403,1.0272319360051045,2.9427430057588944,0.49258151807873063,0.29849351524272627,-0.21643647225276388
4.729016631,1.1809442178007892,1.1116127242825984,2.9355153677000563,0.30898266604654473,0.30713146036636263,-0.21682431353445125
4.829012526,1.427725106781151,1.2065751168883472,2.941971618666666,0.06464913167816613,0.33299851568922567,-0.20565039187506895
4.929017159,1.7509975374511295,1.1876201075915338,2.899314231393477,-0.1622859548142691,0.3217144940810454,-0.20947925845682455
5.029031757,2.0174088252524176,1.0788317703010366,2.9332104234441654,-0.3858282582282729,0.3257838510653923,-0.2061281805146397
5.129018746,2.272182071069351,0.9551579710502992,2.873930890469735,-0.6221027677184232,0.336016765616896,-0.21509133427299734
5.229018078,2.4925821256102356,0.7393807596244215,2.9305471705825306,-0.8024474388097759,0.313137772153743,-0.2189752094370638
5.329023782,2.6857292917011835,0.5273555704045968,2.8945990923956657,-1.0359034198065524,0.30511371854156843,-0.22616100278374993
5.429021146,2.767213569954152,0.2320594488363953,2.806888513279005,-1.3313099732657545,0.317541033393886,-0.22387398300513597
5.529013181,2.784499317845599,-0.0499844912946357,2.8662594844532294,-1.5083394886836599,0.3284477414748069,-0.22305222539772357
5.629206174,2.7906218782002807,-0.3315455988831686,2.8882607826983975,-1.7863945973025999,0.3294058564833468,-0.21824849809441504
5.729024105,2.7111035328124,-0.6373337616740807,2.8712932863304967,-2.0393216306416733,0.34264550332209864,-0.21825040485930688
5.829015164,2.5589356696431005,-0.8419736131804617,2.8973510913065756,-2.257040682106867,0.3464881169692264,-0.22123461297166208
5.929013855,2.342500833987641,-0.9934268161731128,2.903470188881114,-2.4787350311674468,0.34940863614050893,-0.21733183224329505
6.029014153,2.098481507699127,-1.2075706083869369,2.9242034011313427,-2.665662160281613,0.3545162233278544,-0.2212213238780496
6.129013839,1.7954643132594708,-1.2731534938090172,2.940353963076868,-2.8957080878033135,0.35364876655056876,-0.22005442213627882
6.229006251,1.5561006026839779,-1.3030738409163192,2.8907129978710415,-3.17061310769438,0.34414253736879197,-0.21701334268474023
6.329012478,1.241998423448304,-1.2309775698369327,2.9582203509841305,-3.411732087235214,0.3374926956085894,-0.20922827220427626
6.429011836,0.9560341540465975,-1.1653497874986252,2.9721669008759233,-3.591623205678955,0.34390250553597845,-0.21078107602094165
6.529008869,0.7366614215342283,-1.0005844528446026,2.9080073595170717,-3.8488643991218088,0.32650661534753106,-0.20328186376909202
6.629038761,0.5395591521290656,-0.7695362829305222,2.897095546797043,-4.062548740629895,0.3278770721838342,-0.1968664717122793
6.729014662,0.4066679444135405,-0.5326422015405633,2.8961979557014708,-4.27952505269819,0.326343388067365,-0.195722947838937
6.829010858,0.2693445758019571,-0.22847911762259318,2.997405218650829,-4.4921383402593635,0.35764147258596213,-0.07178187018904851
6.929010812,0.1958711294428244,0.05282973743944802,3.1733549976106206,-4.453693901259139,0.36048814521596023,0.08718564536252434
7.029006811,0.08491807512056553,0.34788137763523364,3.2489974605474874,-4.343568460063723,0.31531815420245635,0.15675434218135928
7.129017406,-0.0694224917631508,0.6092772033486178,3.213813764627937,-4.11475332566238,0.27531881103002726,0.1868782910401045
7.229014007,-0.22196243137906937,0.8952724367227366,3.14198629836218,-3.8576241181958757,0.3163325353125067,0.2023430494594956
7.329009244,-0.5032268416042639,1.0554859904670033,3.0757581401649743,-3.662206053414661,0.3155538513193842,0.1934158688605766
7.429004719,-0.7845811017025794,1.1873517403956042,3.0381383030029685,-3.3871198425896885,0.32109516080434913,0.1785339681667902
7.529105802,-1.0919187581658765,1.2456687069784023,3.026451380859846,-3.1274920456090105,0.3513560272037333,0.16415242433798405
7.629022285,-1.342384412830346,1.2500743184757388,3.0168275939311253,-2.99198315692525,0.36032218137062577,0.17251527741946723
7.729024198,-1.653583528485686,1.1997673321152897,3.0282383321944044,-2.7798877513334888,0.3375776569429071,0.17276237381428056
7.829018521,-1.9096359778216867,1.0009622842747243,3.0225628560675553,-2.492300523456512,0.3150813774736285,0.17658944513754568
7.929015457,-2.1750591272527635,0.8378009314033048,2.9937989039999167,-2.300628295851371,0.31096070779103363,0.1759707735576771
8.029028865,-2.3327030976002567,0.623887919762258,2.9450737165898486,-2.0809474539069943,0.2935572517373903,0.17675367427064767
8.12902634,-2.4232198229162814,0.2921233906556796,2.931862962335878,-1.7919616863427013,0.2899471114572934,0.17338362420580872
8.229012599,-2.513087834526999,0.014305430143499932,2.8624824961971274,-1.6435116356904105,0.30226407366521485,0.1839192683244976
8.329030672,-2.4959300455196947,-0.26171037629419763,2.8644840908335287,-1.450882663913218,0.2821633859704794,0.1864078403356533
8.429006518,-2.4122460063683717,-0.569689833786014,2.855312516564444,-1.1814549963019787,0.2878374651601472,0.18983685428516048
8.529024258,-2.324720096642126,-0.7566445230324553,2.8372038757813627,-0.9847985365356764,0.30916550439499974,0.20309257992346486
8.629009332,-2.098975256874373,-1.0158267705914639,2.820466933804999,-0.7282694396534696,0.308096643359626,0.20214644857440248
8.7290113,-1.8905273767809696,-1.1509255179345164,2.7369868997793185,-0.5353969298638903,0.3164298712604757,0.20268316123145824
8.829009539,-1.6296275350714033,-1.2668610511856107,2.801945811840652,-0.27470739483004414,0.35736225090567575,0.2095755480859354
8.92901174,-1.3657210944681035,-1.276366754937365,2.7707545502397593,-0.03089097261056388,0.34238584097579333,0.2069550841217094
9.029007553,-1.0962243327445504,-1.2428917364490357,2.8155169238165065,0.2354307340399572,0.35391266352560585,0.1991573726686327
9.1290137,-0.8097178236384093,-1.1847289261001326,2.802489955825438,0.4312676646660343,0.3805114692154991,0.2002519866839234
9.229008241,-0.5833909801434354,-1.0189940868316565,2.851377914837516,0.7311949361356666,0.3538392344450856,0.19448005622995282
9.329005793,-0.3501410769693899,-0.8371279591898758,2.8753275590180274,0.9366456063785624,0.34113351361614414,0.185546346499016
9.429014807,-0.19524201751152562,-0.5540559085847192,2.9155584692629684,1.1562214530837955,0.369032805571535,0.19379955937190962
9.529011018,-0.12942859581129623,-0.35006211375534074,2.929233618947137,1.2652724952586676,0.36899281026739444,0.0974035919685993
9.629007486,-0.030127372174381228,-0.03456196581889452,3.0433292450789895,1.3414485608476283,0.3401210306444612,-0.013410073063385503
9.729011225,0.03035875763622252,0.27410480510060303,3.0722624100761218,1.30197227043909,0.35544763985961997,-0.11730151038005655
9.829016235000001,0.11893441025958144,0.5863364642945921,3.0740086282253243,1.1715893875764183,0.3020041153160569,-0.18561927506568526
9.92901163,0.303614294456035,0.8732471484401008,3.0580485220235434,0.9706565230021119,0.2857345661761855,-0.21361243261884894
10.029015151,0.4586801059405906,1.0304787511100229,2.9837032204439335,0.7186353970183585,0.33383882216348737,-0.2262054659437322
10.129010586,0.7141893979218426,1.232365563335758,2.947925919441209,0.45688987712858337,0.337883598805377,-0.2191180016646734
10.229019762,1.037023366594469,1.388411979872975,2.899664759636105,0.21758205747464324,0.4261956471456486,-0.20880745833395986
10.329014118,1.2455260454370918,1.4098265403391874,2.90368644167136,0.008232969320841152,0.41224636331238007,-0.19787795362350943
10.429005592,1.590395724611544,1.37071940640534,2.951702250710323,-0.19835242526413643,0.36560326224880396,-0.1902536063034976
10.529012419,1.8690873871622866,1.257831638710124,3.0312393742715837,-0.47647266408975253,0.3456468529021163,-0.1926738622349805
10.629022352,2.1304474774605024,1.1076957370661722,3.0132114651794226,-0.700091936033882,0.3224766595419291,-0.19079643613732472
10.729023145,2.331095118166,0.9082235557148041,2.9856546832348116,-0.8580160625297705,0.31880450287056006,-0.19909834962452536
10.829009368,2.4754844850248894,0.6220107923183344,2.9636692352573752,-1.1048724638297611,0.29381280340373855,-0.19454695657682314
10.929012106,2.589462144005455,0.35239465146738663,2.990369158922268,-1.3064068551475645,0.32855582584970944,-0.2106958135826551
11.02901222,2.617905955705632,0.08088080356348566,2.984132413699364,-1.558199001944778,0.29683124430715085,-0.21143707305446877
11.129012876,2.6295832894859887,-0.17698921232075565,2.9444648550828996,-1.7995615827791687,0.2909166409473768,-0.21349577521846536
11.229005941,2.5411416187576905,-0.43931432471112236,2.9185958061239967,-2.0085641679933484,0.33480899928919744,-0.21526452720965927
11.329009645,2.3791621907408462,-0.7500295894560024,2.8625759998690747,-2.2573435990996726,0.32523246234902076,-0.21172736511077733
11.429049415,2.196018876840055,-0.94472181431537,2.8746831921211444,-2.467281483778432,0.32572537850051875,-0.21284550176714026
11.529012541,1.9270431271861113,-1.0986661730428262,2.8685691584981194,-2.6846831311330086,0.3644280397384925,-0.21540063270160226
11.629011697,1.6586879702919501,-1.1770464102918312,2.845185001460786,-2.939684174960412,0.3361865802696993,-0.20878361612111293
11.729003514,1.3836194809717084,-1.1958300905902344,2.8414836626557602,-3.193771174206416,0.3263736077920641,-0.21315266150700268
11.829021021,1.114464957623927,-1.160683241721738,2.9097640603613772,-3.402846880971356,0.33311266753721164,-0.20694736550609463
11.929013869,0.862177800661087,-1.0294468014386693,2.851725144041384,-3.60849665068702,0.34523812688993016,-0.21038408452645596
12.029013813,0.5677036411351133,-0.9303909339034488,2.881298052504347,-3.827515072867195,0.31866021873710476,-0.2128366854791275
12.12900968,0.4060406403232963,-0.6556729673619014,2.8878112634119657,-4.1180714453680975,0.32429258679533807,-0.20370932889121604
12.228995987,0.24019662136330602,-0.44727674275118573,2.8764681993366996,-4.298560711904752,0.33948511147454663,-0.20887842982972896
12.329019279,0.16508359071894374,-0.1508727542548153,2.989643644629051,-4.451546065520429,0.35452036507448187,-0.05034786540246205
12.429028797,0.07850207073362808,0.08943003120357496,3.145855172930489,-4.420672075770244,0.3447237965409404,0.06441003784533238
12.529008152,-0.08516572252060084,0.41537444770856086,3.1845042810656183,-4.344488427486857,0.3233154702277726,0.13664429417299723
12.629011636,-0.18543589644135589,0.6886166244234465,3.182244249596861,-4.1502658415076015,0.26914246009137266,0.17999604707507563
12.72901284,-0.4027556383170605,0.9454847884956433,3.1869246035907293,-3.93977799656872,0.261248005191787,0.2030535494200751
12.829020678,-0.6478208156582762,1.1505834647805868,3.1119081731019276,-3.6777264166308616,0.27496963088576637,0.20822707979966099
12.92901668,-0.9275174198873718,1.245866549514961,2.963881737022363,-3.4404917099577323,0.30648905647596436,0.20059880859607457
13.029009695,-1.170381727163425,1.3422012167703408,2.9646442072903376,-3.1673199049417424,0.3284190726648929,0.18854370089927555
13.129013556,-1.474222585467948,1.2730684864155553,2.959494760137199,-2.9837262242355473,0.34384604696153925,0.17658959109392403
13.229021137,-1.7992484928119898,1.261146999941108,2.9933042156708183,-2.762714141129355,0.34667112283858215,0.17660453707809134
13.32899959,-2.071956688181593,1.0906232565597989,2.9915482096505475,-2.524841809093031,0.32757232271324616,0.18548621609183608
13.429012231,-2.24729802349135,0.9095271159293425,2.943985859056978,-2.2928587611783087,0.3098696831368678,0.17483321451660505
13.528973836,-2.4598820180521566,0.6762469115274039,3.035740490167946,-2.1111824444539744,0.34080892487321673,0.18681305477616697
13.629009245,-2.5978686863982956,0.39987497389817267,2.9537850330641504,-1.8882540329456179,0.30850069630636523,0.19051559409144883
13.729006402,-2.6558274694572144,0.12184417178956325,2.955900625411578,-1.629188154073039,0.28468267440053757,0.1940696023754809
13.829074621,-2.6328995892384937,-0.144400755169531,2.940128707262848,-1.4616863483719098,0.3222946780274589,0.20196468282948737
13.929012566,-2.6194046259235217,-0.4701499481001271,2.9106090772895565,-1.2622333219919497,0.2888884388218833,0.1954758442564838
14.029020006,-2.461871893911658,-0.693900635001847,2.8595052367809943,-0.957314186572321,0.29754003943349794,0.20901598979877123
14.129013822,-2.2991488627098673,-0.9039518805235662,2.8572453887936407,-0.7481155473036288,0.30784825863854076,0.20539823350757658
14.229029539,-2.017127202472051,-1.0957646781248123,2.8388821665883324,-0.5428968544261787,0.33592511946784953,0.2093475739520127
14.329013299,-1.774770395243001,-1.2213497097008499,2.827532483210286,-0.26913663622572825,0.32554484915060217,0.19820049060222697
14.429022467,-1.478312442979751,-1.266626741216669,2.793085688948884,-0.052689966678487625,0.3337421343205525,0.20759801770465697
14.529012877,-1.2306887296114164,-1.2622307352130215,2.8630665406094153,0.16675785069034205,0.3593108448848187,0.2091675628126864
14.629019915,-0.9330412088148359,-1.160407011491663,2.882256562710871,0.3910931200579562,0.3412227375208798,0.20398578308563806
14.729017403,-0.6995326604270783,-1.0293698150337298,2.8798879229171637,0.6877423492496174,0.34068150845151735,0.19241165937339588
14.829014959,-0.4622738288703368,-0.8308294402621242,2.9098848071123746,0.8603113330890989,0.3520839526139548,0.200169111629315
14.929011817,-0.32080810658499614,-0.5934488420024453,2.9037189316770466,1.1263355575704013,0.33774466461880176,0.19273585444110894
15.029030862,-0.2127223099309539,-0.313563325679865,2.9111062137120816,1.2801866917507085,0.34676864117831363,0.1343616702618836
15.129004984,-0.13703592891301503,-0.03710072809027211,2.995537466205498,1.3512243467832836,0.3726514537217329,-0.0167375581182484
15.22900884,-0.07742222449247357,0.2844949342156183,3.061464632711452,1.258247454860566,0.33617011086141196,-0.11750858313779602
15.329007475,0.027604240370099502,0.5280655608276452,3.110919855221209,1.167652514167806,0.3182118462560324,-0.1529078214797144
15.429019148,0.20136714029172417,0.8127805253563091,3.0787578841799994,0.958685612160299,0.3111042143518542,-0.2041598764582974
15.529009979,0.4445174268652982,1.0537671823866845,3.0342868071505027,0.6901542905404578,0.3051329619949371,-0.22067103385006212
15.629010159,0.637847319572188,1.2511621677694051,3.025140242995932,0.4830275233736262,0.36889769669249795,-0.221949381150766
15.729024685,0.9281784072487564,1.3463380648608265,2.981360473542951,0.25925469076697183,0.3569195960406862,-0.21369703073092183
15.829018364,1.2073628291503198,1.4134586865218255,2.955952700411397,0.01578410964229969,0.35246376352637915,-0.20253356594331925
15.929007524,1.5310804736697712,1.3976097390938174,3.037603166437693,-0.17529499274375637,0.3554048204234058,-0.20028812339798904
16.029011872,1.7988997855364475,1.2898670143763027,2.9881766463291113,-0.4438827607934909,0.3595489822002238,-0.20237789096930436
16.129016701,2.072509908268649,1.118522877763663,3.009916126618022,-0.6269579338567584,0.3314966462383951,-0.19413864843225898
16.229023628,2.2998351788701954,0.8984396672806169,3.0006614397994755,-0.8600282770677296,0.3206647102732984,-0.20512783069451745
