time (sec),x position (m),y position (m),forward velocity (m/s),"heading angle (rad), from x-axis, positive is CCW",throttle (unitless; -1 to 1),steering angle (unitless; -1 to 1)
1.039436274,0.30000394753326803,0.00834727484827796,3.4724439988541835,2.066161581570476,0.48774308704285096,0.033958046006137
1.139435286,0.14918999889860912,0.3492877057151313,3.602978401052097,2.1172487281784362,0.36284197970493615,0.0886351976926812
1.239449381,-0.02273214973902597,0.6840120172740578,3.570542064168147,2.240153881166761,0.3051437491547523,0.15822363934328418
1.339438381,-0.20700627378900627,0.9018424889382918,3.4872630798041384,2.430167510741664,0.2793834431427584,0.16097260217706671
1.439434997,-0.5555225584021907,1.0867614814298858,3.417815393843832,2.6134816224923116,0.28939133135264083,0.1750258875620697
1.53946083,-0.8115642536980638,1.286313571395348,3.3008164044651394,2.827882446819103,0.2800215623711742,0.1737833183712959
1.639437644,-1.1700877449224303,1.330858223085686,3.1784202649946187,3.1385477416958563,0.29352227064940906,0.1831854177498996
1.739515026,-1.4906529368318517,1.3505550394836157,3.1464677067263995,3.3363291459621633,0.32385221115751,0.18966187862220146
1.8394328830000002,-1.7895338199024644,1.2901471440897643,3.03852680523784,3.524605822737129,0.3245761956506209,0.19539756155116697
1.939437732,-2.037276791228217,1.161730883275683,3.051589626076924,3.715752835475939,0.3250613221119025,0.19867830385017646
2.039566877,-2.2962718515828877,1.016865592065595,2.992423129634755,3.926576233141804,0.3651712602644417,0.20461545949012616
2.139561755,-2.4677117052396507,0.738113319786026,3.0044572827108578,4.153656513299872,0.34504185360569833,0.19779023836791385
2.239493021,-2.6144703245319088,0.5161617585799997,2.97836265582094,4.403446673658403,0.359445929397972,0.21768612130988244
2.339438558,-2.6579177341394913,0.19580453948391902,2.983318449511441,4.58120524340568,0.37481045235528027,0.20481973456219568
2.43954129,-2.701641344054306,-0.11086742941293287,2.930678009843962,4.823338520477693,0.3811304269081903,0.21260158341174246
2.539434376,-2.648903265148324,-0.3940198558301095,2.983955331654017,5.097382541837889,0.37866661411760405,0.21700748169852713
2.639437316,-2.4760819196562327,-0.6561889560314941,2.992849898761173,5.297326305676553,0.38352860667673494,0.21681656750512474
2.73946928,-2.3119328856836834,-0.9116606027849201,2.9951644263167627,5.458516202251532,0.38895380930953455,0.21786290594015786
2.839433806,-2.0724577114625067,-1.1137882132235248,2.9536768559328035,5.7627511799615565,0.370964102822609,0.2166720027141107
2.939438016,-1.8423449949311232,-1.2058512018432122,2.9549623704346812,5.972162431296936,0.3639308317113468,0.22175501921337556
3.039435034,-1.5465075579707999,-1.3204086262770596,2.9715993047148537,6.186246688456591,0.35711352405685215,0.22141990047915963
3.139436135,-1.2153190653965875,-1.3384643984882763,2.9173320563839695,6.419964427027714,0.34908043466554417,0.23338795195450077
3.23944011,-0.9908429715214495,-1.316762880004117,2.922130206539807,6.5944483208653555,0.35740720252764197,0.2225265720791222
3.3395483710000002,-0.7080350822599707,-1.1276924514847655,2.8802536363571036,6.868909802129393,0.37630976268813804,0.21871824576912077
3.439448873,-0.4606709829347167,-0.9892733454576691,2.8970317566374497,7.0904403919051155,0.38317522257784564,0.22529286879111
3.539436298,-0.2865610513454629,-0.6914803798596985,2.8931301351666914,7.3246514074166855,0.42573317616900436,0.19547017401799027
3.6394471250000002,-0.1374126772351754,-0.454278477874072,3.0542512097054884,7.4633943937501215,0.49179553451525393,0.09824245946649099
3.739458258,-0.05133075089144005,-0.1846840572068503,3.187411322486373,7.49221054130073,0.4644627909130895,-0.0095519045343069
3.839436474,0.1426470092476888,0.11326243762432867,3.343826065410046,7.439727569188113,0.41731478227168217,-0.07928013492923675
3.939452884,0.24348944267312378,0.3954745897851134,3.445660323498855,7.402074154394527,0.3562045538382682,-0.14590586307505699
4.039460049,0.3799241029760042,0.6888548978775109,3.4156779655932246,7.215638846425489,0.28950931444262773,-0.19091099602437983
4.139434551,0.579678717919109,0.9320698045073602,3.3478954535976793,7.063784110817409,0.26293857933326237,-0.21603834625490415
4.239440374,0.8958211998582503,1.221297600350871,3.2069067808095104,6.822284690760909,0.27461838961665347,-0.228757557764117
4.339530429,1.1495846662671767,1.303563515309718,3.1256901485942086,6.581697945607773,0.2829350444818932,-0.23252883545767328
4.43943767,1.4166696829968186,1.4097990125660982,3.10902842786243,6.439597276208276,0.3264043721236403,-0.23713232938647655
4.539461071,1.786808457992406,1.3962970034027693,3.050176037354868,6.196013341093103,0.36465851008911476,-0.24127410639845515
4.639443294,2.0603338748059428,1.3112949456145309,2.977798871419428,5.940999310000147,0.3747266088331209,-0.25256407065841424
4.739460911,2.3303965122800863,1.1874857239366081,3.0141087338132024,5.72984575173443,0.380524077782501,-0.24715501250987307
4.839434847,2.573135001878388,0.9637232200058132,3.0451801076385605,5.468984468164369,0.3944622154676627,-0.25174299018842916
4.939457604,2.7106744509549756,0.738763225952554,3.035389999091339,5.25141706853091,0.39353105113173475,-0.2502372704850405
5.039516756,2.847240970170559,0.4696347446310713,2.9953849399033237,5.060163026220381,0.38640460315486475,-0.25975193343449066
5.139585806,2.929089969519266,0.21992923263005848,3.033834804831373,4.780669069744924,0.39575135326423705,-0.2567178162035949
5.239438947,2.9248991989581947,-0.14209698431993267,3.0427228392469776,4.585861061979862,0.40036727392275084,-0.2629520869749821
5.339450332,2.820431355402209,-0.3840078970201049,3.0186746893791474,4.360985940751774,0.3787827640990532,-0.2536626640184485
5.439436462,2.713848384097168,-0.6846575057691408,2.9618856526056048,4.118180410542363,0.38289342656047304,-0.2549356245346147
5.539434963,2.5250301810605897,-0.9499974834489393,2.9883590280598957,3.865001695091401,0.36277325872244776,-0.250863800409991
5.639454948,2.2821758789019557,-1.079062115507479,2.99893755320421,3.6891856180525253,0.3561055694776012,-0.2566562686537713
5.739439959,1.9803379647516035,-1.1918417572012385,2.989200011867431,3.3898064979898965,0.37751925299079486,-0.25861391585083765
5.839436732,1.7030924662693676,-1.2785816348809602,2.991053826144649,3.179760465142697,0.37334784290586004,-0.27090162311444893
5.939433843,1.3807410549639891,-1.2353755373181434,2.9442455463263446,2.937609276202979,0.39248782312597286,-0.2675272418003497
6.039501282,1.1375824331292865,-1.1786904130020956,2.949837568209223,2.7548200275757506,0.42385971581649867,-0.2647450686311481
6.139432785,0.8823904263646813,-1.0185702850928378,3.007983930276374,2.4778534864892423,0.4502950481543029,-0.25949330989875474
6.239438684,0.726527042179812,-0.807968127408998,3.0220629008138618,2.2797940803339083,0.4544455198911233,-0.24075094548046352
6.339484495,0.5001690138163344,-0.5410971030795059,3.047803554703539,2.0679183382686133,0.4654306132383351,-0.17061048077865731
6.439434544,0.3537180512753197,-0.2505870682743534,3.3339629335755654,2.032352453547391,0.513805408797635,-0.046251372139715904
6.539503765,0.2094355475797395,0.05855822825960828,3.4299879425136988,2.0554762090814704,0.4541562417832642,0.0409830098457348
6.639453121,0.060057866685257866,0.35667305179698006,3.520607095353774,2.1561909250738154,0.36421535438588876,0.09260522883100754
6.7395377320000005,-0.1656639554157858,0.6635558230162131,3.522364252287935,2.2671460114040025,0.34150914496213697,0.12951911027184967
6.83943711,-0.3716010344287083,0.9417780467472955,3.4671591688453534,2.4286141260449665,0.28272361958243825,0.15621439614326363
6.939458782,-0.6390533691128961,1.1099408752449837,3.407067791765874,2.6120774277799517,0.263147010924465,0.18548048024916733
7.039553285,-0.9195416244696418,1.2735585421240365,3.2405035588274256,2.8744946619497393,0.2876942838920243,0.1925995265596874
7.139433869,-1.2949984457059611,1.3407581761399225,3.1825906269500313,3.0888177346623427,0.28670958905941213,0.18182628586738125
7.2394351310000005,-1.537619383183296,1.3524001919985407,3.1439285896871,3.2940953913562225,0.3084322474858474,0.18792114309964064
7.339439667,-1.8711237131293073,1.3166504568366195,3.0619382889281215,3.49751632974943,0.3314093581292718,0.19835402512241113
7.439432427,-2.1529954565839056,1.1501612478834604,2.982576550377721,3.7506985195247786,0.32405584340860466,0.19296256652410906
7.539532845,-2.374637827684495,0.9680618256509557,2.973837657298028,3.9405433394373452,0.3427681681747539,0.2041147364454252
7.639536042,-2.5236277474347877,0.762232988639242,3.0096042769261717,4.1802778711710324,0.3752277835846115,0.21088631130642738
7.739435117,-2.7305357958689433,0.5143650182556898,2.937152115116341,4.391075219298613,0.37628574910761287,0.21606733195577044
7.839433264,-2.7862622918412963,0.17843245461178836,2.9830721748539295,4.6677803589165725,0.38053429763808816,0.21543157076236186
7.939560511,-2.776355576656074,-0.11599237913666023,2.9847993112262503,4.813947348481689,0.41487571197366013,0.22344739808305752
8.03956444,-2.717583508471639,-0.41113526093405206,3.001562014944687,5.068439513180066,0.379780077158317,0.21455807221430637
8.139434409,-2.567639920520093,-0.692462228326378,3.0210964813697454,5.309361626787709,0.3783028286526885,0.2160776204831029
8.239454921,-2.4105899954117422,-0.9052720942545823,3.0150166588342264,5.494939568354673,0.3897641364715174,0.20628443538952781
8.339438271,-2.1636840150961425,-1.0938933071914,2.998308895942203,5.765204106866488,0.37807907009917385,0.21243429604638592
8.439435991,-1.8996032966554817,-1.2681822590522727,2.980898216413097,5.950502069110952,0.3672653960667378,0.2245445361546785
8.539456769000001,-1.62611690745967,-1.3371311458056596,2.984452718187916,6.182126757225013,0.3704930575212045,0.22485310783106638
8.639444075,-1.3501912500883368,-1.3336307059376342,2.973226125597541,6.424909118392604,0.36501552376953716,0.21848519873330494
8.739463938,-1.045262899950641,-1.2739721001837285,2.942577377056658,6.658932045710228,0.3597406784121107,0.22027669758497795
8.839489312,-0.8049738374741792,-1.1482812770325417,2.938726264435944,6.876216958058095,0.3725590893755361,0.22067915951494266
8.939447996,-0.5506322201964167,-0.9636703147353636,2.908113129175499,7.089884844275203,0.39824775029739484,0.22585848949501713
9.039443481,-0.35541176942163294,-0.7331645045099283,2.9726388114384625,7.293356918888255,0.42854433990061486,0.18945175683468032
9.139445974,-0.22581098203556715,-0.48316193143335007,3.009014300892591,7.446160176295633,0.4569364170727412,0.10774812299530204
9.239462484,-0.07655189365178793,-0.18151116743549814,3.2386116966219665,7.512185179383054,0.4806652198522759,-0.018465014718025904
9.339437256,0.04108971646284654,0.15825857156618592,3.340505376427965,7.503135197975736,0.42666477510716194,-0.09797493725571896
9.439449854,0.1376251689613857,0.4534693266286679,3.3644556910924206,7.4018983376578635,0.3549114487210025,-0.14887142553253044
9.539442171,0.2479750337088772,0.7181332077254323,3.429930120927739,7.255896099042266,0.31145576299870326,-0.1972789450289186
9.639434698,0.5758160304313014,1.0199186161913534,3.262957121435635,6.975591367810861,0.2796212432624516,-0.21099684869537583
9.739434288,0.8260362968090863,1.1938343653809476,3.163383529449202,6.750451814522206,0.27374832945172717,-0.2115259333754226
9.839436185,1.05699910054503,1.331314463974648,3.132360763908393,6.6155229142078005,0.30663179147112873,-0.2170363424825951
9.939458212,1.3536945827265616,1.377969308820142,3.0726556899518735,6.3378020314219,0.34260032166304044,-0.23001075513863584
10.039439038,1.6758288993070416,1.3711873241697927,3.0735685733649474,6.139580422704579,0.35772564626557674,-0.2365458170708317
10.139455927,1.9036118566859739,1.298051711268295,3.0261150523631306,5.938467886203969,0.4307889612184195,-0.2536483212130819
10.239461377,2.257589534440634,1.1823771802426721,3.0373881886003926,5.70097784333172,0.3976854799483943,-0.24691652009539922
10.339454842,2.480417219811606,0.984750785471527,3.0439969988888147,5.452913574637084,0.3934083415880963,-0.24862125971870813
10.439542697,2.6129938577547667,0.7315754302235995,3.038449385422077,5.241895097193918,0.39874623502871526,-0.24200770124631965
10.539449669,2.787429936622492,0.48280967658091567,2.998084320237885,5.04221975378699,0.3988215736676327,-0.2463382038923596
10.639456829,2.856647379204099,0.13990362377252313,3.0074381208316003,4.78853760195398,0.378948090622318,-0.23544136832784543
10.739461259,2.79616064029369,-0.15469733602676056,3.0195299897830603,4.539223440962371,0.3763689934865133,-0.23935500298468132
10.839587273,2.7451143906449373,-0.40479533056879957,3.0230915352709498,4.322477819817886,0.37717000477637586,-0.24564739584546377
10.939468471,2.6151801529024707,-0.6976594564876802,2.9451414106720177,4.086375197557665,0.3569432602264063,-0.24739987308098157
11.039438925,2.4122228554770144,-0.9046873886886324,2.9560787212403143,3.8713471004023536,0.3542091927500251,-0.247075727398442
11.139436093,2.1468745891843803,-1.083588886504958,2.9463668290252327,3.6448464087619503,0.36858489700319413,-0.24434557359601472
11.239520118,1.87686878532505,-1.2079694452931489,2.9797400257146873,3.3668889601338847,0.35671498487732556,-0.24947814579566863
11.339434888,1.5729292222768483,-1.215512286056334,2.93754400941134,3.159379416439169,0.36816872534760625,-0.257266172142433
11.439487005,1.2671068781950128,-1.1952760970367318,2.9433856012397523,2.922590439395311,0.40223980628879374,-0.25872208454589424
11.539433505,0.9957756666755152,-1.0956620056206674,2.914752747517956,2.71198115555084,0.42156334020244984,-0.25746453091465926
11.63951532,0.7585712244811866,-0.973927687356418,2.9932567540091033,2.433274389320943,0.42862269706756756,-0.24212023684586198
11.739461272,0.5676753128321986,-0.7783493801281876,3.0436987643433158,2.2207078101520867,0.462722218008271,-0.22717721947424316
11.839455108,0.419997312275193,-0.5041551572751356,3.1672700782326593,2.079124203888174,0.49588724209802937,-0.15396395833659832
11.9394541,0.26111624957359597,-0.25025161993399936,3.3377985854932435,2.0370379650701116,0.4644265382301764,-0.04953813815321276
12.039456568,0.1429372073695732,0.12229191183111598,3.4452620657910407,2.0338332776439882,0.39922676676961777,0.025396515136531832
12.139455977,-0.048781208970218655,0.39091253124430797,3.5284338036098046,2.0892384959550134,0.3630971094955588,0.08618896813599197
12.239434683,-0.2559470801022318,0.7066225165885468,3.5326458401344705,2.2394981586083182,0.2861456408422677,0.13136592618639284
12.339454514,-0.49362408937431984,0.9363521209974196,3.505306153613761,2.431351997035249,0.26788727467688556,0.16370583546945
12.439434675,-0.7807271431661749,1.2034922740104466,3.3735940353937446,2.6282903176227945,0.2562021420047625,0.18751429110122825
12.539449797,-1.0130784138898328,1.3625481725532167,3.212119175528472,2.8573870064709443,0.25298033439105444,0.19321028504585935
12.639456335,-1.3483314319342612,1.3937444146998474,3.1269232149045867,3.0722208959433654,0.2806384330950367,0.19417866690242006
12.739435582,-1.6432351862061478,1.4453578616845795,3.0700305894947046,3.2949487428664073,0.31639834099517883,0.1922231492544694
12.839434423,-1.964182262643702,1.3415647847044536,3.05977495850063,3.508859767737436,0.3280009857514524,0.19888747368915644
12.939431474,-2.236121778716652,1.1919338659935284,3.0484077971655545,3.708529236526451,0.3431679850247723,0.19721879441167864
13.039500319,-2.4348622061267196,1.0547701269441967,3.012087767141595,3.9074159009980343,0.3560475639991878,0.22356947842246794
13.139434341,-2.6835700767885595,0.781304550251453,2.9604288981119122,4.180030257705282,0.3525944825196816,0.22804694471443818
13.239434366,-2.787938693632126,0.5301009906221175,2.9658017169695667,4.435476272567481,0.3733451018018665,0.2225872437389395
13.339434993,-2.8921302472284487,0.28790371135325493,2.9680874000738777,4.576388685381053,0.401598968102333,0.21780863999593716
13.439442563,-2.866635771793716,-0.06189754235879778,3.051086679501312,4.843045990720861,0.4053682592442018,0.22452949003423128
13.539457226,-2.8069328780138805,-0.3201027186272825,3.0142740003975126,5.037517625644231,0.40333252614834975,0.22631434641438322
13.639448045,-2.6866074460408575,-0.580986859527873,2.9602077393472905,5.288191368405452,0.40620492161685195,0.22176133976266446
13.739493506,-2.4867899705149905,-0.8471957617787641,3.028976015250521,5.574546433465792,0.41256610097113555,0.22286088005020488
13.839437037,-2.285425180943069,-1.0405707290262838,3.014696770601763,5.718893323753721,0.3922930780197719,0.21973822907730498
13.939433947,-1.9783029624048696,-1.1890300492482957,3.0281922578252307,5.9658262451473245,0.3856927525815106,0.2084880167855405
14.039433214,-1.6989238372589426,-1.2661080345637512,3.023831371869109,6.150751929171728,0.37445816983705565,0.2239103043245519
14.139527501,-1.4719262530537354,-1.309916700164103,2.973970421997784,6.340007576281451,0.35131868787097864,0.2222307032791238
14.239442964,-1.1765201138661363,-1.227546066746517,2.9654672135086773,6.640681158821588,0.35012435775375617,0.23081616191456836
14.339464495,-0.8518707385528292,-1.126449712883409,2.901570194820342,6.860892236343384,0.3841892521705603,0.22657254285084003
14.439437536,-0.660788389580665,-0.9864202908814781,2.930492438720689,7.051856374000679,0.37525943630196246,0.22470176562110034
14.539435154,-0.4709579715741219,-0.7202963210047834,2.9587345876143902,7.279749986104789,0.4265302210853628,0.18659929858131408
14.639437122,-0.3363434186712822,-0.4726833799969791,3.086529815495571,7.404689421534923,0.4782133844621786,0.10422005140683742
14.739530707,-0.19923450228258024,-0.19688170121516496,3.191699728656179,7.4406280847737225,0.48292762833122743,-0.0008107296339330064
14.839436992,-0.045759746001935026,0.13145316667582085,3.380113644264083,7.41970203770847,0.42653842047168566,-0.0779411828355864
14.939538158,0.10603053984259857,0.4257086900639379,3.4226559024772074,7.364616129514709,0.38998685534307737,-0.13636413049955945
15.039431965,0.3098263843422412,0.7692947075923313,3.4083522147923424,7.187215800145646,0.309143932815879,-0.17941006318214117
15.139518973,0.5135209768362418,0.9695348519747528,3.349531716641701,7.026515781925186,0.27669973039237483,-0.20302449374228593
15.239465965,0.7790904841147446,1.1953934947812217,3.238530390983734,6.775969764167716,0.2783988206756276,-0.21560570370041687
15.339438478,1.042209643168321,1.2767027240692497,3.1159128851850757,6.597667085670513,0.2971637314685541,-0.22128547506579643
15.439432537,1.366242619128927,1.3919276638720453,3.0591521462209417,6.327678635955825,0.3242896054421925,-0.23138902855215265
15.539564046,1.6860065483452882,1.3667780694002853,3.037461593978511,6.126307609348557,0.3628128007015441,-0.23006541666518449
15.639507167,1.9572079959075825,1.3127512228255058,3.034696621199082,5.89003169088025,0.3952304543325604,-0.2350154773632221
15.7394484,2.232624389547526,1.1377299984256386,3.0456750124722864,5.664742441651494,0.38851032379802986,-0.23383486056572245
15.839440966,2.435383135576378,0.9313535236366343,3.037535730515056,5.464528305580086,0.3897669933755827,-0.23809659384251788
15.939463875,2.618609311570763,0.6922212367573887,3.0690794505304297,5.254056082847197,0.3975463992041991,-0.2392753686429615
16.039462428,2.7290239759597297,0.40228136624032956,3.0299938893428,4.996046765693034,0.37982121598705376,-0.24712883616230777
16.139452055,2.8206961051848514,0.1576893892183179,3.013581391234215,4.790929409110886,0.37100565901860066,-0.23952206503845747
16.239460451,2.7888145357940406,-0.22521303336599735,2.961487824387434,4.503897603640044,0.4008894770627342,-0.24365248252874538
16.339539318,2.699255252204639,-0.5052095394567067,2.9684557594372065,4.319968139945277,0.3712986906142501,-0.24307061852214873
16.439463308,2.5672684221530804,-0.7346032447634019,2.9628812152752912,4.070491950005066,0.355164204454106,-0.2287498261759446
