time (sec),x position (m),y position (m),forward velocity (m/s),"heading angle (rad), from x-axis, positive is CCW",throttle (unitless; -1 to 1),steering angle (unitless; -1 to 1)
1.033261097,1.659873944771274,1.373196376123093,2.9904325421558102,-0.14678478046078497,0.3916685369884172,-0.18499501234944188
1.133225299,1.9941913791901602,1.3322273978663242,2.9622713539965733,-0.36165866708904404,0.3719790627937864,-0.1935420836891338
1.233238594,2.2140326802610737,1.2130058497536165,2.911701695521276,-0.5712444166237568,0.3466001656988908,-0.19863572089374212
1.333294903,2.486100216004013,1.0235154170539031,2.8625149188110615,-0.786339972453174,0.3563661901431086,-0.204371856412829
1.433275439,2.6203112573073217,0.8146549761202199,2.8754013159795053,-1.045934184690277,0.36271499093408466,-0.21257355319067797
1.533309521,2.7593925471567586,0.5263994482516557,2.821578341764032,-1.2625665198823954,0.3673249019895845,-0.218377268090628
1.633217899,2.80196486883636,0.2718328670026745,2.779585707813264,-1.5002736624219786,0.3912362228131457,-0.21823104419757322
1.73322211,2.760990865239577,-0.044018842054849905,2.7964966895096195,-1.7109486521880293,0.4136063482813957,-0.22109872426565202
1.833226948,2.7277798399900877,-0.3165799359444093,2.836511828849673,-1.9354544851964501,0.41466080983456144,-0.2188417186574624
1.933226762,2.5897613368189636,-0.5172484234726592,2.8100723624726385,-2.2066299579649264,0.4662981773891273,-0.22299314390634734
2.033226877,2.391308972461123,-0.7903144121018355,2.883410952794416,-2.456760913410833,0.45725807845198446,-0.21918030199331126
2.133292672,2.173333032711821,-0.9429834910312571,2.8963689567846043,-2.6648918557510886,0.43059670462850647,-0.21226900267223933
2.233278005,1.9055315886765254,-1.021390371247298,2.8842452604641005,-2.872123012442437,0.4180521669795067,-0.20202626539682286
2.333280183,1.6559426456673918,-1.077976529681931,2.9405469128764943,-3.1114220556967673,0.4161206785705536,-0.20819845262246392
2.433267355,1.269253486920586,-1.077161782554766,2.8872623420176082,-3.3281274312663114,0.38556220318008,-0.2028550379710207
2.533223035,1.0230306790142147,-1.0085962193101259,2.8957353676854503,-3.555563194353153,0.3763366978732923,-0.19898215532994448
2.633221554,0.8173141521402507,-0.8332602748535296,2.817734910010931,-3.815111593114842,0.373695028768197,-0.20585502492926414
2.733227593,0.5884770371756555,-0.6425908572477413,2.800291873845752,-4.022900193989013,0.35717774743083625,-0.20733673278506667
2.833221389,0.3968864529180799,-0.40269889204771503,2.7956137687930975,-4.214448995201616,0.4058990358055118,-0.22110041005387565
2.933271391,0.3035194535555718,-0.150034945822687,2.985123357761222,-4.365936487941621,0.47595732629101883,-0.06275621841567687
3.033267031,0.20453307753722294,0.1549708806738205,3.167613103471189,-4.379036859499649,0.44593091039007615,0.04248798777131684
3.133229169,0.06383418757470721,0.45472035912046105,3.248384378397882,-4.286198149868591,0.38554323998740264,0.10722768817067319
3.233226533,-0.07642938826377832,0.6746671327414652,3.292579726051209,-4.164258377453133,0.3578462538083739,0.1532298354585951
3.333229224,-0.246237021017508,0.9543042821515719,3.231170116438233,-4.020221842686571,0.3081968219680904,0.17833814915182594
3.43327649,-0.498810540013016,1.229560665819116,3.2673395777880025,-3.8059835824550823,0.3138949220750352,0.19906703240710694
3.533272782,-0.7852838161343135,1.3824601316446599,3.2074713032151196,-3.5348012202190735,0.32871753565007034,0.2108541403529911
3.633226272,-1.0750563269760414,1.4880028019448195,3.1144335446162823,-3.3026746642918963,0.3604274529279794,0.20638889891793083
3.733276452,-1.404241579909291,1.4769957952194943,3.1299846730458527,-3.0564660891388415,0.40529108457473323,0.19188805790941788
3.833323075,-1.741514535058396,1.4142183824055239,3.162839675708408,-2.8657515623880476,0.43773098091101503,0.1931205111133486
3.933269566,-1.9811378342003811,1.306750234477378,3.004087325606233,-2.6200134932986012,0.1776810729479052,0.22436500125021464
4.033254179,-2.2695629799276316,1.1707822045379082,2.939192305083189,-2.3757420292294653,0.32807733163852837,0.21040414219879214
4.133228704,-2.4197132180703647,0.9372761929473116,3.009294015249531,-2.153203289796201,0.5230486969051201,0.17098525840346013
4.233226592,-2.573347740363701,0.6626238991149661,3.1194495023288717,-1.9842461565303409,0.4156791423354101,0.17147396141658536
4.33322744,-2.6638883318722524,0.3579838488957244,3.149788648017249,-1.7502252794019588,0.3562185080186862,0.17407746137729418
4.433223612,-2.6934188231012817,0.008341812248503645,3.1035488669393,-1.599875418488657,0.33824899442667355,0.18945259484059435
4.533275036,-2.6853465091019406,-0.21132475118515112,3.0811535288576506,-1.3380056762053243,0.27656701959116986,0.19741112578401077
4.63322548,-2.5905088152707627,-0.5226489960251157,2.9479939756450144,-1.1040906189863071,0.2575433813311439,0.2066885758529275
4.733283729,-2.4190254044205513,-0.8002725869282382,2.8844287522161425,-0.8626484992749571,0.27189964941127315,0.21532920642206824
4.833282797,-2.2071626671280526,-0.9710724592919369,2.811273671179925,-0.6423577835190533,0.2893487419825716,0.2202543269073024
4.933226306,-2.0327936628249086,-1.1135310549147195,2.7692364880154923,-0.4055260047824553,0.34065185382554025,0.22228395839582565
5.033289311,-1.731362214188163,-1.1865846137930034,2.8232450237013325,-0.1798901975132288,0.38155438565774247,0.23689532388007428
5.133223873,-1.4496170866259743,-1.2157666203951702,2.8287316823244364,0.10030238623884476,0.4156502928304039,0.2319384679987675
5.233236791,-1.1544798358603399,-1.1642157303883833,2.8952996732552054,0.3637407462202401,0.4227760793034183,0.22137435815818343
5.33322541,-0.9141920587060466,-1.0517881860337621,2.9207268382152414,0.5569650064772851,0.43711717426981656,0.21180032585783543
5.433290391,-0.6916505287121196,-0.8837914568630293,2.9931008409744435,0.7860828194562541,0.4433623985901197,0.20888974850701106
5.533255571,-0.4924846042874858,-0.6794597218569889,3.0182217503716,1.049798772887278,0.40903687236681435,0.20563817517337402
5.633267174,-0.3498129334728498,-0.357006388837335,3.0983009191049975,1.247936014936182,0.4297421075667641,0.11679238536389638
5.733290055,-0.24012305810304735,-0.048280988310746856,3.2106487802851387,1.2538477663627288,0.5054626399407073,-0.018061602741162797
5.833225261,-0.14257825088973453,0.2308854559840079,3.3342326043282595,1.180198434284047,0.44655123198183033,-0.10073047993259568
5.933223835,0.014125785803783252,0.5571648976674316,3.369629481562572,1.0269671199122572,0.3910263144334432,-0.1438025912317921
6.03322775,0.19851992796091456,0.8330459674171893,3.3551130450930997,0.8841196493961648,0.37668626289937246,-0.15468468903892127
6.133222574,0.41345870313491456,1.0479100641406354,3.290488562010809,0.6457534961190061,0.38239529616471196,-0.16333850472639916
6.233222186,0.6920742165339467,1.252593721683309,3.254765834788384,0.45620299099615635,0.3794159645375367,-0.16040832309817682
6.333225727,1.007369773008063,1.382492271130429,3.2724489050317436,0.2572080812170185,0.3926775196051003,-0.15597193036551538
6.433279341,1.294147823576844,1.3537344731354612,3.1590360325565383,0.07344433126407598,0.36427642461227827,-0.16604479987526619
6.533276443,1.639694741087872,1.4109564269521855,3.075595354378304,-0.192517754761275,0.34505756328553083,-0.17095732812391978
6.63327751,1.9159329265696685,1.3320551656245367,3.0304894512608342,-0.387625943448553,0.34477089595628146,-0.18199145499660632
6.733328954,2.1774523084027546,1.1830715021650073,2.9629823037464087,-0.5880943416584657,0.3406118882333535,-0.19123751229043165
6.833226002,2.4269595267161024,1.0304292161121695,2.903549644645885,-0.7959598759584654,0.34029650428300456,-0.19582678742333356
6.933224732,2.596371429696125,0.7544561409489605,2.91010315407925,-1.0538356779745013,0.36436885093579513,-0.19996116056663396
7.033214105,2.7247426676623068,0.5587422816845444,2.854517334979227,-1.2464736767113422,0.36442688948611107,-0.2123529843531728
7.133285493,2.7567180187878235,0.2501280819492989,2.793103481686239,-1.4948145846430125,0.3733121875343172,-0.21570682550436787
7.233225566,2.736697349178731,-0.029835290360736653,2.8097989623580313,-1.7371077400449462,0.40278623819148346,-0.2148679726152225
7.333222602,2.710534012555315,-0.298978844493308,2.8282512902333115,-1.930638558076163,0.4105132635624163,-0.21956739506892387
7.433266586,2.5476018087950436,-0.5451914327265711,2.8462647505396648,-2.2181276635901974,0.4168368906814665,-0.22110482207115909
7.533279497,2.3709155653065768,-0.7139324493158286,2.8087073179807556,-2.441750955651133,0.4310191752943493,-0.2073909100701122
7.63324196,2.1227881012921306,-0.9381607163164029,2.868421024939326,-2.6672372119836374,0.42598528945865577,-0.21249038258354655
7.7333045160000005,1.8699083608868883,-1.0407184691927618,2.8929711276132517,-2.876743288632681,0.4122693957865803,-0.21094225848167536
7.833256061,1.610434831363422,-1.0952364365041116,2.8759314400076152,-3.141382683897505,0.41141854362649866,-0.20777770981151222
7.933255938,1.3095209159604824,-1.0520380037742683,2.845081796890422,-3.358097962994974,0.4140544527044378,-0.20269317641463447
8.033272854,1.0326775785164324,-0.9824484999188118,2.865158776209848,-3.549180850816437,0.37976760144872185,-0.19987371961902337
8.133231046,0.7371751655498481,-0.8081418131328171,2.8356530997611675,-3.8127983150642506,0.37276179720980535,-0.2006023725884635
8.233250108,0.5597636418936918,-0.6423503246757245,2.791717903982967,-4.039043839353759,0.38432369920360504,-0.21038362261518614
8.333221625,0.3916947692000763,-0.395856851484745,2.8460798185306087,-4.225629372176114,0.4204059755820937,-0.16000738162922287
8.433225206,0.2963374881891678,-0.15071483786544487,2.9822280815706246,-4.331490732034457,0.440557341569114,-0.06657815178733661
8.53329692,0.18404459809951607,0.1851115157084094,3.154506295216642,-4.385867596204024,0.46741556951399305,0.0436320903739226
8.633225528,0.06655204958470058,0.4587863429520357,3.2368300850473903,-4.311650282617139,0.387984544076665,0.11175356106119891
8.733280219000001,-0.09399379357337566,0.7184306222194539,3.2920969527095054,-4.230394545854232,0.40308742769478695,0.16115410822032128
8.833281083,-0.275600504465671,1.011370015274951,3.2832346465577333,-4.0238657235457636,0.307177836747263,0.18874144613054686
8.933227227,-0.4957107006422167,1.214742330653573,3.2197981737426224,-3.7408731550702283,0.30084398014238156,0.22512212825903888
9.033227338,-0.7769153707332159,1.4098400312457104,3.085317112192478,-3.46852532615965,0.3343348131367657,0.2087506898394969
9.133271582,-1.0689057086842157,1.5050108526931913,3.035513249816971,-3.2496202714320006,0.4005911605189397,0.19623424908733822
9.233279122,-1.3694191428565878,1.500355845534552,3.0958610011873393,-3.025679684761246,0.4425276107389214,0.18714906982935395
9.333224395,-1.623354493812217,1.4251227027838738,3.170236316052855,-2.8374530735863863,0.4500684783370942,0.18761542531341857
9.433285029,-1.9575090024553843,1.3255349308025128,3.229137566964081,-2.639292361404969,0.4367198227026183,0.18680186412162703
9.533219191,-2.2579033484327655,1.1831347507846575,3.231297803275426,-2.4408625553760763,0.3969269177859696,0.19027620420808877
9.633215119,-2.49406797101457,0.9158157181824375,3.2361126451304805,-2.1755910437779566,0.3650443385907967,0.18645976080955795
9.733254203,-2.6362794894146813,0.627781391017787,3.1687359587512347,-1.967733400011097,0.35180417421072724,0.1863622631706535
9.833250503,-2.7475745599822883,0.357206196297972,3.1163763889574114,-1.726896110356626,0.34581055520329024,0.18227297450764504
9.933249108,-2.7403226003950967,0.05663636161214462,3.123346022319032,-1.5394852176306473,0.3100416178536149,0.18167264908220981
10.033275119,-2.714387997314696,-0.23860357006087868,2.993577449121246,-1.3056894251816684,0.29457728439878755,0.1857165618262379
10.133263336,-2.6243071722814344,-0.5168401034398682,2.920289431646255,-1.1116917851490307,0.28365727547571323,0.19599537320194335
10.233226795,-2.4305293387347193,-0.7552921807915388,2.8959292505299303,-0.862860851057996,0.27676184434791845,0.20443124918005867
10.333259377,-2.215635297169019,-0.9779180985125043,2.80672461195286,-0.6021139550184402,0.3084131128167065,0.20819056376984663
10.433250373,-2.014667541928769,-1.1458835960814868,2.8155710321474587,-0.3831686649906745,0.33504727190767675,0.2196643807177378
10.533232614,-1.7562944572838717,-1.174807768979978,2.8479440842310417,-0.13179100248350406,0.36940079672197856,0.22219287881414226
10.633219621,-1.448779515559269,-1.212127955409493,2.8922811146625156,0.05613575277963127,0.408559623922308,0.22015957219342738
10.733222729,-1.191333918035404,-1.1425931213275657,2.915096616210237,0.28957923957494025,0.42257713879922615,0.22022155560404788
10.833265433,-0.8756287359826572,-1.0182758687410565,2.937238461308456,0.5696681362403084,0.4235761742853254,0.2052586152652018
10.933225468,-0.6660486869659935,-0.8195911072043263,2.9595067957725316,0.7965287959735946,0.42775737781468637,0.20698268046846824
11.03322953,-0.4942335152874072,-0.6057534459187657,3.060532384589422,0.9990451682841546,0.4116523183145071,0.20223459744372735
11.133278489,-0.3508222716579414,-0.30599534327826394,3.095976292752171,1.1955508052719865,0.4358258318139056,0.1056493828135537
11.233251305,-0.21361475870237479,-0.026267975894355648,3.2063539489681916,1.2512298607504206,0.46511606165572295,-0.012097845783378875
11.333220196,-0.15420405585754207,0.24117573783029883,3.3011057009284164,1.1528311457251774,0.4519874540585514,-0.09285231892144012
11.433273858,0.014069877589546972,0.5927545912140634,3.3787983518201767,1.04752450152328,0.3912286508421041,-0.13013444937090257
11.5332692,0.20729275249434492,0.8225865254130881,3.3606287051346637,0.8285102625003334,0.3628426486264747,-0.1549979241305278
11.633408259,0.41145515658954523,1.074458212524321,3.3325236214406653,0.6681464802647976,0.37879637330059585,-0.1619421443545321
11.733222783,0.7015835168220579,1.2812255640237935,3.239778259168044,0.41258196956169346,0.3692553219903998,-0.1585746131546777
11.833224426,1.0536262287200648,1.389564614527871,3.191208388660217,0.23446039461545742,0.37482243895008704,-0.16031220742404922
11.933279205,1.350216323041641,1.410591045199016,3.144422413200499,0.013629753721816067,0.3897823478201476,-0.16372266607056743
12.033293473,1.634093489086599,1.4025956514510218,3.082673085645331,-0.1639400895363305,0.35568172750845234,-0.16961765525569286
12.133320495,1.9569540554488245,1.304929776939407,3.0354178499495137,-0.37109236284325164,0.34358198451405486,-0.1757292740907237
12.233226816,2.227398961285768,1.2261689685605153,2.9649503549474128,-0.5931002112079173,0.3453803855267415,-0.1862014427690868
12.333252895,2.4712809117097456,1.0302579882164904,2.8867231907972113,-0.8029356925219188,0.34388131780591696,-0.1974191957283159
12.433265798,2.6180766080619646,0.8237487824031625,2.8693901113455333,-1.042899250065023,0.3519443241017445,-0.20611596301138088
12.533222078,2.708819657396833,0.5395518148166883,2.8576101606258884,-1.2773250818842865,0.37982191925600345,-0.20911459598980808
12.633273638,2.7355519234273817,0.2732107703606421,2.8203106014036967,-1.5340519431217723,0.39514410857091564,-0.21619030320865076
12.733226992,2.7978991164896834,-0.028113457241095995,2.7999474047992954,-1.7039572501972318,0.4022006888795233,-0.2137101004062988
12.833284218,2.7248132382503574,-0.31129440346712056,2.8042276968556004,-1.9737615247492166,0.4184759158814932,-0.22144206664614632
12.93326249,2.5810006916615125,-0.5535677952251116,2.831971963967455,-2.1965108035983953,0.4294164528604765,-0.22078982510059694
13.033262007,2.3545620740074282,-0.7610661842100734,2.8126006669144736,-2.4267124109745954,0.42473729285765904,-0.21627489553034626
13.133270505,2.1523810012045486,-0.9299721190426834,2.8275529250720948,-2.6728288681458414,0.4356076814207952,-0.20569733694134298
13.233222963,1.8632409440600703,-1.014722490870167,2.9062788404693323,-2.9013485287980734,0.4464767206418224,-0.20425559637076499
13.333227956,1.615064160985337,-1.073199132309955,2.955604514752012,-3.0973467047003354,0.4127194222805681,-0.1922052393080086
13.433283959,1.309063853349822,-1.046578726629868,2.8802894593486115,-3.308921014712896,0.37764916344228333,-0.20025592739785938
13.533291785,1.008710866307083,-0.9846062717555387,2.865420059667381,-3.5871396844735473,0.3746563573366506,-0.20107781545109443
13.63326705,0.7794719178251571,-0.8196086301683454,2.8742577318376212,-3.8005909458662797,0.3602748629627704,-0.20080937084863457
13.733226565,0.5960558483307413,-0.6235145602999537,2.8030292212309007,-4.005955305920924,0.3715830444349623,-0.19982001974752606
13.833273915,0.43041019578357503,-0.3596498493556908,2.8299779181780687,-4.234693559576416,0.3929733071481461,-0.1946609817967802
13.933299535,0.3323725111184658,-0.08121019348205474,2.9705886589646213,-4.422582581010316,0.45626251940814244,-0.06253861284996164
14.033225995,0.18291904944876752,0.14318500211370289,3.16026057695712,-4.397403092565427,0.4415268253812385,0.04633497597131432
14.133275036,0.0685465877023962,0.4795686809782247,3.2219982474904967,-4.334284390010269,0.40687772932575833,0.11548196164970448
14.233221772,-0.08546887281718475,0.7652410606012143,3.2291457753322916,-4.1863231382964425,0.33056661819232824,0.16492857985289108
14.333254123,-0.2611433177496781,1.0242639733901595,3.2776797998416813,-4.027356088559857,0.3066000373765393,0.19542304869079308
14.433279849,-0.4703590534733898,1.2249632593268287,3.2347776588661894,-3.79287210996276,0.32316527232237907,0.20836386297445206
14.533227187,-0.7833437772980764,1.4138578432402924,3.138568828168152,-3.5109078724742946,0.3380643761940148,0.2130849608904988
14.633284237,-1.0879195977295035,1.4951849200271188,3.0853682708817844,-3.2995120915701968,0.37802548592402935,0.20321630477420252
14.733226619,-1.372531650460382,1.5516837914870658,3.123967351119963,-3.074127173285232,0.4246277415617877,0.19113006966142412
14.833270065,-1.6924744883230567,1.466616070884383,3.1596074196180672,-2.869071920130207,0.43340263961701664,0.19260748853938134
14.933223695,-1.9821055308986275,1.3314444452711856,3.2222747891123444,-2.648072568511393,0.42004015100485864,0.19314359981597332
15.033220901,-2.2404394933267544,1.2035374937158365,3.2510391448547953,-2.4050216828381252,0.3855363937480729,0.19694759538251114
15.133222878,-2.4613108048082366,0.9500919041129784,3.2161191803365354,-2.2393510602613222,0.38463542016834695,0.1971118734751684
15.233220669,-2.6300523840892955,0.7006779273133027,3.2031337262529576,-1.9843519753675236,0.3454890509635936,0.19416242203686127
15.333224725,-2.7674989854930634,0.40218554467961937,3.154547039408447,-1.7368380095416531,0.326541781175772,0.1858167377421058
15.433220393,-2.80251572592286,0.05488623250202765,3.1210981483361677,-1.5353074892535787,0.32457480595974697,0.191886883404104
15.533277205000001,-2.744495998925387,-0.18061273290422034,3.0489238610101306,-1.3331972950740136,0.2888131369981822,0.19184104316935588
15.633311538000001,-2.6362067549983577,-0.5191484006939702,2.9398208076146783,-1.123524073816801,0.2744986918000457,0.20411168013900496
15.733221538,-2.498220641926855,-0.7699132159485919,2.9291302436598614,-0.8762997065924963,0.29153760042942334,0.2138146513934465
15.833223146,-2.342868867082151,-0.9385920208550972,2.8746529918933095,-0.6027606585538267,0.2940399514822438,0.2212631702150718
15.93322697,-2.067178074347763,-1.1201074128849255,2.8777619965894536,-0.4124545455266708,0.3318237798259076,0.23018609767807516
16.033230238,-1.773806582948012,-1.19521176232558,2.8253914698069282,-0.16889643301613316,0.37890684466893115,0.23431429517626862
16.133222503,-1.519005417940992,-1.2284474963774321,2.904277216561254,0.05697221697416539,0.40011517903806665,0.23445169060936893
16.23322323,-1.2223926242031637,-1.163355103941198,2.8814061994705065,0.3029225447648148,0.4077750206531478,0.22425458641893178
