time (sec),x position (m),y position (m),forward velocity (m/s),"heading angle (rad), from x-axis, positive is CCW",throttle (unitless; -1 to 1),steering angle (unitless; -1 to 1)
1.029358628,-2.7353186927637068,0.11192547457134519,3.196675891192939,-1.1605674399052681,0.4904395563588667,0.20898851184052533
1.129372217,-2.5843032253404865,-0.21538650594465383,3.2387347132685504,-0.8658687258178737,0.4783372270402821,0.21427974366099165
1.229352901,-2.3626869016166436,-0.44047634702398397,3.288067356529479,-0.6733691718323884,0.4357819975146455,0.21345154547360545
1.32936386,-2.0890577304417794,-0.6364092725406397,3.260012672882458,-0.38473491866020454,0.4184427356730301,0.21131870428567104
1.429356339,-1.7597974983004196,-0.747478144445933,3.185369415593862,-0.1557544715429697,0.4222328107440152,0.2139767297696394
1.529566515,-1.458746075900691,-0.7589073790537134,3.1990786804104783,0.04848053723182766,0.41002754736363894,0.20123578408746287
1.629352135,-1.1647139652707175,-0.7061343516208276,3.1594078067299667,0.30373473240527343,0.38618799214503685,0.1973951496518238
1.729384306,-0.8387465681197327,-0.6032638843467475,3.1919591946346113,0.5273459070044925,0.37124824743363505,0.20226166593836992
1.8293579000000002,-0.617011099227855,-0.49908499073505813,3.1213314719750755,0.7939852991832534,0.35346173125111763,0.19805892449410628
1.929369832,-0.34772052277095683,-0.21475465995868354,3.146392221986136,0.978046706169199,0.3863146868579786,0.16101570120569508
2.029502948,-0.22371952685968827,0.063242081763641,3.145149309708924,1.1698913697312403,0.4254957485453427,0.09630172333988322
2.129418697,-0.09435599820916415,0.34575620828697,3.3248101053295334,1.2047682618047508,0.49138890007117775,-0.025181828360840854
2.229360692,0.057585974759077854,0.6652683992985869,3.42527238822665,1.1582106636973128,0.4518413422543572,-0.10023665362760482
2.329356346,0.22470522267635884,1.0027981804426072,3.5072233915039255,0.9948794193758338,0.3999972509025386,-0.14731842430644787
2.42936486,0.4080910477808545,1.272615550013692,3.541426271206806,0.8522542285321603,0.38561283730583695,-0.17338562802795318
2.529410109,0.6571932587638799,1.4990420131197186,3.4968436095342232,0.6814196431973257,0.35079463643924075,-0.18803072743275082
2.6293503620000003,0.9676139166061271,1.7255526825491205,3.489800435646406,0.4141836415371361,0.35394511734848266,-0.19367427219733643
2.729436853,1.243741277028196,1.8299601656798912,3.419136754960726,0.19689423753545385,0.38748310286270743,-0.19421791675028732
2.82935396,1.624549087917287,1.8625446431329054,3.4061619070720157,-0.015651767988927735,0.38972560865570366,-0.19574887420686735
2.929445603,1.9077264022968412,1.86451746302434,3.353752007365913,-0.22419346736744034,0.40025823170034985,-0.2035954267349726
3.029354597,2.2217785758993362,1.740260034169326,3.4135301490061707,-0.4093401381861039,0.4331932894539476,-0.2114959066310017
3.12935317,2.550659211449919,1.6116461100800603,3.3476706838477375,-0.6411669469629695,0.44716875503246467,-0.2157949173275723
3.229358539,2.808441689021388,1.3496240059147637,3.3784305884754593,-0.9025915347161589,0.4519273307851958,-0.21404557331761304
3.329437015,3.02313672944381,1.0700546299575642,3.405267806432196,-1.1081230873397583,0.4491843376199001,-0.20047749668068776
3.429412272,3.1036484608170944,0.8022065229012378,3.409556467733973,-1.324762985684945,0.47779484794740135,-0.21574722221573683
3.529349093,3.212396567660333,0.4450619695108333,3.461598884298698,-1.4999915811275206,0.45733614353137664,-0.2126386743830534
3.62935436,3.1835333929373593,0.11584303931741728,3.4496538154651195,-1.7188404154187285,0.4607509564125817,-0.20918761874176664
3.7295131,3.0933693624146748,-0.2369907098813988,3.4406659147841805,-1.9361430725307591,0.45954033093994373,-0.21163040129895228
3.82937563,2.947854479183688,-0.5121430712252801,3.4256196073668206,-2.1185833171448905,0.43384939812871914,-0.2077805706125583
3.929350754,2.7498414984928323,-0.8028454891043264,3.466952777693219,-2.39421771981383,0.42351130401990594,-0.2063762974663137
4.02936008,2.4569460366487377,-1.035464360686543,3.465600283605029,-2.6262535626056094,0.43726469248000116,-0.2051218694928461
4.129361459,2.16298474597903,-1.1874591135277932,3.4663263519933065,-2.8198087950244095,0.4010057002895258,-0.19945056986493026
4.229354031,1.8278495288163918,-1.2851182508567311,3.4260444512839867,-3.057804921638088,0.37360059224980136,-0.20090306354025295
4.329382086,1.5136587197063909,-1.2631982912817719,3.4168826645070083,-3.226167730631833,0.36603930927049144,-0.20966431170915686
4.429354215,1.1711734417462962,-1.201375317091351,3.336210341452836,-3.4937566355767906,0.32757407632312746,-0.21069556362694344
4.529423738,0.8532378158674804,-1.1017452244660484,3.237940811688301,-3.69271679221899,0.32654172908377505,-0.21087074443560277
4.629460323,0.5898203733582883,-0.8901370572368111,3.190544348310005,-3.963359637562294,0.35223874346191014,-0.21420265164206284
4.729441642,0.39513292211579154,-0.6191910209316448,3.2710901842512983,-4.083610079478197,0.44050547559562336,-0.14785029785818346
4.829418191,0.2027849597594354,-0.3752985324827307,3.4250705335130767,-4.218113870727017,0.48567443225753665,-0.07924099849868295
4.929439201,0.03225629299010097,-0.05049878951323712,3.61467131897936,-4.253642233729386,0.509641555411652,0.008996031547126917
5.029359088,-0.1512437800195559,0.25296585637704927,3.726998747318814,-4.199770260764011,0.39378041002896824,0.05968492202153779
5.129350182,-0.31854859284461046,0.5358903675522756,3.727004638019399,-4.045239308924643,0.31784404390832033,0.093668758301508
5.229412442,-0.5789323041738681,0.817268571142871,3.697287214946798,-3.9618867832467553,0.2735064573625336,0.13458136165636717
5.329357003,-0.877474811650073,1.0472365358363382,3.63303256859534,-3.736309439251863,0.2112835997094682,0.1595693927062675
5.429360492,-1.1731278591439611,1.2661317465780668,3.4745945313973334,-3.4394341454639323,0.20060811693914302,0.15628126400953354
5.529357753,-1.4431824526317272,1.3603943595008623,3.327487352541781,-3.253024270212283,0.24146900997883108,0.15734979657769338
5.629421124,-1.823794703548501,1.381055219279525,3.1893247646284286,-3.051193695226644,0.27089352705781333,0.16291083722005942
5.729357693,-2.150086922301362,1.3178069267916652,3.113618031760757,-2.854711443788006,0.3170938560046826,0.16908996902055148
5.829378459,-2.393604874319043,1.207641099862304,3.1338628109044837,-2.652809588261958,0.37123288950171107,0.19238409964216518
5.9293723830000005,-2.7063512830409473,1.0304076420655355,3.119627972717221,-2.407538058437091,0.3555883076751166,0.1963676682081105
6.029365215,-2.8851172373786995,0.7820112929263338,3.1017143888976535,-2.172057334064814,0.3775724304483853,0.1926124162412037
6.12943161,-3.014952433786919,0.49328506284621465,3.090218554152981,-1.8980496502027047,0.4113838179077478,0.19769910986869685
6.229363787,-3.1246542583996515,0.258044162345485,3.136457837172006,-1.677805306162961,0.40607989823904145,0.19121782149935146
6.329363465,-3.114272709430978,-0.06184519896604559,3.145334611553497,-1.4470130373916679,0.42501961255906967,0.19940748725007904
6.42935879,-3.0476981866569504,-0.40126279414284033,3.167552304561851,-1.2871237827124837,0.46075815158248723,0.20455170287236082
6.529353794,-2.9150997687255606,-0.6609624583506404,3.181532633419909,-1.020042551329294,0.43195851590581463,0.20363408914447564
6.629366726,-2.738967413672674,-0.9429594923060605,3.1862879488194036,-0.755092837448486,0.423598912019495,0.21180339174330318
6.729357265,-2.5152780903389824,-1.1354854612516652,3.236714015090847,-0.5584357595987127,0.4944332631201253,0.21079037184884303
6.829363142,-2.2393940497115428,-1.3322791096448443,3.243935434652854,-0.34074898113380625,0.462181299219153,0.209311638198404
6.929404708,-1.9031200430268398,-1.3970838756485837,3.3017100331798024,-0.08485000512638219,0.4596823464301068,0.20596212322702898
7.029365783,-1.5631191633528736,-1.422594427234635,3.342961858564038,0.12808598021326367,0.47448058803878385,0.20541454529678854
7.12940652,-1.2367194685340777,-1.3657650149886948,3.347260647407098,0.34078036588495375,0.4277202054969475,0.1993925041282677
7.229353678,-0.9123179096716711,-1.188512874467371,3.2939222266146277,0.561106816271266,0.4053187682776976,0.199930239382549
7.329367447,-0.714382857174692,-1.0233563833145671,3.316880346081267,0.7883354797863766,0.4010452922909509,0.18586630898612505
7.429367061,-0.4724119678012598,-0.7663525159626687,3.2627571003257336,1.0121755437348394,0.40865819077459786,0.17418063444954954
7.529358704,-0.3104145066076878,-0.4574538914860283,3.3077076302985535,1.1855427772822908,0.47384062458063914,0.08623589743007413
7.629367857,-0.18317013683711092,-0.17361363967477403,3.455730660003297,1.2190534660599417,0.5097071400291213,-0.023634677310828394
7.729373737,-0.07007860151927497,0.19785567442752952,3.598386826640992,1.180305967383556,0.4957397107947215,-0.10125964797510674
7.82935771,0.09385287626473528,0.468585534718912,3.655620454423129,1.015829309745764,0.413797091149022,-0.14474345631674385
7.929380804,0.2956356344227316,0.8118643793687159,3.6428975707723574,0.8660825407445917,0.3663000313449383,-0.16693673289788774
8.029357418,0.5907022394793806,1.0559896231673997,3.6098814142009057,0.6735793919101589,0.3729274447690904,-0.17680469173781668
8.129368962,0.8620305522824125,1.2659319276562824,3.5268610453567035,0.45650050941439774,0.34894495184963753,-0.18373239352637383
8.229352379,1.2120200951205948,1.4091812494669627,3.502612497655425,0.21493555565315026,0.35183927695873246,-0.18563281895555142
8.32936647,1.5072228981065676,1.4814321412785827,3.3837734928749423,0.030421128886588485,0.36042098412469337,-0.1858406922688227
8.429374781,1.8394138915589198,1.4430795700648125,3.3676566276541005,-0.15371934538958182,0.36839581578363106,-0.1988846076666245
8.529364339,2.1620339154028216,1.3803954669677514,3.316321483822582,-0.3805378266664602,0.37603153683980944,-0.20571780648867022
8.629368901,2.41009509230409,1.2147692180403984,3.3100482044918436,-0.6313698038386596,0.40210738862533035,-0.21467843833955713
8.72936753,2.727128163060504,0.9940757982234382,3.2603316633674555,-0.8185578351496978,0.41428386207156026,-0.2102709080448547
8.829359627,2.881561050250301,0.7642109860505674,3.32079555244036,-1.074239480068285,0.4213787367545618,-0.21876751425172675
8.929358683,3.0381364978454766,0.45331440027696046,3.3135881685975193,-1.2668753488879143,0.4294624422231828,-0.22202521532798447
9.029359449,3.1058764036353406,0.08970080166005251,3.3083329822346044,-1.5257068652805592,0.45783696931467827,-0.22024513691742198
9.129360702,3.1136819001858114,-0.19809334671374793,3.359945633010096,-1.7325015096925143,0.44594274292763403,-0.21717904886274633
9.229361862,3.0107377144483882,-0.5140422631886169,3.32367748884376,-1.9788639196741984,0.44360514522289746,-0.21368074580844337
9.329372532,2.8921156616164847,-0.8394672350841607,3.3750325664076555,-2.187364261409287,0.47348699675374056,-0.21768970613685149
9.429362406,2.6616114345031465,-1.045371612177914,3.384966588137355,-2.426854134110564,0.4470385710616782,-0.200153453938316
9.529405013,2.4157980056694166,-1.2712107195437985,3.397318390206918,-2.603583550168116,0.4255687590144366,-0.2108381671051274
9.629375454,2.109265609705134,-1.3947165727845976,3.3766251326167915,-2.8561932437804747,0.436968676123184,-0.20906619983873642
9.729360848,1.743372527518818,-1.5427787727292979,3.366869655891215,-3.050170035924322,0.39000841126324237,-0.20677898552891474
9.82935263,1.4111783787918473,-1.5233016591730775,3.3368111413930315,-3.298424702627147,0.3751264761822957,-0.20889837566725208
9.929363787,1.0710064970257287,-1.469150369369079,3.3002711028441154,-3.516640087089215,0.3736790837679443,-0.20934734294091187
10.029370608,0.8216132793574726,-1.2846925253880552,3.2457910588128307,-3.735131251636108,0.38032476327542536,-0.20965413371783345
10.129365735,0.5179718887898281,-1.122105922988705,3.2396215888824575,-3.949667358777391,0.37803291055987415,-0.20875806847147693
10.229364595,0.3433703719646232,-0.8611525654130674,3.253654299670404,-4.1519799925803484,0.42574980849345645,-0.18763531093767882
10.329416182,0.14827737411002656,-0.5487222490213224,3.4299987598282318,-4.288173072049181,0.5314855054652271,-0.05880380658476364
10.429362237,0.016394289919694136,-0.21639864511347615,3.6820524550147082,-4.234568048223132,0.4917699494452281,0.018658812095003363
10.529353318,-0.13619247692799785,0.10103238217577651,3.78423686332085,-4.155757413935891,0.39675866598343246,0.06227540375917109
10.629505582,-0.33677489664122684,0.3922376175480104,3.8091279728284775,-4.082511019374628,0.32319706525104874,0.10274600834653094
10.729375147,-0.6013192526514908,0.6798518968899737,3.755350958818595,-3.928473157721225,0.24053183776116435,0.13326144661792133
10.829358949,-0.9038544467541971,0.9086333628723423,3.6113114913297775,-3.655112234041735,0.20300027860955125,0.15018618091460093
10.929367152,-1.2595261279300527,1.0922205153916378,3.495729565666933,-3.430188710648894,0.2086616258624583,0.1552395877299526
11.029358634,-1.5090974293068224,1.2100181698099468,3.290225325438807,-3.2287126250492015,0.2191714936482826,0.15675354969629704
11.129362673,-1.844094727226072,1.2291740206185144,3.1949894561766556,-3.0069047271802356,0.2652305484945009,0.15684259387109742
11.229359062,-2.167439481144644,1.1657098717319372,3.10821795673998,-2.7708494127392482,0.3250561941326039,0.1670158834439117
11.329352185,-2.4177261417193328,1.03794553534761,3.0265518881105455,-2.5990097283475886,0.3386390816463015,0.1726560640402694
11.429355333,-2.6748176618360304,0.843890413739453,3.0752027070080863,-2.354884004569095,0.3713350740023596,0.1791963788011456
11.529356405,-2.843062263587124,0.6471842606521037,3.073819398656955,-2.1700361593019992,0.3981104669985439,0.1946205716986139
11.629361633,-3.02850247395618,0.3829690916192009,3.0890128963076,-1.9219622510546897,0.3976759859694722,0.19708965763135922
11.72935769,-3.1221927824523035,0.06340697314190769,3.0656179219366515,-1.6722831868485892,0.39221866747955186,0.192488792025417
11.829418581,-3.063958004438973,-0.2331182819704357,3.1407735769382574,-1.422910566156254,0.4121991395898925,0.19879539051053496
11.929361364,-3.028132767675198,-0.518087769507436,3.0844628293701555,-1.197080223856906,0.40150958924465563,0.20046033230089863
12.02943764,-2.9396821343702477,-0.8101788476495311,3.0971153573455257,-1.0125590276262388,0.43250341431454975,0.20544475494697323
12.129396791,-2.7564942354765156,-1.0722183664120686,3.178408992414127,-0.7648859665004578,0.4635738331795652,0.20625095892925221
12.229366283,-2.441123278834742,-1.2969004883938193,3.2237506806403378,-0.5461392256357649,0.48515319730793427,0.21036562540528303
12.329358326,-2.215134750046178,-1.4074771145038802,3.2683725401094232,-0.3184182760367973,0.47386760473198664,0.2129211928941893
12.42941331,-1.8675427668226332,-1.5022566853087405,3.310200146891133,-0.08257303622440904,0.4572672638530133,0.20616739901184813
12.529361201,-1.5520068177653572,-1.5103039529915714,3.314568345143653,0.1302337045535183,0.4679293915964267,0.2021185439760069
12.629355848,-1.2169746219032485,-1.4177412064847654,3.3233837680603986,0.3303646855827491,0.43432259643955395,0.19594682618404904
12.729384579,-0.8680551974857349,-1.2885720583617652,3.327121448143712,0.6062150801711481,0.42258915310034295,0.18666804124888925
12.829365745,-0.6711884190137671,-1.0662293351727028,3.274580208645101,0.8423083508444282,0.42166819176888565,0.1851668647911714
12.929364139,-0.41793896000751046,-0.8154498829455461,3.2644487280361782,1.0615570659220679,0.42713406618765987,0.15835220859838722
13.029379794,-0.2779258922273511,-0.5110744310939671,3.3867145181174325,1.2158163667948114,0.47008176567487786,0.08189286204135438
13.129363227,-0.1942426048259794,-0.21597322323744386,3.4987367737196746,1.2109299380693945,0.5112864762714566,-0.02608423817485348
13.229368959,-0.04499084708633121,0.1594394936296322,3.6338290624128495,1.2435360980750225,0.4804713870773852,-0.10389011531352169
13.329359268,0.11913804982908995,0.44678407657161784,3.679010218370294,1.0761827916378388,0.40625470439857314,-0.15551203662499524
13.429372878,0.30436141951839285,0.773528303216298,3.661092324201251,0.8909275452175931,0.36734935085814424,-0.1728722472906115
13.529367647,0.5175589530993393,1.0851474254386717,3.5720073221546103,0.6813445979717448,0.3525990026925072,-0.17766630675673062
13.629364641,0.7920589445050921,1.2349879714150511,3.5771816730870483,0.4735557960749718,0.34214060587774886,-0.18343391770361167
13.729359119,1.145827911660693,1.4323542145144497,3.465627214561426,0.21370676259112933,0.34459494094226145,-0.20259097994307765
13.829357909,1.499898304960546,1.4607327897699425,3.387811110385521,0.00942242040377873,0.36323923951303766,-0.19647189163109494
13.929354789,1.8517045768975995,1.4796349297362525,3.3725638175127206,-0.20780826605101607,0.3711564146389434,-0.19948902224862647
14.029403234,2.1695368693601855,1.3531059084831494,3.326468912098954,-0.42080856285414703,0.39333701011763145,-0.20142559420491812
14.129359725,2.3972678843850606,1.2654210831631367,3.304991587226999,-0.622925020347837,0.4179914442802371,-0.21077060054560107
14.229354202,2.6674673976460306,0.9940013691516915,3.315894540674054,-0.812840097680313,0.421390581456545,-0.2162518153078674
14.329351525,2.8942552703263926,0.7706293980630566,3.3119405634327315,-1.0597358190842339,0.44298422595824855,-0.21522525257649436
14.429361872,3.033064323569449,0.46106790426207545,3.323903617139206,-1.313904868105823,0.45787001952755435,-0.2258362972727172
14.529372396,3.0654470497292294,0.10329536954595639,3.330230724032235,-1.4742697254095525,0.4327957543495524,-0.2235722111789435
14.629360137,3.031654767211011,-0.20337363001914616,3.360439676512026,-1.7348852872193121,0.4402772022036531,-0.2172789169726472
14.729367183,3.009062371640278,-0.511276228388546,3.3451199788168906,-1.9496347982430982,0.4505865248310728,-0.20971675936173995
14.829365624,2.862573564725898,-0.8144904697868153,3.3466537885802574,-2.1383386979863976,0.4438264405000464,-0.21924655623618514
14.929366049,2.6641531410796535,-1.0404084585254565,3.379659693504004,-2.4108721289129025,0.4316900800683596,-0.20172412834101278
15.029366411,2.3820567325982824,-1.2799046838182646,3.343028475349061,-2.6183651786865623,0.4479909194942776,-0.21259349993098486
15.129358264,2.050508400660996,-1.408333949720623,3.3762875314982046,-2.8498452002912007,0.41747585214329475,-0.21569929559472234
15.229366257,1.7366428786647714,-1.496481464610208,3.361435656748242,-3.065892610847872,0.3848926406342173,-0.21368809332197347
15.329366571,1.4293374911081205,-1.564640806948094,3.334038515177915,-3.27322105257053,0.378214511754391,-0.20980832922200165
15.429365335,1.0925330234922244,-1.4062586251443203,3.261338807001938,-3.5052513320222083,0.37989166832609367,-0.2061058460343769
15.529423132,0.7680018324642006,-1.3002507963815653,3.2240021964239567,-3.7185887124585384,0.37092557958518035,-0.20783839190317707
15.62936168,0.5828336400226272,-1.1062763591339906,3.19536562548307,-3.966968488656507,0.4006439936462035,-0.20333389303973334
15.729365933,0.3236773484944773,-0.8425336226121936,3.287422356261686,-4.148528043258862,0.44425040732792065,-0.17676538439199457
15.829343945,0.10632496599673638,-0.5771845390492684,3.4379551910716257,-4.292380924084127,0.5080115115609918,-0.06969709071864735
15.929414701,0.02757943923460629,-0.22420125088492218,3.620881311062431,-4.2948677896215415,0.4809499679678741,0.01902232353027333
16.029360418,-0.14889047845109224,0.08037650473957633,3.7368094734968658,-4.226539175907875,0.42245981609635885,0.07411879187842342
16.129363518,-0.3413565445146562,0.4367577065472832,3.77554807790871,-4.1420429547109,0.31694545370701815,0.10560326457669028
16.229354700000002,-0.5954170113054232,0.7430230521812473,3.7152060872363397,-3.9304205821626437,0.246624848804824,0.14091856756192706
