time (sec),x position (m),y position (m),forward velocity (m/s),"heading angle (rad), from x-axis, positive is CCW",throttle (unitless; -1 to 1),steering angle (unitless; -1 to 1)
1.024917349,1.1017132640202547,0.9277379060742114,2.6450678539801764,-0.11038830697818028,0.4873377567003114,-0.24839508968399873
1.124914719,1.3301694588140593,0.8741640601058555,2.7205475471702654,-0.3759529779361907,0.44517993126517874,-0.2369352443137456
1.224924049,1.5819068071227407,0.745523946893587,2.802788109808648,-0.5253631764627035,0.38829000155753757,-0.21449901641881317
1.324979998,1.8019761370970615,0.5777295805315766,2.814531989136879,-0.7431317382770469,0.3481333604468684,-0.2181464658121069
1.424914861,1.9817196149040854,0.3363604628496419,2.8608727444804174,-0.9827474642530769,0.31820888288238747,-0.23491133654323465
1.5249135310000002,2.1140792340799734,0.09614794428591462,2.7961952943156865,-1.2135635212205729,0.2916780506445651,-0.23643661481428133
1.6249184040000002,2.1466499495065636,-0.1856524221815966,2.734611815968317,-1.447728895775599,0.2910000418301033,-0.23674144647719844
1.7249161480000001,2.138320500702532,-0.46942684386205497,2.6908901804312384,-1.7022512217645507,0.2897671332618845,-0.24812030212998762
1.8249148160000002,2.1735236360333476,-0.7153156300794373,2.6448926333972813,-1.9579784584346291,0.285436427956887,-0.24848910063263932
1.92491748,1.971934126439827,-0.9127299724483012,2.647250567098449,-2.141596864359187,0.29883431629730317,-0.2508267320529497
2.024917729,1.7823958527677763,-1.1561945377082696,2.6265641705347202,-2.4084399676828205,0.32276815722943103,-0.25979843168928035
2.124916045,1.5792339731501583,-1.3218994074520154,2.6383195091230527,-2.621509454934707,0.3189097525177068,-0.2632415034933234
2.224920549,1.349199362037651,-1.3966005727232418,2.671556422618692,-2.8379393866312665,0.3260433339201635,-0.2590722417874977
2.324933097,1.0811687312325964,-1.4595429684799113,2.65658060857932,-3.1087983487092057,0.3627768589944755,-0.2753669103711372
2.424914935,0.7921125586161611,-1.4218570396021393,2.6476107170412035,-3.3623258245263896,0.35817922107815403,-0.2617549198464065
2.524915966,0.556070241384804,-1.2945911124537273,2.656817111155419,-3.5903331300194137,0.3761408925334351,-0.2553696653213153
2.624919081,0.3019702640291184,-1.1305264002198323,2.736469757329121,-3.8514785112428367,0.40544423583564226,-0.25140671398815506
2.724926552,0.16316160054223092,-0.9720057885060341,2.715600666263634,-4.000780485703766,0.3952264372973602,-0.24324257162252216
2.824922166,0.02160379342483622,-0.7092565931670578,2.823468493888735,-4.255935045435168,0.4115228021691591,-0.18816116437854982
2.924916318,-0.06514743335183137,-0.46773760524233793,2.950167736136571,-4.376075774148174,0.3926624840642605,-0.08358435948660468
3.024930914,-0.18860701812670816,-0.1525297752303498,3.0727193607336614,-4.389056880627666,0.3482027920759897,0.030293159540544377
3.124918263,-0.292446755850565,0.1476543464690951,3.167494228771915,-4.313604767893683,0.2911803854600845,0.10370038221634365
3.224992035,-0.44228237267765125,0.41162361044236273,3.1323077580194365,-4.196185048978672,0.2794727011604127,0.17085892503875352
3.32491431,-0.5956623177500915,0.699796327733826,3.065892630587224,-4.022304362548616,0.2431805763357729,0.20234172439993547
3.424935166,-0.8401721044273947,0.8693434752278827,3.0290861193440883,-3.8318740672749714,0.2369358541073017,0.22686652998520315
3.524918243,-0.9986388039472032,1.0521949378111373,2.9122306660718515,-3.552158593159792,0.2792271188237591,0.2400332759232244
3.6249169290000003,-1.2979385422452931,1.130382677385542,2.8377968332797177,-3.355514250123991,0.27357629242223075,0.2526026618905284
3.72491675,-1.6555410292151693,1.1826111686686385,2.827345887402584,-3.1718356641757057,0.3065100662566115,0.23677100120127823
3.824920936,-1.9026642253534336,1.1955930840239057,2.7713369044795004,-2.9269766434788753,0.3243551935534359,0.23702337572660526
3.924918072,-2.1520148370381627,1.071397534924281,2.771257837072831,-2.6792471729446543,0.33188551200050453,0.24537739218762744
4.024917056,-2.374809298751047,0.9006390582740107,2.8056025682873402,-2.4709511011239846,0.33160850282674503,0.2419413287374051
4.124917825,-2.5783272786176306,0.7178785128122864,2.805478766662843,-2.23752582008424,0.35368768216818675,0.24368894564652696
4.224918912,-2.7162746597866443,0.5048898994958306,2.8143224024659106,-2.0158095264845834,0.33912024862258744,0.2478443998676615
4.324916964,-2.7963293124380497,0.24454271931645805,2.794719841467076,-1.8136731502231083,0.3455637572205622,0.2639173240861026
4.424918809,-2.8284738076524714,-0.0561527571772559,2.8408347690865576,-1.565119142338576,0.35561604860359985,0.2510330470077337
4.524915937,-2.8116994992861875,-0.33551344279744644,2.816220745218903,-1.3303649483399893,0.3669666473367048,0.2568951376959205
4.62491435,-2.729421307932782,-0.6315218069001521,2.8166663462728496,-1.1131545858548828,0.36501538930941924,0.25372798811791303
4.72491831,-2.5837733455855836,-0.858296108087281,2.8049585236273242,-0.8736320949559373,0.3652248588360618,0.2498707148641046
4.824917597,-2.4159729104956735,-1.0158048479856447,2.858259901329099,-0.6431101721116342,0.3782166766569954,0.25244509209652044
4.924916886,-2.140617912194238,-1.1998003840691103,2.8121676005196807,-0.43304099284783487,0.3594762632403069,0.25367822123245604
5.024918613,-1.8441373558368803,-1.2777689099464455,2.8838636459320455,-0.20952466349793195,0.39722802027001664,0.2571697578965943
5.124918327,-1.588269563889286,-1.320244178772244,2.8720107213195782,0.015013462889186,0.3516727889095313,0.25060880776485084
5.224916149,-1.3039572864188174,-1.280804395885616,2.8568588594048667,0.2529467479723214,0.341720476867827,0.26453395946098945
5.324941029,-1.0797972025961369,-1.181887757216469,2.8480080295101406,0.4764098193517553,0.3733371034214187,0.25852123505337365
5.4249200890000004,-0.8157651771479298,-1.0354685497110052,2.85738912157826,0.6996936791657771,0.355871022236049,0.2457779803751957
5.524916447,-0.5955347371801151,-0.7800984995082303,2.796066130514224,0.9131785581483415,0.35480541485199985,0.2541659834866381
5.624919987,-0.46781339635536634,-0.5603532583051309,2.898985223633926,1.1243703381462296,0.38185043440046923,0.23142553576801705
5.724967201,-0.3837432158309756,-0.3369694854861172,2.92347810948624,1.3169342239678217,0.39148278667368885,0.06311928110452682
5.824931319,-0.23795649032377147,-0.06483849367589944,3.033377294385036,1.2516449584591636,0.3900143947693368,-0.1074822621921315
5.924916071,-0.17333712626942654,0.2614278611797394,3.073056866590905,1.1474447389557478,0.36788691578205,-0.1572446660682719
6.02497046,-0.022075844450296544,0.5200552408021508,3.1072469461765424,0.9838003573820637,0.3138925979158502,-0.17826511040855839
6.124927307,0.23159666511838828,0.7872268064920477,3.0307801770916574,0.7600724081664134,0.30430601916183014,-0.24212150285383852
6.224916148,0.4452942472690597,0.9319895374227201,2.9496012367066924,0.49352879730268034,0.3247215336464406,-0.23050310537526392
6.324994082,0.7112564658119118,1.0752729516809802,2.9389467409985426,0.2690879225721423,0.3536057403701455,-0.22086457747552202
6.424935529,0.9609133030857634,1.0763509279827201,2.9429962810931043,0.06384788771992687,0.34771318544204377,-0.21018331558763892
6.524943506,1.2810197885988435,1.0741213708035628,2.939482631199308,-0.15180251064309538,0.3490871511460898,-0.20456915275876902
6.624916937,1.5688142649667518,1.0163102054153983,2.9384491752543154,-0.36902958002251046,0.3391603930793913,-0.2194747025831101
6.724919079,1.8278064386034025,0.9136060429883038,2.90729525985911,-0.5827881237114958,0.32664832786767045,-0.19257371933537754
6.824917114,2.054260196795476,0.6541985497995354,2.9044204915051974,-0.7764244021659482,0.31579436361970403,-0.22784210716089404
6.924915578,2.2406757466228915,0.4900008310695522,2.8267092940925798,-1.0787470706647055,0.2935692696734946,-0.23776572416405123
7.024919295,2.347055637320296,0.19369547857252364,2.829537100306588,-1.266916208379792,0.2872971519813604,-0.23983573598089888
7.124916832,2.4075006972215363,-0.056380300370368897,2.8106388657679577,-1.4817127454255845,0.316053710964714,-0.23465234029907964
7.224921674,2.3694884109019694,-0.3229570524572307,2.739399560035349,-1.7520174186745792,0.3053651151295678,-0.23345261993138622
7.324918744,2.2967647751820697,-0.5989813332172822,2.7464032701107675,-1.9494626314470014,0.30445679794015273,-0.23976590668257858
7.424917647,2.146471794832913,-0.8418224102671624,2.7031563405477717,-2.174357868807869,0.3226470562444404,-0.23085467042431138
7.524932046,1.9736794974467347,-1.0555920374233672,2.7184610384437153,-2.450225749386922,0.3284062441211778,-0.24014444911962834
7.624999731,1.7558637576118081,-1.2402307370905177,2.7146687563969443,-2.642792866763118,0.3224421287384978,-0.2460504965986867
7.725001806,1.5168321560148352,-1.260841780192155,2.732118679832879,-2.847797057099134,0.3278126026077346,-0.24318262921022352
7.824921663,1.29469452463133,-1.3079797759016958,2.7188237806688327,-3.0789914371064326,0.3589574696835272,-0.2479671194107379
7.924914345,0.9653731770490301,-1.2702364948537868,2.7542706984187175,-3.3777313421319497,0.3371511640005944,-0.2529899672862373
8.024929342,0.7353938512377298,-1.210646893393318,2.7134657024401294,-3.6137899471825583,0.3498924911717244,-0.2399023821785007
8.124962443,0.4637463915220926,-1.0737037075791651,2.7128873405517173,-3.8400680189208973,0.37073632832232084,-0.23528198376661327
8.224917149,0.298603144853855,-0.8242846972796862,2.785132539965762,-4.063217945978508,0.3721313380913069,-0.23469355162682126
8.324914697,0.13780787523682883,-0.6381275876493226,2.82555400233481,-4.313933625959166,0.38803994207562803,-0.1765830801676188
8.424982140000001,0.051300613557705634,-0.36202191554735175,2.9182558985775215,-4.418799163600217,0.3786426828406941,-0.0791791698351727
8.524917377,-0.026354992330782742,-0.03831158697821079,3.0380831838874016,-4.379149788564575,0.35066708760401455,0.03565593087997876
8.624937905,-0.1579058517907794,0.23924667606380884,3.098372234544629,-4.3677951761491425,0.28782235375031423,0.11374568948653714
8.72491647,-0.24873128472190348,0.5298402882963723,3.0703747558889884,-4.205666517315418,0.2802268936137723,0.16641483944240298
8.824921585,-0.43017337971649017,0.7645898409557286,3.075515891675346,-4.019765983984009,0.2591720945718758,0.21000433821804543
8.924928761,-0.6478284177615803,1.0022963396566107,3.0423176933357317,-3.7776635543238717,0.2544274493140445,0.22967408824019958
9.024915325,-0.9318939670270446,1.1706022135746754,2.9582095525650534,-3.5684468150483952,0.27163572948050874,0.23252522057115366
9.12493167,-1.1800758060736216,1.258522910889341,2.9194640196141397,-3.3150296572410105,0.31136732723201144,0.2266302892221428
9.224916253,-1.4895877941648767,1.2623895015954971,2.8613114411874685,-3.1081206779379276,0.32535567159899287,0.22779282161383216
9.324918253,-1.7655501982862771,1.2828138818331707,2.8791413793898175,-2.9028083729094,0.33247906720270437,0.23279027563388963
9.424918793,-1.9974883779514137,1.1292674926516761,2.8144924049981044,-2.652741374453762,0.3419432335435692,0.24594119085113664
9.524917555,-2.3051951513757936,1.0277680766106816,2.8601466491437044,-2.456466633962581,0.33673935847873726,0.24541581740084942
9.624933491,-2.500167568010145,0.7772578676214024,2.865936470943626,-2.2207109681503194,0.3415590499573924,0.24047884501907174
9.724918224,-2.664363846918245,0.5443731666364672,2.832162031259151,-2.007346936731937,0.3568733321526039,0.2531990240476148
9.824929916,-2.7381150208925513,0.2860016140351014,2.8576766104990883,-1.8118438988691585,0.3436224398076175,0.25360418615267877
9.924916296,-2.776600883599392,0.008291032822326594,2.8196772434696524,-1.5738369868494009,0.3446320339626783,0.2568657833252315
10.024924494,-2.746943740833367,-0.2978738441259821,2.8350576455743433,-1.2893084340848937,0.36311164528049156,0.2685116217540612
10.124917372,-2.6270843090099265,-0.545071512524719,2.8185720060989543,-1.122549674808742,0.3611862046074207,0.2571543220122133
10.224916708,-2.518064075269768,-0.7705746640079911,2.760128713542231,-0.8765412498913882,0.36567136133371353,0.2496555481957439
10.324915725,-2.2901250025028643,-0.9428477112213514,2.796692848805732,-0.673997747328303,0.3650159421217603,0.2443001009703307
10.424915727,-2.078949169241552,-1.0669106525371235,2.7966249741492346,-0.449593907900257,0.3597616103086888,0.25618716445729334
10.524913852000001,-1.8213240233530328,-1.2094350713695876,2.8401256752096407,-0.2401996870823683,0.34947673050813444,0.2571722313444273
10.624914799,-1.5442134837804482,-1.247618067406249,2.8141863252551724,-0.02041274037354593,0.3557562557660244,0.2620515553033917
10.724914669,-1.229013001882351,-1.233091346058163,2.784781602535696,0.23196255996833326,0.35756095871521487,0.26254338748693684
10.824985513,-0.9735892951205654,-1.1661216777662509,2.807400384368916,0.43118407547846627,0.3541907811157556,0.2506316597194722
10.924933867,-0.7879840643323281,-0.9856213398688777,2.811872983338794,0.679731339188374,0.36406271069768353,0.25210185485928427
11.024921882,-0.5493371687709829,-0.7969865312728323,2.825429416571365,0.933654162062756,0.36457580774860926,0.2547423348583795
11.124916839,-0.3930456243917968,-0.513104871248688,2.853944946304339,1.1291828225564033,0.3859542845162456,0.16062639850429902
11.22491949,-0.3067438310198612,-0.27832425735137883,2.941432249585529,1.184966965975529,0.3952719281504532,0.025643729593603767
11.3249168,-0.18972889440657714,-0.0033960755276859524,2.98076407940811,1.1787794652994363,0.3804288128741326,-0.06908142341536808
11.424916364,-0.013880220828182743,0.3057956534000362,3.1160127058846907,1.0858702756553222,0.32139515747696995,-0.13407428856683581
11.524914981,0.10157110237750017,0.5592765466994843,3.086181442261466,0.8831570911464308,0.30505072211394224,-0.18319423088957004
11.624918415,0.34637933435045715,0.775302019589131,3.037168499690057,0.6651437914877897,0.3131583817825024,-0.2023360692556824
11.724924906,0.5664527857516459,0.898463531848188,3.0117067027007574,0.47948021534665103,0.3021408533895112,-0.20374497636507044
11.82491535,0.8502417129355139,1.034459366729898,2.952245155267284,0.2522299591894536,0.31592290270723455,-0.1999960025619063
11.924919417,1.191538392146993,1.0724537141854704,2.9183667624042116,0.03383341131019222,0.32141020837306383,-0.20580656709781614
12.024915984,1.4491121428370195,1.0726235632169394,2.9035218991403937,-0.1637580739106494,0.32190336938610953,-0.20646673371327817
12.124914848,1.7375019225288684,0.9730426147095809,2.8608449499581785,-0.4124388598524669,0.31382568173036196,-0.20488139979334719
12.22491933,2.007791616356903,0.8493942891719208,2.8354974296358795,-0.6227329711193488,0.31105775914219136,-0.21345161635818238
12.324980002,2.167262384730287,0.6346747452152101,2.849138096426069,-0.8656594403576078,0.30442278853369265,-0.22180261970132545
12.424917399,2.32631546858005,0.40130199025848795,2.8230349903284764,-1.1322863479378154,0.29782727865281644,-0.2221951966314699
12.524919251,2.465481999152506,0.10635998018597811,2.751459625436741,-1.319036463356403,0.30947127873700553,-0.2145887224096158
12.624915566,2.502181750278389,-0.1635692705975679,2.7856698916557416,-1.5513275680851817,0.31162985533198073,-0.22507336641971384
12.7249138,2.4321456472238885,-0.3956036825523052,2.784771401484472,-1.7915473923367768,0.30010731997465656,-0.22051312474396242
12.824917581,2.383707431725471,-0.647939405778687,2.753379899292322,-2.015673744292542,0.31149032354757344,-0.22297223139585068
12.924925948,2.2545078022736282,-0.904011944891981,2.729575835811992,-2.2246029834715055,0.323920010236728,-0.22934237733404242
13.024919261,2.059968528091598,-1.0468799975990828,2.7445890596601203,-2.4343547123449905,0.31771563799415264,-0.2261655878257121
13.124913136,1.7925404108517187,-1.2112216236757556,2.7424134458564726,-2.6556813034276985,0.3593604670751333,-0.24545740696545745
13.224915467,1.5717346990917613,-1.3139061915392622,2.726221296861152,-2.9436266341009865,0.33395261458856607,-0.2361639554417131
13.32491589,1.2909431879920936,-1.3603297392990916,2.729234015938745,-3.1513178502570387,0.3363353578840692,-0.2303543078768829
13.424918419,1.0326688195613534,-1.2946138204679418,2.7659907518420006,-3.370957304040063,0.36600499029791544,-0.23398588016314414
13.524942946,0.7686374447111282,-1.2402809790741016,2.742336179814252,-3.6246031729660753,0.3491717009369013,-0.2393557317975384
13.624917994,0.5212379068179701,-1.066330795632096,2.7733463248525325,-3.8247657202889362,0.359656809029921,-0.23581513300953422
13.72493947,0.36062674329328526,-0.9011151447665255,2.720562883808573,-4.097355701169644,0.3920483227397067,-0.23151538273068822
13.824922355,0.1577596149358339,-0.61642098115974,2.832722898724285,-4.30114920895121,0.3808146160950868,-0.18386076917286484
13.924946156,0.07863326395175912,-0.3700163813358892,2.9407270728725505,-4.432119038532729,0.3741103685533364,-0.07683470894630463
14.024932212,0.029846900728161953,-0.09500765816112888,3.0951488800665787,-4.429675026367489,0.37456203003831956,0.05664028350502119
14.125015812000001,-0.06772929073835793,0.2254632840971753,3.1030706512647193,-4.334358281063194,0.3055046110131754,0.13248394888410092
14.22492534,-0.2930554712628129,0.5241027223381864,3.0988303396614647,-4.180661813718812,0.27055172884463974,0.18284255857904608
14.324918601,-0.395095788313901,0.7892257017565858,3.043024959997071,-4.003381027992886,0.2618381869557882,0.21642162377675347
14.424927704,-0.6261202440227236,0.9926485551517138,3.0070404497579464,-3.7907052415572733,0.2731372800336236,0.23370835358342645
14.524914539000001,-0.7988405971405488,1.1592199684280566,2.9561590241797067,-3.564183971247786,0.2775931164296104,0.23265984110667345
14.624921239,-1.1263050678483018,1.2240361400572473,2.8985529905773357,-3.3338787636357825,0.3417071574770682,0.23761876610441648
14.725005778,-1.3616518989037945,1.278779365297149,2.8809267262093825,-3.1279269358609705,0.3325469791565705,0.23323905285030047
14.824913556,-1.6830631614398197,1.2248083497669704,2.90662350618935,-2.9107088845838374,0.33393403125044707,0.2381386563196724
14.924928948,-1.8971651312723294,1.1745400544472635,2.8682460648035297,-2.6762204508523633,0.33990051052992976,0.23813558355188247
15.024918107,-2.204944834874772,1.030865802677111,2.833979888085821,-2.4896464630229036,0.33713143164869763,0.24469297515926086
15.12492808,-2.3977104015602344,0.7821703807342526,2.831001033198024,-2.240581348690258,0.33747747112503185,0.23905140005467584
15.22493587,-2.567489550135001,0.5549481899527828,2.8201061576949833,-2.0366866033853657,0.34103900383103625,0.2457019701274467
15.324916396,-2.6394061282860966,0.29524408811885583,2.8609810866083616,-1.801508485536701,0.3460980382439588,0.2536770610132279
15.424914446,-2.683352989660449,-0.005181016253333337,2.8778026580412583,-1.5930213698104194,0.32697422586185576,0.2531306249686788
15.524918769,-2.675293334317405,-0.23333566731416316,2.8220993327916957,-1.3713232958212491,0.3364654844683473,0.25559033391730623
15.624930468,-2.591408185682579,-0.5186914675105789,2.8193787930092706,-1.0848646652445892,0.3544974053108828,0.25676061063369277
15.724913761,-2.412611325252037,-0.7705236777616755,2.8322275293232413,-0.8800980988976411,0.3494796395649511,0.2513916094054698
15.824914842,-2.2641414794535946,-0.9455957355077569,2.794631327171653,-0.6418900997334953,0.35399198703822254,0.24868646574601375
15.924917006,-2.0489347336071817,-1.1239468655910296,2.80351366840382,-0.4307591039073546,0.36746384946573835,0.256583969786385
16.024916491,-1.749977128332722,-1.222780657104595,2.836241615994956,-0.1953596479173942,0.3459693099489819,0.2541665336560464
16.124920428,-1.4787215946848467,-1.2614742113999124,2.7742657282922067,-0.02957289184191094,0.34536290907682876,0.2609456720571447
16.225020798,-1.1995737414081382,-1.227647405714526,2.8184522635408777,0.2769722504310735,0.3598067883835753,0.26394217754527804
