time (sec),x position (m),y position (m),forward velocity (m/s),"heading angle (rad), from x-axis, positive is CCW",throttle (unitless; -1 to 1),steering angle (unitless; -1 to 1)
1.030492233,1.513454651833678,-1.3736599703126489,3.013346058045508,-3.0541810973611176,0.3511450796929546,-0.2560496963059985
1.13048792,1.231776365288192,-1.361710269795738,2.9747071396642255,-3.2418487945407968,0.3944249646547914,-0.26076126446407116
1.2305854680000001,0.9431963817070935,-1.3138686260890267,2.976047998251383,-3.501820210661091,0.4437304390912243,-0.26466412600945355
1.330487113,0.679855873454165,-1.149392880406553,3.0096404352298873,-3.7388613674298115,0.47887393493657243,-0.24992239324059423
1.430488032,0.4498849888163803,-1.0039054642483607,3.0496323646053116,-3.979290586029423,0.51878078428365,-0.24143466511696254
1.53049425,0.19910027901298066,-0.7170765389185348,3.163793817608198,-4.200861107518675,0.5611504801485232,-0.1805143809750793
1.630509154,0.09579941596464253,-0.4440773229756399,3.3165964285143956,-4.300583155229017,0.5528189216567104,-0.08126798302064224
1.730500143,-0.01764144802339776,-0.15009089717883448,3.5209082317871165,-4.287693839801118,0.4929449332929585,0.013272145396123007
1.83048757,-0.20817978701602263,0.21279324162938915,3.6911666454579524,-4.238938368844603,0.412076788723777,0.0669582246629352
1.930501304,-0.4025055127534157,0.4946101032809797,3.679156843945859,-4.110758963480297,0.3229805833502228,0.11197782466172285
2.030512789,-0.5714092772628699,0.8285301150379734,3.6784942010800035,-3.9744889810298853,0.2625394466908749,0.14353779116475743
2.130487968,-0.8237404368962354,1.084254978549416,3.5304545817347552,-3.7573261763966777,0.2438393524387786,0.16788669250207328
2.230485829,-1.193027062841836,1.264565898992967,3.397082294718518,-3.523069704657945,0.21342035461029737,0.17576156351306166
2.330487703,-1.4253131185990273,1.4229569692112807,3.311157656693732,-3.331065102010701,0.22853715550171386,0.18168018300158986
2.43048883,-1.7656130136800392,1.3976172641272602,3.182303004885475,-3.0958771931346165,0.26786176999113953,0.18940340368570843
2.530574128,-2.0832801568478305,1.3995512884329218,3.086199728037945,-2.879935480443035,0.291037369193993,0.1985628533314505
2.630545692,-2.3818577442098343,1.2619029775160204,3.010190751664718,-2.6821601294530057,0.32706005069566185,0.20676271177067848
2.730508075,-2.638374314112506,1.1390376027827012,3.0352685642072563,-2.4907307842994153,0.37262379257082073,0.21870327539357623
2.830522121,-2.8684006499411905,0.9392654866727143,3.00272446820996,-2.232440487798651,0.37676907289204264,0.2253074776277572
2.930486494,-3.019157514199852,0.7089910364696523,3.0170064793446207,-1.992687759441942,0.3962136141606477,0.23402125276318933
3.030488354,-3.0762157517636304,0.408755308400273,2.9608059109748686,-1.7722597285901867,0.4287728186768388,0.23207877746185732
3.130563686,-3.140779690390344,0.11869723977462872,3.082986435166254,-1.5028484329337939,0.4639802431818209,0.22495108621654913
3.230586524,-3.10609716597618,-0.20277860107919995,3.0884458001542163,-1.2658350938127905,0.4672567274978538,0.21654643890982586
3.330486123,-2.9969860883616404,-0.49531813705008076,3.0796726569906463,-1.084095923051329,0.4787645978845563,0.2086624505733399
3.430497224,-2.79406204224879,-0.7842804130634925,3.16391798156087,-0.8144685788245244,0.48229233988901504,0.21340104005414318
3.530487135,-2.6353129102530923,-0.9745606675868072,3.1394642059301034,-0.6535013427353445,0.4462690239523928,0.20138616308621307
3.630501033,-2.375213124479325,-1.1296244676607086,3.216874373448875,-0.4325402341678251,0.4176331745618738,0.20102436814707025
3.730488706,-2.091979283804507,-1.2944231799787722,3.176972224755779,-0.24076475738462674,0.40968242568981644,0.20753508777339788
3.830502504,-1.7729753195549196,-1.330766097531922,3.1025470671727797,-0.004463803639092191,0.37121544297027737,0.2075680238402349
3.930487637,-1.461866298535999,-1.2950214543952545,3.090146488601208,0.25679191271906726,0.35439034630577154,0.21078620561201034
4.030611912,-1.148724663003264,-1.2456574818433501,3.045074375584579,0.47265090202568477,0.3592468789021916,0.2111182395092667
4.130486339,-0.9007249127130926,-1.1044663216337625,2.995107839858033,0.692651010960079,0.3677958400817714,0.21107674765220255
4.230485971,-0.665941063683584,-0.8762980619539549,3.0399234306570855,0.8979339367055614,0.4347955701807056,0.18660727307951555
4.330496295,-0.4941195268591461,-0.5787962849305681,3.10181274129182,1.120828389261512,0.49768791647426913,0.12717985501767398
4.430510874,-0.378412271874159,-0.3654933795539314,3.3457731883812483,1.1782038978315912,0.5645860770337634,0.015561009335256216
4.530486665,-0.17462886696035618,-0.022827870035257665,3.4666995567754086,1.1532889922355805,0.5021841632983242,-0.055604352554629206
4.630504063,-0.06276648522658229,0.28492201801090256,3.59408494343502,1.0978878487760966,0.42331982398395257,-0.10918614649884785
4.730599816,0.12853987656655336,0.6416247707785205,3.650444765633674,1.0273602700947344,0.3633839842674334,-0.15785770099792332
4.830489308,0.3507459735713391,0.9032346057088441,3.6136452340395526,0.8239497173157405,0.2818330910702954,-0.18830779967344008
4.930489563,0.5841217696712979,1.1639534594644587,3.466101385060638,0.6164033161275381,0.2572975959132685,-0.20428165400701698
5.030502821,0.860626499806771,1.3000346014074562,3.339588095323759,0.41133495324438885,0.273936027995022,-0.21019399085655346
5.130550359,1.198009573110451,1.407156421088323,3.235703084000465,0.1250063037220093,0.29663576698726224,-0.21508904598747322
5.230601918,1.5437498932254445,1.4380228570692408,3.1957821584441266,-0.07264449013008331,0.35148078883722345,-0.22017847926684123
5.330490493,1.8295745520273006,1.3735206219945908,3.139913782105354,-0.3159387300330239,0.4134215567060855,-0.23118837176975843
5.430489487,2.086089565071919,1.281827999784794,3.1676019155520176,-0.5058772292981608,0.4242082554021999,-0.23534183896377195
5.530489647,2.3698928668518753,1.0708973657691003,3.1703888869836114,-0.7204283184348315,0.4304963960105002,-0.23660197497911808
5.630508008,2.6000293952337983,0.8202235722759341,3.1804769538791144,-0.970975384990352,0.44824745908672475,-0.23967318391466816
5.730489107,2.7914845702605997,0.5433150166856215,3.190453398143631,-1.1657551077506496,0.41763666294093854,-0.23908829796843478
5.830487093,2.857892315391722,0.26859921554161215,3.177096355766792,-1.387184894112746,0.40713864049443593,-0.23868666079390055
5.930562393,2.854926844887236,-0.03557009747635892,3.182288879529435,-1.6412216923321685,0.4399113155775123,-0.2333823866512271
6.030495737,2.818328312613664,-0.359304257200572,3.1755223723028734,-1.8904313318205455,0.39286535161988506,-0.2334517436817717
6.130489469,2.7069331400283736,-0.6618212861752752,3.1323627966699403,-2.0776289006576727,0.3651798821923553,-0.23383924012834517
6.230504532,2.507099704308441,-0.8919066298844274,3.1052473259593665,-2.339133220905877,0.35738775470192724,-0.24077903124228384
6.33049635,2.27308111875372,-1.1313875685461259,3.094990462903599,-2.5181864928047064,0.3477268901157407,-0.24125453811330635
6.430580278,2.0414436366639768,-1.256297876956493,3.065703146007544,-2.7537016682533144,0.34536256247727937,-0.24637908214746781
6.530509089,1.7112586212963017,-1.341214820550718,3.041836828177786,-3.011912073668165,0.3756376789216369,-0.24829539785862934
6.630485559,1.432126764802681,-1.3533424874388735,3.036050570262553,-3.2400289769564217,0.39728144534180715,-0.26463792380573875
6.730499989,1.1471271273866348,-1.2870647206068548,3.015216995498729,-3.515400178150429,0.4359364618158203,-0.2671001120591439
6.830488113,0.855247337709576,-1.1780343487990166,3.015613070245318,-3.7237480778762637,0.47720578891558163,-0.26355505599352463
6.930486014,0.5961087392394968,-1.0069123630045222,3.028589388926682,-4.011637270103252,0.5292646374540027,-0.24486127123958865
7.030491255,0.46539623870200436,-0.7407180513073489,3.122439341442222,-4.248388477147357,0.5679403591002724,-0.16518865545130565
7.130548299,0.24286160814315016,-0.47254403528087996,3.3800077050703545,-4.340888510979521,0.5660960353159523,-0.0689200229590007
7.230488481,0.17175742022014692,-0.1451322653366757,3.5876010967148173,-4.323540049922151,0.5302059178942177,0.031081967502773408
7.330502573,0.050701986212139234,0.19981820084611343,3.6826687825662496,-4.23753348230674,0.41556750961674427,0.07507402612503783
7.430504447,-0.2103823335802093,0.48814643470268915,3.6912454841152273,-4.145436035225847,0.34205499652253857,0.11480210335356363
7.530487116,-0.3899846214983286,0.8554779109547257,3.6948382488361426,-3.9969512707414165,0.28653722454363456,0.14823415462889156
7.63049022,-0.6764531440216093,1.0480635045258524,3.6024174027334883,-3.7659125619957563,0.2400954172921618,0.17537986490399984
7.730499677,-0.9118363043924642,1.2783931945101117,3.481256763165619,-3.513804619151826,0.22947728792412478,0.18244513888909136
7.830486465,-1.2722912115499596,1.4180398079416345,3.315677437370088,-3.2940237147178046,0.25400998286073345,0.18172996768304156
7.930484079,-1.595850138438541,1.4590460122093083,3.1958707629212166,-3.1352382140822987,0.27779700840495436,0.18327216228957885
8.03050535,-1.889635121039564,1.4059423751668854,3.116730235872289,-2.911156578918107,0.32040665056599743,0.18485280371504437
8.130486977,-2.1764696927555502,1.31456434291185,3.032714645976166,-2.678932185919349,0.33884690652492694,0.2033288153163584
8.230489006,-2.4428743517688876,1.139636072173178,3.0864404136715837,-2.464991948907491,0.3533298888021701,0.21648957348065534
8.330490203,-2.6632875289031257,0.9641898263291063,3.064045384422269,-2.241419498523272,0.3814830765251846,0.22227169803401364
8.430485309,-2.830260807919621,0.7224321550850679,3.029011393745832,-2.0371607568981416,0.41243447536359007,0.23577049111945464
8.530581363,-2.936009270886118,0.4187432498957069,3.0550031729043483,-1.802315667296378,0.4166218713093307,0.228888679684763
8.630497123,-2.9884613989373126,0.13543739298108234,3.114939509597532,-1.5656611745706255,0.4386323724813321,0.22243873059475378
8.730501289,-2.97031380606483,-0.191786008865314,3.0741522230137193,-1.347380587600658,0.4509347950803612,0.22434349939698825
8.830577917,-2.8896450483255745,-0.45516906548947345,3.133568816484985,-1.1404712136407613,0.4511857265613232,0.22722206588911006
8.93051674,-2.733286970701351,-0.7381211080399137,3.155564446740697,-0.8873768582043494,0.43973168227719944,0.21376018718799536
9.030487945,-2.5241544321885008,-1.0047279248814591,3.1416292654211415,-0.6946229528000563,0.44443535767310743,0.2170674551491611
9.130488811,-2.318767161777065,-1.1267229250272996,3.127007160452304,-0.49666199047999576,0.39604465139831785,0.222320474954214
9.230487782,-1.9857593540659688,-1.297722742770849,3.134495531279431,-0.26777757651689094,0.37139261680384905,0.2159493628271699
9.330490154,-1.6850491707261472,-1.3479457913345656,3.0456267798186745,-0.033175061899870635,0.38569752585564576,0.2276299335499833
9.430486859,-1.3745213766279782,-1.3081323631639938,3.0510089927108033,0.18198346194654905,0.35475628190953395,0.21827700644304496
9.530488263,-1.0828458689353382,-1.2475345513784155,3.015804280019856,0.4649733015108524,0.35979098067352994,0.21877395400324803
9.630490246,-0.8304520708635815,-1.0849180816282429,3.014033178442602,0.6541360310073876,0.388899920815136,0.2257301101937716
9.730487999,-0.5650212344910552,-0.9193984584715698,3.010665558411303,0.8488041594368879,0.4127241013032174,0.20689572932597797
9.830490408,-0.39145060094148026,-0.6605999565573789,3.061180463587678,1.088090878500681,0.47559334306470064,0.14731591036113284
9.930491172,-0.24019984592578358,-0.3655867633090098,3.263622866205077,1.1677839717560665,0.5719547353690801,0.024122776497491814
10.030515892,-0.10877252931320293,-0.06673482333657695,3.479341501915239,1.1547762734998812,0.5161945437380742,-0.057455022739160866
10.130502946,0.02289367304877474,0.24898372532804847,3.5422524958357826,1.1222758890363733,0.4305349004577005,-0.11218598783298189
10.230535443,0.24305054540550414,0.5347369299585295,3.617709907770295,1.0056799511100327,0.3670017678634018,-0.16355683374657076
10.330585653,0.43327489532286867,0.8505081706183578,3.5401042842330175,0.8305263127714867,0.28176626432445795,-0.1909327343206091
10.430494962000001,0.6656970405792357,1.087185961651089,3.4262480949254606,0.6125280407863989,0.2502501322267245,-0.20403351587195848
10.530566594,0.9685597285372434,1.2817002487147107,3.3138803556560688,0.3841943149152476,0.2769792967264304,-0.21472767263916845
10.630493072,1.231644312601227,1.351756082940811,3.2188724769015598,0.19297767535860869,0.2892915491525007,-0.225971102139011
10.730486138,1.6039411113358968,1.3772012804388516,3.1683353840156494,-0.0584213225173633,0.3318915605089152,-0.2362289210198925
10.830489102,1.9171365626768517,1.322600563490998,3.1217574446600005,-0.263967146815321,0.3931697445135514,-0.2405615562301245
10.930531807,2.1817455685911713,1.2422460287766535,3.091624110272914,-0.4459834977548348,0.42416914177203674,-0.25438539365797386
11.030492825,2.4479017902846807,1.1191222923867674,3.121411036647876,-0.709065576841361,0.4372624598268227,-0.26424975915089466
11.130581725,2.6756813713698113,0.8554113143118851,3.150322518148464,-0.9297392867046052,0.43898007719345983,-0.2514067532576944
11.230516768,2.8077372898581663,0.579994275779258,3.166793161829542,-1.1939956268076863,0.44157284476359204,-0.24734749739182693
11.330488155,2.910163876488571,0.27764094081211615,3.1389777604052895,-1.419488001047782,0.4312902812354981,-0.24501441114685388
11.430487979,2.9385797539114566,-0.08594306074243523,3.157359161190493,-1.6255840493554679,0.41788923128308225,-0.24133586843732763
11.530496763,2.8896800228456954,-0.3529998673941503,3.168967411933634,-1.8193919818078976,0.41017198361262036,-0.24242486727138748
11.630598304,2.7925453310452983,-0.6306115192059996,3.128853994431083,-2.0659233920596103,0.38553655389715824,-0.24700501802276079
11.730487972,2.6009623445310415,-0.8933150183192856,3.0809431057352343,-2.332511257713266,0.3576264203497977,-0.2473336892844601
11.830529359,2.3939770391946262,-1.1118130115226144,3.130271452839664,-2.4657342491504495,0.3536719362753859,-0.251796806710951
11.930496886,2.1390942511914557,-1.2760285559966063,3.0542383258740657,-2.7707239640614443,0.36216446701885446,-0.2613891269756836
12.030491269,1.7986738237775017,-1.3506086132991424,3.0678374769628705,-2.9424673324325226,0.3639195316547968,-0.25534038445728685
12.130542207,1.5215469949828004,-1.3639063140478007,3.0570870037832503,-3.2044920169676385,0.4047496789503116,-0.26582771992519955
12.230498783,1.2204535488270511,-1.3058768843727153,3.036838114437438,-3.421979920751457,0.44108025012754887,-0.2702006287320277
12.330487076,0.9637060881717323,-1.1946367858570102,3.03212656791606,-3.678174000098888,0.47005287547659924,-0.2684707171165861
12.43048615,0.7065067406029454,-1.0441798198120595,3.086891159766157,-4.006313509191477,0.5123620612347232,-0.24874518687183103
12.530497998,0.5217520729362337,-0.7511684369773213,3.1699742868286065,-4.170870687595979,0.5478617720172454,-0.18568744853605176
12.630487967,0.3721445619578148,-0.5341601592706959,3.392064711184467,-4.311897907648416,0.5756439714263115,-0.0876572200670904
12.730499577,0.21842309804506022,-0.15399598433390002,3.6073980541983235,-4.323382099936722,0.5148071638340479,0.021719483707564265
12.830493495,0.04981472012751806,0.1741452234417713,3.712842326080577,-4.23654448006676,0.43578926241060556,0.0758308949309684
12.930489404,-0.14552260748204685,0.4978178620004462,3.7195250332224994,-4.114915623117278,0.34449016641048413,0.11523153381532783
13.030488531,-0.3684027809967046,0.7861273158893513,3.664347664471358,-3.9399482367501393,0.2918463466180787,0.14454744261213598
13.130486599,-0.6207437751116269,1.054324812051558,3.615959357705797,-3.7578680151263826,0.2632539962054123,0.17326751588863618
13.230493383,-0.8849982890796175,1.2230184857705864,3.4565454700638005,-3.551923995802569,0.2292972906939824,0.17556718286316417
13.330488569,-1.2044384431055954,1.3731487605884531,3.3039704372566545,-3.335766780676209,0.24151724937104666,0.18387571782675943
13.4305074,-1.520163387805761,1.4032785763260547,3.1898877260410363,-3.1004975356277,0.2792110038567759,0.18801499398693153
13.530490772,-1.8592338694504347,1.334746594299518,3.153666706810682,-2.890858570094527,0.3033849685486847,0.19253631188181072
13.630487433,-2.134339659855878,1.2748004285537593,3.0055420613395514,-2.675257330009377,0.2594533480811183,0.25102388785295227
13.730584847,-2.4045081091802305,1.1522319128393654,2.9570985606686038,-2.402067696987498,0.33636453173198777,0.2717701115831527
13.830503876,-2.63739901062887,0.8995633176811494,2.927945434468869,-2.1811696826886986,0.3904526305976496,0.21039911838569714
13.93048875,-2.7827806936062913,0.6499570361740087,2.9817770813835307,-1.920286613389459,0.43177981967296647,0.19827920931693246
14.030578203,-2.8468009230322173,0.382532344666067,3.067700536375278,-1.7359659844908626,0.46150312689512973,0.20896336098542476
14.130486666,-2.876852168685217,0.040263506909231084,3.1129024161139687,-1.5314964249072849,0.44694804167710483,0.21957934931613585
14.230486515,-2.8459358592333843,-0.25882230501285514,3.1224790424942888,-1.318942438490014,0.4184076211504883,0.21986995802392606
14.330487355,-2.768520291397211,-0.5578999949755022,3.1482744922510966,-1.1221494808283856,0.42647374705959246,0.21607380645341834
14.430498008,-2.6090300657506966,-0.811091956382487,3.1362623049453657,-0.8974982657216851,0.42825416119975646,0.21537694850128314
14.530488862,-2.412771698698841,-1.0366497914260084,3.088162384342792,-0.6192642164683997,0.4090123340132869,0.21077139090973507
14.630492228,-2.125503944772901,-1.2186203739998498,3.0611183633529535,-0.4007150215205416,0.40369873755603003,0.20282620615400013
14.730568927,-1.8441398206589397,-1.304934519418218,3.049616363496419,-0.2094356784250467,0.4048567767963182,0.20826934721700047
14.830487351,-1.5684500613936603,-1.398660459163776,3.043980569785191,0.026870665726321366,0.36971220298672863,0.20824006158978361
14.930488564000001,-1.2468902382303322,-1.3641127858049977,3.015807381327413,0.27864939564481384,0.36974572801648103,0.20780556176147344
15.030494804,-0.9695686539115632,-1.2650030477727858,2.994805363944659,0.4866815305071624,0.38524157867737807,0.2138591595200147
15.130488897,-0.6772860692802528,-1.145374702970747,2.9741878887402224,0.7055612784442843,0.38433973490268836,0.2114124481626936
15.230500012,-0.5098972670833143,-0.8809110136376762,2.982458326270137,0.9127880217057653,0.4483958830835981,0.1897725397269549
15.330487983,-0.32438088579861857,-0.6601037018771846,3.0708011341845483,1.120447001676783,0.5198740775904277,0.12413470108120823
15.430485791,-0.16722269404345302,-0.3396143675488237,3.298535445486716,1.1897232970024498,0.5514677437201505,0.025077252534947605
15.530488049,-0.056777678112938976,-0.00803750715705864,3.4665000095960545,1.1858442955009003,0.5103571858261607,-0.056416170368348464
15.630583187,0.0667688239717172,0.26372872075891507,3.5490152337011307,1.1424330786751644,0.4432791132922492,-0.11667389128432074
15.730494213,0.22597956403358785,0.5907157996362404,3.6025021018523717,0.9993855044147079,0.3324925129139708,-0.16405546295009873
15.830493684,0.4405930792064497,0.8750821931073709,3.5586927511961455,0.851052749267329,0.27459795613126187,-0.19266429454635323
15.930490574,0.7172885276609932,1.1359239158925685,3.431674738129353,0.5922455868556127,0.2733836033806779,-0.20203496908041405
16.030579322,1.0317587516127464,1.2892707039428684,3.294371790712239,0.3772324811348205,0.26328614790571736,-0.21591589248169338
16.130501313,1.3299764324764691,1.4081962078874801,3.2267606452630715,0.11007891827584011,0.2906934956041673,-0.21732760832066852
16.230498594,1.6352873257276686,1.396363122272648,3.159635751125659,-0.07972251342720385,0.35559705773087014,-0.22815120514200019
