time (sec),x position (m),y position (m),forward velocity (m/s),"heading angle (rad), from x-axis, positive is CCW",throttle (unitless; -1 to 1),steering angle (unitless; -1 to 1)
1.029691934,-0.1484470343438369,0.42077815395754714,3.4097563083161315,0.9954877190640345,0.5682185007999923,-0.15727255371497126
1.12969955,0.04495982723732951,0.6818816590635751,3.5265099649226834,0.8631432258071414,0.4334747452117904,-0.18636818719364434
1.229689055,0.3194849117949017,0.9365920401503777,3.507463351815235,0.6393446336234418,0.34534934453246424,-0.2011697320774693
1.329689994,0.6492632100451716,1.152631705019814,3.4014813247611713,0.41214007663202695,0.31494257809510295,-0.21522624955089362
1.429704305,0.9221177354488352,1.2312473910907247,3.330850987939293,0.23017642715038894,0.29415171042469873,-0.22220585479754767
1.5296900070000001,1.3084315734915477,1.2945248135426302,3.2775817248030727,-0.0325403665284972,0.34001133115659365,-0.2341086163221543
1.629688737,1.5777941753459994,1.2625891371949574,3.16525810541899,-0.27265479768620327,0.42255070503482595,-0.2446634690103685
1.729694571,1.8878204321272554,1.1144739099313865,3.170593844268452,-0.4879506122612939,0.45740949982634643,-0.25412960154860054
1.829684506,2.1572083412918426,0.9650370249451484,3.197848529521758,-0.7461885584595017,0.48930522381911573,-0.25536895996647363
1.929693285,2.3454646392547653,0.7466168258981263,3.184928949705626,-0.9689868670659084,0.518750961179734,-0.24690200431764175
2.029688487,2.4879509978439,0.42225068653669784,3.217505859549887,-1.2263060677891104,0.5067520456074476,-0.24319769179537293
2.129685886,2.609698324204522,0.14307546694719392,3.2543925671666876,-1.3987841402555832,0.46794236889248664,-0.2352703871429807
2.229693739,2.6037572899294994,-0.1919104754662002,3.291749042525153,-1.6493445501732418,0.4408308282226337,-0.2326070710376982
2.329685951,2.55121005905237,-0.5008305810042547,3.2683130011112627,-1.8593830754087974,0.42203970139268976,-0.23515701756965432
2.429689976,2.4637644234447893,-0.785293287101968,3.209782479959198,-2.074590659614944,0.36705545189620253,-0.23423836014212546
2.5297858939999998,2.2469500392110127,-1.0843382662392882,3.1920903831481846,-2.291961269333952,0.35701337818864054,-0.23799375109024704
2.62981538,2.036871330780933,-1.2798934352221791,3.1480442521031735,-2.5203436897092972,0.3341425547174722,-0.24792914271922048
2.729689238,1.7371103914464017,-1.4526733697480245,3.0769846190116064,-2.7782700847635935,0.3153467616445909,-0.2631482681447477
2.829804511,1.4491734448703155,-1.5177722866704075,2.998871862189172,-2.9979756990642104,0.34823047613948305,-0.2722286303630121
2.929691418,1.1678652370217437,-1.536374870539104,2.982125372803612,-3.2366387314125866,0.4190401811892035,-0.27677642710343314
3.029687476,0.8451769259277049,-1.478451714331115,2.9741683820516065,-3.498651788226355,0.4754062228503214,-0.27423299755277125
3.129689194,0.5588868823147012,-1.3267650935086122,3.0654517940463752,-3.7768522243735974,0.5399931465137905,-0.26882359370031633
3.229690549,0.33710760126150247,-1.1196296097504326,3.09552455920015,-4.04323225751323,0.6029026932895714,-0.2636553239406048
3.329698708,0.1675786856017246,-0.8436406764758801,3.2483976459507935,-4.287532552317234,0.6416474230595035,-0.1497738379034699
3.429768406,0.025251618843740147,-0.6089672880771364,3.447168746904152,-4.423976599632499,0.629503029153367,-0.04226405681875026
3.529685932,-0.07439394245078837,-0.19486216426033465,3.6615388476050796,-4.3458043007652885,0.5900637662184428,0.055240552414893625
3.629699244,-0.22837315553984194,0.11854405223193756,3.7657469142510043,-4.246339683864694,0.433708409436793,0.08826319914019778
3.7296837590000003,-0.43377020809462696,0.47628576953785073,3.831560012526579,-4.132534864583079,0.330999144511639,0.11876223800435654
3.829685687,-0.5993300776886877,0.8053792025038958,3.746219878539606,-3.9691786345834816,0.27934973425856585,0.1504138517314249
3.929686175,-0.8371166034626197,0.9945815862143474,3.6576975467073605,-3.7772315036366266,0.21286410596175276,0.17212666532915896
4.029689886,-1.1680549351167342,1.2253190706327792,3.4325841973335387,-3.521675962290894,0.19317913781138293,0.17811469570367663
4.129686627,-1.4806593207502436,1.3569625659242823,3.2917089184690904,-3.300216099835976,0.22792847644807473,0.18369158926595475
4.22968648,-1.8123830121534377,1.4000535975683739,3.1048871061082366,-3.0303215653494404,0.2455667426631134,0.19282743297905397
4.329689246,-2.0980744020769078,1.3803548291958738,3.0311671232930473,-2.8877555511723636,0.29287770077877895,0.20359363980133421
4.429701085,-2.391687661421363,1.320574445689725,2.9641036215294365,-2.6510394287696033,0.3707355929310108,0.22207984593023747
4.529739494,-2.6335426711114565,1.1120741305347555,2.992446654076643,-2.4553005934308922,0.3871808347201929,0.2366310632422349
4.629696566,-2.8499224738918745,0.9045900483041615,3.027124776859026,-2.2119114753539413,0.44283446627023426,0.23490864601890407
4.7296978460000005,-3.022808748035918,0.6276544160948553,3.059496192984136,-1.9445147116407142,0.5216843694976676,0.2434480062538301
4.829687428,-3.106936894185474,0.3727868654184782,3.1056133579268255,-1.7082105570866766,0.5297672070061523,0.22300676956404317
4.929784992,-3.154446350423275,0.026897357763656145,3.1611297452829845,-1.4648977025009178,0.5375690831463529,0.21532564908627658
5.029704339,-3.0776748509970746,-0.2808897745669582,3.249171956239894,-1.2372949089635739,0.5557070114249524,0.20699889636508262
5.129697111,-3.0149575137371687,-0.6011649627151436,3.232059948409351,-1.014728185938481,0.546249075215997,0.2043504302144719
5.229697058,-2.8317699243063874,-0.8470696405419336,3.3396459969261465,-0.8261941930929853,0.5018868343133659,0.18845698149592027
5.329704794,-2.5891754578341506,-1.1086552796453326,3.3388024318239746,-0.592389217131257,0.46661696235550415,0.18773910784125172
5.429685097,-2.290762531164555,-1.2527459498862787,3.3169553199871187,-0.4210856234890904,0.43278424881799094,0.19071133397275666
5.529686511,-1.9907025978442394,-1.3833494075414394,3.3339003957399234,-0.16281397341848183,0.3817066869443332,0.19373230357568744
5.629708394,-1.7140107985934092,-1.409345731023281,3.2388206943123055,0.01260490324382458,0.3620239739062767,0.1929908135402412
5.729691526,-1.3301853715061085,-1.3939293006228097,3.1570349603853898,0.28065234515671317,0.34405822546921894,0.19963026330558592
5.8296835940000005,-1.0483956834001087,-1.2964060219013012,3.143668111642736,0.5146703454646052,0.34692873050805206,0.2041202688794873
5.929688905,-0.7980431943696792,-1.166744276702198,3.0838281772866396,0.7047379071196189,0.3922817231460876,0.20350511404029806
6.029692542,-0.5900447187180815,-0.9548761946538629,3.083579467322158,0.8911427315925421,0.462796543827569,0.19170631259147894
6.129685264,-0.3730865071866317,-0.7032380297431301,3.1978760230792225,1.1344315911578233,0.5814097969249092,0.10195790488459217
6.229688638,-0.21067169082100887,-0.40936947951822666,3.454014189782049,1.163581842831467,0.5954394445963602,0.012209781785119441
6.32969809,-0.0827418737142023,-0.09731696107413092,3.683688069877081,1.1288911292876693,0.5405166520142688,-0.07615113630707526
6.429687876,0.057585157971959025,0.2712709535073611,3.745175025986251,1.112860950854564,0.43987647950582814,-0.11387979772633317
6.529687341,0.26851071116837144,0.5429340589498642,3.778256226649603,0.9393681751108961,0.328640427371375,-0.15042824252877668
6.629686005,0.47214507468271144,0.8596182124239977,3.691377415183304,0.786109191348966,0.26708400590513376,-0.18138565943569374
6.729746337,0.7622974011653537,1.1256586395870825,3.5667927155320607,0.5935379696710109,0.23118754301065683,-0.19122588495980855
6.829701922,1.0680437900043633,1.235267273392405,3.4205080949432856,0.4054671964267686,0.22488461430976503,-0.2058223883097773
6.929686018,1.4009293911897704,1.3594959339008725,3.275674857697514,0.1274531261280613,0.2746667814966854,-0.2180948808636164
7.029688935,1.683907705123503,1.373586501741287,3.150985709712023,-0.07174164191251488,0.34577209480639104,-0.23784726113196197
7.129686494,2.0215301001694477,1.3376479932090415,3.111728047861027,-0.3643660765853926,0.39428927322543017,-0.2525132567559897
7.229685666,2.2919784574599196,1.156325394154149,3.1298230379135594,-0.532855793770253,0.4721497856915731,-0.25181441527107923
7.329745938,2.53961785229548,1.0394087249910053,3.167576773028529,-0.800449529158779,0.5320838294894544,-0.25221274952885453
7.429777388,2.726551275030693,0.7810306074600981,3.189952417330051,-0.9769316880147272,0.527834910667601,-0.24567695716241708
7.529692619,2.8886792265638297,0.4532972253164557,3.2421027791472783,-1.302100459654081,0.5205997970327834,-0.23929241273080162
7.629762517,2.9459605464046628,0.15766489819927595,3.2692396383165527,-1.5672512049252711,0.5270329106151878,-0.2303223470480469
7.72976348,2.953383986098098,-0.19020392902993488,3.262214551207258,-1.7341296235574117,0.4983610756811861,-0.2181238045332175
7.829688629,2.8935638392976784,-0.5190352031816372,3.2611830854161767,-1.9401222243339187,0.4592617582614409,-0.21943736114392068
7.929688567,2.722462707046698,-0.7880890617316016,3.303836213639955,-2.17536463565892,0.43951569107099037,-0.22464615425044443
8.029709311,2.5256743614247257,-1.0126265571564304,3.307815613820961,-2.357423256896368,0.379745183532508,-0.22722296357394672
8.129690563,2.2667991485813666,-1.254119351311325,3.229112395451533,-2.6042787477194307,0.35590179144322864,-0.2374826385287601
8.22969392,1.958214763213127,-1.3867074934292445,3.1995868893229407,-2.8171239582056744,0.3710870540391091,-0.23817608437771723
8.329684726,1.6548136460939888,-1.4461613988658308,3.1421829719248877,-3.0828091161437796,0.3569006136681859,-0.24654906734785126
8.42970741,1.3338520416533521,-1.4432688458211242,3.0919441269722387,-3.273103717525368,0.3943934098820166,-0.25571947663081646
8.529791301,1.0963450354574367,-1.3817680291843188,3.1033620037724057,-3.4958558289109436,0.4653828331482847,-0.25859933739299434
8.629692821999999,0.7984539162484743,-1.266441294167437,3.157068609889366,-3.7319944805883374,0.5198056537924829,-0.2597080556089821
8.729686088,0.5161904963466772,-1.0526091288643968,3.1816976453098667,-4.023726899554216,0.5695888094833234,-0.2245251793244248
8.829687691,0.33778060578168073,-0.7567870683859601,3.248828800892534,-4.195723641997113,0.6182495562427244,-0.16725588017726412
8.929686002,0.20153811106113526,-0.4648951102700465,3.5442568617218964,-4.317649734311986,0.6043053900722707,-0.04646697826946787
9.029687406,0.08173708653133706,-0.10012092174695161,3.7288858020095152,-4.291729203754381,0.5203992094022518,0.03699945844642099
9.129687967,-0.10552799931651818,0.2347431157811417,3.8493352242736787,-4.228278334845559,0.4418863199559402,0.0793157287266728
9.229685439,-0.28397422688588775,0.5452153794575303,3.8380963976788998,-4.123708184688598,0.33005188114129363,0.11445532963737494
9.329785118,-0.5161008821297636,0.880400751899033,3.7953362157610675,-3.8859003824126965,0.25351438429109846,0.14787609301081395
9.42974345,-0.7857270214577645,1.1527842183570816,3.6865649390015323,-3.7916526537943858,0.21673286439750175,0.1690807617837832
9.529689233,-1.0646729258052186,1.303550687145739,3.47096555810368,-3.5007620673352435,0.19861950977273218,0.17400765989696165
9.629691041000001,-1.4105584140349898,1.4292960211785588,3.3820113748737675,-3.2731258737839175,0.2113352234530659,0.18050489877772635
9.729715281,-1.7163359209428377,1.4558451508178538,3.2206373971953144,-3.054101517966152,0.26352678474862545,0.18099716583735764
9.829687687,-2.029997631821,1.39421555142994,3.0850526721159097,-2.838351287821561,0.28993210450178564,0.19604129943691734
9.929687167,-2.3183067299019338,1.3391825693647232,3.008919727613857,-2.6205669775413463,0.35294608806429234,0.21288722078047703
10.029690618,-2.5707838817069857,1.2054219650848255,3.0398061412007453,-2.4206752946333787,0.41951536710855264,0.2205908248756007
10.12969071,-2.822934091243185,0.9667998479793657,3.0829835697307413,-2.188811833141639,0.45470659640626804,0.2290636995228988
10.229692145,-2.9635419539268226,0.6582248955144112,3.1445609555519516,-1.9407384725554082,0.4796338021276079,0.22586312541080072
10.329702634,-3.0678975415006158,0.4084273118833337,3.123879848144144,-1.7072936759775392,0.5179402330903038,0.21353581297344795
10.429699325,-3.065810442282053,0.09246248706368665,3.2292045372515474,-1.488938098461684,0.5274345223149687,0.21240316591516095
10.529691306,-3.0136146828388544,-0.24561159549469894,3.262586713456267,-1.2469950783971708,0.521063088340481,0.210855131759692
10.629703668,-2.925946117377983,-0.554567081793504,3.320411100526369,-1.041787492025394,0.5084830635569911,0.19845164394473228
10.72970613,-2.749412688291916,-0.8679943319253701,3.326110718272046,-0.8354361685075805,0.4893036091130501,0.19444995730749648
10.82968566,-2.5020592849187526,-1.0818155347525635,3.299826950894179,-0.6670954479510389,0.4599035479929804,0.1927370829149132
10.929685501,-2.2480199195220005,-1.2812126266229409,3.334233154641578,-0.45646676910074563,0.41733286914063256,0.1890735757451967
11.029801066,-1.9391969537700517,-1.380632091831626,3.307439001028207,-0.22763229906039165,0.37995690400126,0.19695764999056964
11.12969005,-1.6107655378788568,-1.432628267495806,3.2702803011725505,0.016520500577619897,0.34458438185223195,0.20283361661600058
11.229687957,-1.2912906062549834,-1.4283737599257524,3.1832192848908267,0.2494848493944081,0.3289751225092884,0.20484701215005952
11.32968543,-0.9872453187095676,-1.3287646850496948,3.0724311373284827,0.4341918188018606,0.3508486747293199,0.20960692940630427
11.429687626,-0.7124699913726767,-1.168525976071228,3.0422014995470854,0.730200505809787,0.3730134644738425,0.21710267540620307
11.529723517,-0.49869715580358676,-0.9909607098730723,3.0745809372043245,0.8375136157392605,0.4846011055157307,0.1845986754737288
11.629691132,-0.32134002280081847,-0.7467337478681731,3.235192432557498,1.0792559649562872,0.5851348854168573,0.11996596538368366
11.729686641,-0.19374757634013606,-0.5223933074552253,3.446547254405356,1.1211377389244728,0.6198766705967785,0.013800746370394657
11.829684523000001,0.004846393894425329,-0.14337773015563218,3.6996148666059447,1.1296708298561184,0.5539218866980768,-0.04710030004642136
11.929687018,0.1761683346560412,0.2400450412375325,3.8033950399144874,1.0886361951430013,0.42283872192847205,-0.09739566350112451
12.029690691,0.35762198741902074,0.5250634784838258,3.782086567623084,0.9849140326534231,0.32887215200897385,-0.14476559600191097
12.129687969,0.6242719950238911,0.8054653813942032,3.7273838685520455,0.8171489491357519,0.2466756385382959,-0.181253403218967
12.229686262,0.8643978439559218,1.0536887293364339,3.5850560315076563,0.5944632397464216,0.19951529739648946,-0.19077646034738224
12.329690222,1.1900327003670839,1.2616970658907871,3.4319894165084293,0.3480030039213681,0.20304718992511864,-0.20128801569335528
12.429708953,1.4768830495071683,1.3402873174850198,3.2649750872531342,0.09607293066145377,0.23678986453102696,-0.21752976663048787
12.529688038,1.8009926330495785,1.3634140570108046,3.114287952399843,-0.08355707453559838,0.31553156844065716,-0.2390629172128801
12.629691734,2.1386682217781146,1.306565414112154,3.12376467836455,-0.3002324453588724,0.41490524168553045,-0.24838163385082637
12.729685756,2.400517713165515,1.1696734158996172,3.102491079586462,-0.5528985826434688,0.4690457946832219,-0.2530272792687111
12.829685096,2.617123621805437,0.9612452619194197,3.14395607272629,-0.8079698951932797,0.5069895626286257,-0.24854290362197712
12.929689218,2.817528567676693,0.6977910830221362,3.170766902945851,-1.0588675209855065,0.5650727255935646,-0.25109924059605393
13.02969217,2.933555289218953,0.43858066040924737,3.229680975289221,-1.3239398407603509,0.5262413852300227,-0.23598764309682535
13.129688172,2.9845935517455597,0.11522061001839608,3.2283421485915293,-1.5230162923043862,0.5046416676370568,-0.2279599208064146
13.229688926,2.994702835359396,-0.19383415015850916,3.258257157874335,-1.7424566860710613,0.5166878290141239,-0.2113278447803657
13.329690259,2.908489846900963,-0.5334551913361788,3.296656693760144,-1.992105337748699,0.47125436528615966,-0.20488134536783265
13.429775804,2.8016550560439137,-0.7734875812862205,3.2682803614877387,-2.24441964335389,0.42647126857488504,-0.20576020475708165
13.529756935,2.518445479651305,-1.048646905222809,3.3257641914582856,-2.4355840604752546,0.42689799589748,-0.21388578946327566
13.629756469,2.277802956413097,-1.229753363001541,3.229284196522942,-2.6285815703852347,0.3611529686978258,-0.21795240984663095
13.729777825,1.9864907572796369,-1.3994419416517814,3.2340400424365607,-2.8786155226415167,0.34321276455342,-0.23112433006042848
13.829687753,1.6396532284582108,-1.4487325530856814,3.162795617600309,-3.0658393266008304,0.36171136760015504,-0.23942048973774968
13.929685826,1.3674914841112875,-1.477913578429714,3.111345505502779,-3.3030087050348222,0.4005315269063074,-0.25180631718805263
14.02968942,1.0325627291783066,-1.3295231505923042,3.1250368369626638,-3.5554684697225953,0.4551563242772605,-0.2510640167578269
14.129695554,0.7974833741114334,-1.2235380324075698,3.1473695808973114,-3.8066813055807844,0.5167735684991696,-0.24308096247256158
14.229701279,0.5530331385069668,-0.9752323046494928,3.1741127277295105,-4.0040128577803555,0.5358561287096001,-0.23242343397289728
14.329685405,0.3699324096905901,-0.7217159375341716,3.2524080864684106,-4.308961481725627,0.5880400087018539,-0.15137951299617844
14.429691758,0.21835844622299883,-0.4078255872000389,3.4590172828537975,-4.344383388166209,0.6092862692704304,-0.028777146161973178
14.529707943,0.14108099155820547,-0.0725250244312072,3.7362808394996163,-4.3553754946869745,0.5390163791574261,0.058132682340700376
14.629685495,-0.005496987920221373,0.27191644443066576,3.830260927867706,-4.23729890576424,0.402160353218117,0.08907925621827487
14.729686015,-0.20698019155725655,0.6251220894061622,3.8228653521475606,-4.156333272765543,0.31274165347635013,0.12226732046120393
14.829754515,-0.4772186529092022,0.9047511810686377,3.7549820108517635,-3.9627664413687427,0.2708428256094993,0.15111569215660936
14.929686696000001,-0.7480541380103137,1.1887613141156885,3.660649384589412,-3.7761872513960792,0.22159066082492157,0.16784847300524813
15.029770803,-1.041883207278596,1.346744067025511,3.504388816275339,-3.5265980939807187,0.22859396785764372,0.17491425214446202
15.129686703,-1.363233899146398,1.494358578642733,3.3764930397620914,-3.327017736863576,0.22444225321091718,0.1845961399531054
15.229691956,-1.6320112834874332,1.5435469823230852,3.208046550839654,-3.0883157756541664,0.24649691326482007,0.206641040291791
15.329738717,-2.0069060876637743,1.4808933886870264,3.160671169697433,-2.882029245992075,0.3055005227240421,0.20846937682024352
15.429689525,-2.287043710720759,1.4770205500162492,3.1126301392745455,-2.712768906411315,0.33997455186540887,0.22262794346631698
15.529696819,-2.5611719670192215,1.2439757402918192,3.100202775296359,-2.456035162625864,0.39110177777008315,0.2352767798105464
15.629767676,-2.794758887326474,1.0393310441038266,3.0743743906584067,-2.2170285353214183,0.44289391378504284,0.24370312229073854
15.729705651,-2.9258894718199917,0.84331201253134,3.152759920398224,-2.029079455785908,0.4850986594622297,0.24137036339270151
15.829695187,-3.003610205520209,0.4992549473162179,3.17600489246438,-1.7539711064441772,0.5041661754719576,0.2319722796759764
15.929704216,-3.081674540653232,0.18890682116787308,3.222420485444256,-1.5248832371032417,0.5310912976884189,0.22005248955305456
16.029687266,-3.035894636471172,-0.1289575924360559,3.2908689595130727,-1.285055325248961,0.5309793916830499,0.2186819000559602
16.129690386,-2.9620250986500687,-0.43364671772465124,3.2768897807177773,-1.0478445413879307,0.5089379678464169,0.20722520632862929
16.229689713,-2.8337380655593716,-0.7559483526808046,3.3051805031598214,-0.8740646184021992,0.49458287214800645,0.2022329986667229
