time (sec),x position (m),y position (m),forward velocity (m/s),"heading angle (rad), from x-axis, positive is CCW",throttle (unitless; -1 to 1),steering angle (unitless; -1 to 1)
0.129610795,-2.606291616944399,-0.02084562327977296,0.005575235976699876,-1.5598634010164771,0.75,0.6390044171606416
0.22960996800000003,-2.606260488632396,-0.02086447101838063,0.0026236580023961285,-1.559473734447597,0.75,0.05624957007900394
0.329615822,-2.605523605007414,-0.06582772266911369,0.8307417147176729,-1.5563860227236417,0.75,0.11642179871532919
0.429620973,-2.5924800193304995,-0.1945634662547005,1.6769691433961016,-1.4640166802916108,0.75,0.19714620180733441
0.529616297,-2.5422984726893447,-0.39878265161530607,2.426753791955776,-1.2786257490855761,0.75,0.24371215218061323
0.6296145980000001,-2.4310585680868737,-0.6350998784087725,2.7220536510492868,-1.0729430339279207,0.48589527503403857,0.25702655877843017
0.7296166460000001,-2.264755260404828,-0.8554180083514974,2.798662754846813,-0.8485869919081015,0.3619466358049885,0.2687751249207289
0.8296189110000001,-2.0528620648685405,-1.0371244102710453,2.790676939514415,-0.6014124079936279,0.3232104721753557,0.2755141682993304
0.9296175430000001,-1.8052451996371748,-1.1633456685647028,2.771879212303119,-0.336608717267678,0.3301457159183647,0.2772739768253094
1.029617135,-1.5352041728880894,-1.222938837011944,2.768087970870808,-0.0673706355329692,0.3758027776922937,0.27097411164667984
1.12961248,-1.2587985673494502,-1.2112398695809763,2.7790472200490273,0.18465947749826928,0.4046175690698098,0.25892855456193203
1.229649139,-0.9900909893707088,-1.129910520350866,2.8311497784640864,0.4195689260185922,0.42704339205732705,0.2465416359014921
1.32961457,-0.7418574313389333,-0.9853645205725348,2.908157741389526,0.6439095056858799,0.4278621514879011,0.23589012738337337
1.429614482,-0.5272577962436548,-0.785665201018517,2.9598626304054214,0.867191814120041,0.415755486887506,0.23735713487178528
1.529623536,-0.355989926013491,-0.5395671064207935,3.0411229480807127,1.0782663239718224,0.4312317088764842,0.16574725275426125
1.629613296,-0.22348218771488995,-0.2598879028654105,3.140762427176078,1.1781378141775745,0.43823925071745373,0.07049301617569151
1.729661796,-0.10214685189478204,0.0370021155926283,3.257625588385521,1.1706988227505748,0.4297639965283559,-0.043590852567979455
1.8296171860000001,0.03914771886051701,0.33486915177722965,3.3154896186653526,1.0704456330458778,0.38357414440628834,-0.1105232986481345
1.929619411,0.21968484874518152,0.6139478849167403,3.330441722799013,0.8956443805108646,0.392367601147178,-0.15021889598893312
2.029669215,0.44344420183147365,0.8538114212373125,3.2495306904289203,0.6919897084853573,0.34954580684953307,-0.16208612834724243
2.129630387,0.7050724584995419,1.0414210670136888,3.209543433910502,0.48065256571497705,0.343355162725469,-0.16104580449428968
2.229634518,0.9941639724555232,1.1673624629980484,3.1358122579906054,0.26706034635084164,0.39446804695840787,-0.16416720943351615
2.329619624,1.2983509065297996,1.2274166470806973,3.092630589044069,0.0657737010327716,0.3553825914695317,-0.16001646382849727
2.429611396,1.6034813619098323,1.2227622517539605,3.027480012157719,-0.14067756038727994,0.3310665533161136,-0.16633083631462353
2.529619811,1.894928279541199,1.155070288693303,2.970725662684023,-0.35445499963208327,0.3388085442780385,-0.17463275145815205
2.629618243,2.1594862937251365,1.0273708691400623,2.913821816919279,-0.5689900699224947,0.3395982002830378,-0.18072634818253092
2.729614989,2.385174174159705,0.847021056360354,2.872824477055081,-0.78608635917622,0.3306930701767589,-0.18751117612901133
2.8296146220000002,2.562781938017974,0.6243629837572969,2.8402612122788353,-1.0103257424065906,0.333204276875247,-0.1986665939247823
2.929635023,2.6836535270118587,0.37153071847586905,2.798016176969077,-1.2431603552350587,0.3581319643697969,-0.20415490809904843
3.029615932,2.7403654016357932,0.10104782211847757,2.7539092672847034,-1.4858629414827271,0.3531419801296884,-0.20721925850681075
3.129612871,2.732348042690371,-0.1745829427236673,2.7659920852869986,-1.714852664777824,0.3716575915165158,-0.20768841294851267
3.229611979,2.6603961781449423,-0.44060633713489966,2.7585964139451757,-1.9509130039072307,0.38755124002005,-0.2057515728255943
3.329617002,2.5283393313509155,-0.6823252737997382,2.757368402911777,-2.190958953166522,0.3960717508827956,-0.20860418989265947
3.429616185,2.3424368054078806,-0.8865210834135708,2.7662493923397435,-2.4242099899549387,0.3974986145027615,-0.20394759792317022
3.529609396,2.112702621360448,-1.0444782479819468,2.810500662000934,-2.6480476038929073,0.40967116869914744,-0.1987628190943847
3.6296877260000002,1.851516016619487,-1.1493994716648048,2.827535952994349,-2.8774747766879236,0.41274121546006937,-0.20094389170532267
3.729610384,1.5715392814661153,-1.1927403944196318,2.8375503231573536,-3.108484112313039,0.38898089668906394,-0.19633572206056127
3.829607907,1.288599549996375,-1.1719536368445072,2.835567511982852,2.948751858004974,0.38837188421584407,-0.1905614322177798
3.929607451,1.017666423713981,-1.0893105033160249,2.8399118067105715,2.724855982687759,0.38803810176755626,-0.1954325541030921
4.029609745,0.7733977792871611,-0.9485663149376065,2.8208884527208564,2.4956856049686498,0.3698378682915209,-0.19668567393101846
4.129608518,0.5684807430068154,-0.757697307146958,2.7912908646853354,2.269267921997046,0.37535003711908504,-0.19203215620634512
4.229607329,0.4131323551024112,-0.526544492790975,2.7908158833796137,2.03938520617588,0.3919584097815174,-0.2021629563786969
4.329611204,0.30785623912538124,-0.2643032567603072,2.8934632317569062,1.859381999714693,0.44190675093711224,-0.08681189465522987
4.429613679,0.22536786802666678,0.02343320594150088,3.0743312497008275,1.8245038771025666,0.4431886605304399,0.03684065358161352
4.529682987,0.13242485771104975,0.32200628860685365,3.1710230383129163,1.8802062153415402,0.40618829611260515,0.12015485688770919
4.6296195870000005,0.009608770076001477,0.6169672935152593,3.207737288489287,2.005820969273121,0.3379753909677615,0.16970924756622466
4.729621456,-0.1537769490122425,0.8929704369534524,3.198881877717331,2.188344203849308,0.31012838253095476,0.19996137283988552
4.829613287,-0.3627621569175722,1.1322938817760269,3.167953854683158,2.4123048352756506,0.33111372902596514,0.2210794228926132
4.929614601,-0.613559474172144,1.3188283925975834,3.108699256380784,2.6578120976789594,0.33309448997718066,0.2241942428616286
5.029623272,-0.8967599345140569,1.43858205009879,3.068432754387031,2.904423451257656,0.3676186665047118,0.21319185905690025
5.129672654,-1.1984599024347864,1.4873536717248113,3.0769109696819017,3.128705322213289,0.4348849058038307,0.20850662867103326
5.2296143950000005,-1.5058179454257268,1.4658003380750813,3.114253397388365,-2.9450871664372404,0.4212879289376563,0.20137378417554205
5.329615385,-1.8053124954957953,1.377616406587983,3.1478272989078566,-2.740200998486741,0.403945925218378,0.2023162939107868
5.429615785,-2.0839187219209996,1.2285387341448566,3.1771870814918457,-2.5505315457236475,0.3917486661759251,0.19945763285844778
5.529624839,-2.329246572150431,1.0264811689810636,3.182483052559264,-2.338324525255177,0.3668071001571135,0.21064236831023483
5.629614148,-2.528019728245945,0.7800404935576898,3.153598989101127,-2.103673962089447,0.32765910991355013,0.21518674550612346
5.729623831,-2.6645770039001473,0.4998074351082469,3.105699057453631,-1.875809078321596,0.32249240598332796,0.20627649057534453
5.829617011,-2.73274898417677,0.20071821300853282,3.053494666388517,-1.6521425008966295,0.3093829058120826,0.2092291662750904
5.929617592,-2.733324128968686,-0.10037997779802452,3.002952744579213,-1.4349409852860115,0.2890676899722887,0.20975869268334044
6.02961558,-2.668368744517112,-0.38878337905256616,2.9331701540605892,-1.218143255862769,0.2839972058921325,0.22144524379973682
6.129613568,-2.5430916345703665,-0.6515870837480859,2.8976510143129555,-0.9854132546909546,0.29174319118983183,0.23087660170704336
6.229608352,-2.36327893503064,-0.8738376703603034,2.8285107124165503,-0.7500197755630507,0.28588316661051794,0.24003805981474585
6.329614501,-2.1394297193863485,-1.0451574854392078,2.829048712553131,-0.5229551091051845,0.31870719938070324,0.2398884516982056
6.429628496,-1.8825288980577075,-1.1582428199722927,2.8192090027519776,-0.294011514113149,0.358987471698423,0.25035637914113146
6.529618708,-1.603677541108788,-1.208996774311561,2.8507773097140934,-0.06054171557692861,0.3752898358715255,0.24583256094537356
6.629614361,-1.3181410880627003,-1.1930148630205295,2.874481754187263,0.18263049625132316,0.3922356436160061,0.25929506546553444
6.729666151,-1.0419552454622478,-1.1091870160618533,2.903535826239791,0.4247326144359482,0.4207056607773638,0.24626749188789196
6.829618418,-0.7902071218884195,-0.963094865928726,2.9186988776956735,0.6547794288098541,0.3999856970950367,0.23567350229979395
6.929614067,-0.5748679949645578,-0.7617388631681333,2.974888573676013,0.88463849763628,0.41293983716868127,0.2189589302316319
7.02961567,-0.40680837361477007,-0.5143466618584552,3.018754866251719,1.099961494062962,0.41918781775684,0.1975874070504372
7.129619443,-0.28000336018112165,-0.23582074753837295,3.1180640047760737,1.1905089353508729,0.44165812850077274,0.052961190771656015
7.229614773,-0.1603416138942563,0.06012209883159199,3.2487544930310457,1.1663734586959436,0.43314912822800766,-0.05136658306243512
7.329652901,-0.014104198685956668,0.35305475997008245,3.2962337952172565,1.0381557079096404,0.4051441997969893,-0.10670027375170113
7.42961203,0.17349127269218698,0.6251546061261591,3.3071241923497587,0.8649805225679035,0.36834661130398205,-0.13938054550894666
7.529617689,0.4039344189668405,0.856810594672045,3.2579817022941673,0.6598482146783431,0.3484955479699208,-0.15108383998244754
7.629615599,0.6711166665809479,1.0356383577568908,3.1985431155172632,0.4503354534330827,0.36247821511010936,-0.15108213026957695
7.72961566,0.9647763489100981,1.1532392793012023,3.1484415359562,0.2371146498589421,0.36347239157886696,-0.1521682336226617
7.8296141949999996,1.2717057227415487,1.2044319436304474,3.0718555497864486,0.034088035167728604,0.351964149846406,-0.14967524660332515
7.929610243,1.5772103601853948,1.1904127738007837,3.040740782129869,-0.16953499553415638,0.34767202334407865,-0.15422415983442395
8.029624262,1.8678046214522588,1.114309961710828,2.990212922598681,-0.3737405716717091,0.34827606428139685,-0.1643142773741323
8.129615965,2.13024310951409,0.9804553514432389,2.920724106009705,-0.5850894503157572,0.3316421618863668,-0.1718704169829804
8.229612276,2.3533858518882176,0.7961938265190037,2.8876787047430668,-0.7961427295135671,0.3300722495915054,-0.17164073088780285
8.32961896,2.5287081401065388,0.572212279334168,2.8297206114673217,-1.0135348099313433,0.3404600076164983,-0.19022043998258586
8.429629386,2.648321436555406,0.3194469610362435,2.7866068866035985,-1.2444337671229262,0.3349759038704123,-0.1986223919228175
8.529614447,2.704036320782186,0.04995230101100918,2.7523164466878636,-1.4818167102497701,0.35291675772457076,-0.20024590364522268
8.629637651,2.6954308281727544,-0.22323163917269032,2.7302617032445062,-1.7138662862493486,0.37771340976774115,-0.20715519646103578
8.729614203,2.623241931110152,-0.4862159276549738,2.726016369363723,-1.9534775197976975,0.3773286616506756,-0.2066055672576177
8.829614133,2.4911459308512858,-0.7247729925551414,2.742896216771299,-2.1939878806113526,0.3966308808675688,-0.20299994587274853
8.929616286,2.3056052439436288,-0.9255739955100364,2.758617964278754,-2.4290789142142204,0.414589799634833,-0.2051191349320439
9.029619224,2.0769130488910426,-1.0801157919324265,2.7753800048752897,-2.6580192068350725,0.4134040135461373,-0.2006626948149581
9.129609088,1.8172866489782498,-1.179602050867088,2.7995632234599785,-2.898172680967925,0.40643541509467573,-0.19611695761911585
9.229611801,1.5404617070090616,-1.2166295486822711,2.8067966910473348,-3.1302539139637635,0.4223001166705611,-0.19515524057138708
9.32961217,1.2608337661273672,-1.1897559781943552,2.817214836052548,2.931998917380157,0.39330355430597846,-0.18668966698322592
9.42961169,0.9934919980708666,-1.1021384137773418,2.817526549811901,2.7071817167119145,0.38561556984205575,-0.18595135775436317
9.529616058,0.7520114096370017,-0.9572780170131151,2.823060818167093,2.4794249181485886,0.39333196347635735,-0.19221963784375998
9.629617234,0.5509230413558385,-0.7632070247933677,2.792123390241713,2.251209729574958,0.3715561983432466,-0.1955601436910869
9.72961736,0.3992470550801264,-0.5293386879875693,2.7915369139196042,2.024576886478047,0.4102841174834616,-0.16114016330161204
9.829658592,0.29204020065452474,-0.2641308726111308,2.9219101858744,1.8706469075291838,0.4414697754145791,-0.08924008062967144
9.929624636,0.20630682016708557,0.024594382321192126,3.0799413307298753,1.8355214176071635,0.4340336275920392,0.03274478577391296
10.029612769,0.11254789204330493,0.323186257621683,3.1619704060814566,1.8772280315348842,0.3810668744935436,0.11415616044485717
10.129624507,-0.007760455289565591,0.6187075635992898,3.2110462125604737,1.9908588997778167,0.3402311380617225,0.1649116465953996
10.229609133,-0.1648438315242751,0.8976020517822789,3.196527411712558,2.155156217425846,0.31482600793056525,0.207447479464669
10.329619973,-0.3671658907443552,1.1424978473346747,3.158165790009057,2.389358211387602,0.30830710083289137,0.23196060331544172
10.429625261,-0.6132093359566624,1.3343130897609015,3.10356599403892,2.648423479290772,0.325332175004026,0.22872109283745445
10.529610634,-0.8927730950691045,1.458881993831163,3.0407181162865418,2.8867804105050454,0.37749812218190354,0.22088407075203265
10.629674356,-1.1930985732690151,1.5132331076948133,3.077760494303894,3.0989188988692353,0.4131703381752365,0.2118761036093075
10.729608454000001,-1.5017185765575036,1.4992972112701013,3.1102606034914935,-2.9756796564792816,0.41852655545858414,0.20816238782094307
10.829615938,-1.804845498766258,1.4199225563046105,3.163132551597489,-2.761881861072642,0.42256854463885496,0.21378432560532185
10.929613307,-2.0869216159129835,1.2776760989089027,3.1987944479540866,-2.55625594308303,0.380636655325571,0.21069739419345343
11.029625762,-2.333462129561617,1.0786719773943936,3.170333962417725,-2.3401289388987685,0.3673981673888315,0.20977897918600064
11.129660145,-2.534527728366997,0.8341670224709163,3.1640472734450524,-2.119836992411602,0.3598549882400503,0.2160602374413957
11.229672906,-2.677028206795677,0.55534392265728,3.1280078833164673,-1.8978619249907926,0.32842613773834667,0.2148348379946544
11.329668785,-2.752565080787081,0.2561069281115817,3.0762339620456833,-1.6753368679042921,0.312437013269338,0.2078535693018505
11.429618142,-2.7607458664939033,-0.04647583910442056,3.0105967711811115,-1.4602188489236094,0.3054009268618078,0.21964158497230302
11.52961831,-2.703163496829922,-0.3382621234322866,2.9549723911758865,-1.2380876799228568,0.285847659388304,0.22244768209463225
11.629619027,-2.5835052390642708,-0.6047014860369235,2.901550152186248,-1.0038173688898746,0.2912023166873585,0.2367612963166223
11.729622278,-2.4081904421056426,-0.8310009866021606,2.8322926856063644,-0.7619947417322491,0.30061726582346887,0.24301755779059678
11.829629523,-2.186652236836326,-1.0063659087387506,2.8285834003448893,-0.5255507037999931,0.31853082951735995,0.24433512037248362
11.929617251,-1.9315235248401539,-1.1218235691750285,2.7983892529920205,-0.2928604113134331,0.3524960411734845,0.25310692754365766
12.029626972,-1.6536856825610025,-1.173347752123436,2.8408468350681066,-0.05475752194047393,0.3959283717984156,0.2518181408015945
12.129611211,-1.3686146025034125,-1.1580359276490646,2.8643575951846945,0.1844655128921615,0.39592730751581134,0.24892645640289343
12.229606597,-1.0921312090475424,-1.075296299137986,2.9032879488303864,0.4159017014493793,0.40443221151521486,0.24012673503103088
12.329609292,-0.8382490931744752,-0.9304636040765328,2.9421177972230175,0.6455333319908243,0.4183688507769396,0.23118678647455537
12.429668026,-0.621022646843614,-0.7305651444065203,2.973733688104014,0.8766468760933486,0.38894920981134956,0.23162397280017272
12.529612310000001,-0.4507281486838051,-0.4853587222738556,2.9995984397735644,1.078635144164162,0.42034913724362843,0.16465642434794753
12.629611875,-0.31834534646341067,-0.20716567002483233,3.140334192597087,1.1715920325513736,0.4593633362302059,0.058470204679747964
12.729612566,-0.19253218599739297,0.08792124503621189,3.25541266900092,1.1505220480184002,0.42772767468404366,-0.04693148266497672
12.829619787,-0.043168192137653764,0.3808601112882945,3.320094620337335,1.0397604564970404,0.39046955880845263,-0.10794343457679006
12.929609815,0.1453952784618352,0.6538256256159353,3.312032335327898,0.8732909184062678,0.36888162018539483,-0.13573507785906305
13.029694059,0.3750849844774012,0.8892788825902431,3.276874259817332,0.6820294435600744,0.36020776292730927,-0.15492327260088296
13.129613959,0.6402662834645136,1.0747960064585285,3.1998282302585714,0.482706754553765,0.3494554721640258,-0.15844383852530644
13.229611061,0.9328506262447709,1.2016714304173246,3.165484740013861,0.2732117102132949,0.3567884453066439,-0.1576893280635409
13.329614338,1.2395384765893098,1.2632857809876574,3.1030977585488166,0.0727332422773504,0.3573695533872877,-0.16455806907970738
13.429668918,1.5478825258791569,1.2606667571606787,3.078280509326042,-0.12246440433990516,0.35975101449609426,-0.1524760285689196
13.529657577,1.8450553632404116,1.1957264049913092,3.0158159374630116,-0.3319611766981792,0.32445225211095685,-0.19281246215951714
13.629621772,2.1129189750709765,1.070671783702272,2.9308104452678383,-0.5629961605827343,0.3251589159501339,-0.19088609422666075
13.729611815,2.340543056823457,0.8918714308836961,2.86849796892516,-0.7804045372134579,0.32922457155687634,-0.1869448061203973
13.829611672,2.519860188730863,0.6707251746504566,2.833273629250253,-0.9953138113064118,0.3431484201661329,-0.19145506237103663
13.929669687,2.645371606539428,0.41867382911490686,2.8089266126512085,-1.217529381534661,0.3526080453656911,-0.2055279905701082
14.029611046,2.7097744924704763,0.14711685114000217,2.773946452520537,-1.4455832398209403,0.35105596995505506,-0.20974225117676004
14.129612307,2.710750751603724,-0.1297000279016974,2.7637528784509326,-1.6733053142959007,0.3690151456003533,-0.2113346222190081
14.229611088,2.6488325985397094,-0.3985370201043151,2.7536619117437833,-1.9097045165739557,0.38595525946517073,-0.21997663533352543
14.329663758,2.525911017530206,-0.6444540526021987,2.7402495571512406,-2.149654534240612,0.3842170594500653,-0.21736540309876176
14.429614918,2.3476200284201703,-0.8544936603558655,2.755665211857737,-2.3886110477459566,0.4105208301722016,-0.21169653812557082
14.529613716,2.124289482765722,-1.020288560665971,2.81046274970884,-2.6107909299774197,0.41942661962724404,-0.21305124185881735
14.629642898,1.8677595141994405,-1.1328673024534288,2.786965834976497,-2.8430414382197973,0.4042778900201897,-0.21287438102383274
14.729609929,1.591547060337047,-1.1844227118951594,2.812696830511,-3.0792840409837634,0.4031000706229399,-0.20906437079891105
14.82961122,1.3106590492169297,-1.1708385620478348,2.8225084842623485,2.976473585810387,0.40691351150552707,-0.20546312800486088
14.929613398,1.0407361604542442,-1.0943026388965265,2.8131028100099646,2.7430408630282215,0.3878877441860775,-0.2031011261463267
15.029661007,0.7961362916340439,-0.9578026642834669,2.806635003994133,2.5136476573554294,0.39034668547399815,-0.19271122856778072
15.129611893,0.5877779917482667,-0.7705650413943335,2.803454406290137,2.297525537105664,0.3864674011161861,-0.20367832433106656
15.229612326,0.42503112021346806,-0.5414870191939408,2.8290731328140297,2.086996632646265,0.4073016461979675,-0.1711957545289734
15.329613221,0.3058609492753217,-0.28132409393615504,2.9148758984961316,1.9189631213014415,0.4231244475412713,-0.11163700689525212
15.42966171,0.20851841228500775,0.0023166619412382113,3.0727812790253464,1.874446810153279,0.43995294666974816,0.017128679617109198
