time (sec),x position (m),y position (m),forward velocity (m/s),"heading angle (rad), from x-axis, positive is CCW",throttle (unitless; -1 to 1),steering angle (unitless; -1 to 1)
0.133224738,0.17390545763803453,0.18674037646255132,0.0020755357826282373,1.5341488520952309,0.75,-0.6999157175311762
0.233289871,0.1777190999131998,0.2272041505203848,0.7685676800752632,1.5062679011367142,0.75,-0.1294180213970709
0.333226095,0.19872605819767178,0.3512001037748453,1.640368911817037,1.3970759425765025,0.75,-0.18073604369522048
0.43327619100000003,0.26278854505242627,0.5450042649181653,2.346124922972399,1.2177645214746227,0.75,-0.21274579325683612
0.533255504,0.38723932609470113,0.7767995824517313,2.8225172611150873,1.0125985687722598,0.671579522455114,-0.22731740294156913
0.6332184630000001,0.5707889170953486,1.0039990154789564,2.9921936601709023,0.7906716414701735,0.508549947621691,-0.21936591362823246
0.733223339,0.803443547960421,1.192327798468828,3.0111877122561146,0.5419837915866662,0.4704511064549118,-0.2102833409205924
0.833280903,1.074368795874713,1.3229847476307932,3.0139832670549533,0.2987762392249305,0.4392624864717105,-0.20065007313060226
0.933223887,1.3683416854303558,1.387943098244674,3.010872714927841,0.0843392554010327,0.41006054465735087,-0.18573188380039088
1.033261097,1.6693143451881531,1.386598974215973,2.991763862982266,-0.1266724238431822,0.3916685369884172,-0.18499501234944188
1.133225299,1.960843495645642,1.3209025939520342,2.9649305678397204,-0.34440221147023703,0.3719790627937864,-0.1935420836891338
1.233238594,2.228011097967122,1.1944328227098702,2.93680892263859,-0.564493644840562,0.3466001656988908,-0.19863572089374212
1.333294903,2.455427514010028,1.0142061440114511,2.893360587012964,-0.7946370108870344,0.3563661901431086,-0.204371856412829
1.433275439,2.633588941940114,0.7908212864725157,2.854533682327266,-1.0190284427282417,0.36271499093408466,-0.21257355319067797
1.533309521,2.7547898511914872,0.5354987454362126,2.823319223468291,-1.254384486190467,0.3673249019895845,-0.218377268090628
1.633217899,2.8122025718977883,0.2611531518375411,2.801660362544234,-1.4939497376349324,0.3912362228131457,-0.21823104419757322
1.73322211,2.8034750112781794,-0.018601713186705542,2.8025920351008007,-1.726955282817429,0.4136063482813957,-0.22109872426565202
1.833226948,2.7301430828278956,-0.28998736761159977,2.8133084543579536,-1.9560400450650264,0.41466080983456144,-0.2188417186574624
1.933226762,2.5959940536523094,-0.5376592511590227,2.826100467397068,-2.1922650785394495,0.4662981773891273,-0.22299314390634734
2.033226877,2.4056721314269494,-0.7496100674535071,2.877758929641839,-2.4241738437588056,0.45725807845198446,-0.21918030199331126
2.133292672,2.1698662647730673,-0.9152719062928915,2.9012184037239743,-2.6520164347186737,0.43059670462850647,-0.21226900267223933
2.233278005,1.901835535845321,-1.0262944673538341,2.910052375885215,-2.8800856864063813,0.4180521669795067,-0.20202626539682286
2.333280183,1.6154018848084783,-1.0749167219545483,2.9138571361623007,-3.1114676292710786,0.4161206785705536,-0.20819845262246392
2.433267355,1.3265745962810431,-1.057360835377395,2.8837820474494773,2.9413228002180496,0.38556220318008,-0.2028550379710207
2.533223035,1.051258441012651,-0.9750451686365512,2.8915637746779774,2.7196412196493607,0.3763366978732923,-0.19898215532994448
2.633221554,0.8034404456862003,-0.8340519869634402,2.827482964230263,2.495767143384155,0.373695028768197,-0.20585502492926414
2.733227593,0.595476069366077,-0.6427678325670764,2.810110505265408,2.274291839304062,0.35717774743083625,-0.20733673278506667
2.833221389,0.4374356998588032,-0.4111065495211687,2.8106123009891637,2.0464522983695943,0.4058990358055118,-0.22110041005387565
2.933271391,0.3195401107029455,-0.1468095061400864,2.9719457156339533,1.9226370648410183,0.47595732629101883,-0.06275621841567687
3.033267031,0.20942750641767166,0.140440878792339,3.1442557056792384,1.9255360858178872,0.44593091039007615,0.04248798777131684
3.133229169,0.08121715552557138,0.4345469610681488,3.242727741835477,1.9952189348451816,0.38554323998740264,0.10722768817067319
3.233226533,-0.07886201850616026,0.7197924812317565,3.28988515840942,2.1266423463063964,0.3578462538083739,0.1532298354585951
3.333229224,-0.2761808255363718,0.9814503806640145,3.2687664717828366,2.2943748527078394,0.3081968219680904,0.17833814915182594
3.43327649,-0.5143513573559046,1.2030045429964509,3.241574193701717,2.505533410817011,0.3138949220750352,0.19906703240710694
3.533272782,-0.7889985963307609,1.369209696842436,3.2074161692597953,2.7486100699027367,0.32871753565007034,0.2108541403529911
3.633226272,-1.0883334965634748,1.4669114339862608,3.1294089189809995,2.992408192976706,0.3604274529279794,0.20638889891793083
3.733276452,-1.4000256337718737,1.4904325901008715,3.1290290172744903,-3.0654239633802054,0.40529108457473323,0.19188805790941788
3.833323075,-1.7096110608377821,1.4421153485699474,3.149540063339275,-2.8591499517070864,0.43773098091101503,0.1931205111133486
3.933269566,-1.9972433136106158,1.3279970668802306,3.0335497570068863,-2.6308660667838963,0.1776810729479052,0.22436500125021464
4.033254179,-2.238977064965862,1.1564409944127327,2.957010408484982,-2.374012562688073,0.32807733163852837,0.21040414219879214
4.133228704,-2.4349992263364038,0.9327766962370233,3.0320235340518704,-2.158130548736934,0.5230486969051201,0.17098525840346013
4.233226592,-2.583380023630663,0.6640475559360924,3.097298506807734,-1.9617948741818683,0.4156791423354101,0.17147396141658536
4.33322744,-2.675948695139138,0.36638682252750265,3.135267820516719,-1.7680442345210983,0.3562185080186862,0.17407746137729418
4.433223612,-2.7096714192094677,0.05716998338310541,3.1112528253209435,-1.564822027900968,0.33824899442667355,0.18945259484059435
4.533275036,-2.6811623359154764,-0.2492392772255385,3.0733107767248833,-1.3467751837434192,0.27656701959116986,0.19741112578401077
4.63322548,-2.5897487625579787,-0.5357065166959333,2.973242093542462,-1.1114852126641699,0.2575433813311439,0.2066885758529275
4.733283729,-2.4403362320944457,-0.7860422326891111,2.8782798564833936,-0.8695699240310814,0.27189964941127315,0.21532920642206824
4.833282797,-2.2408311617066667,-0.9860643091990684,2.8059756474509276,-0.6323757895963926,0.2893487419825716,0.2202543269073024
4.933226306,-2.0019027122577366,-1.128058631093116,2.783398334389681,-0.40091878789808205,0.34065185382554025,0.22228395839582565
5.033289311,-1.7349339601344342,-1.207486061753181,2.8073237119861685,-0.16404453670527086,0.38155438565774247,0.23689532388007428
5.133223873,-1.4536415690957627,-1.2199919417190572,2.848808736917448,0.08509136803700713,0.4156502928304039,0.2319384679987675
5.233236791,-1.174018881512628,-1.1634134418743403,2.880113989671995,0.328623854803223,0.4227760793034183,0.22137435815818343
5.33322541,-0.9107338018543328,-1.0410755973484875,2.937350886808871,0.5589730257003536,0.43711717426981656,0.21180032585783543
5.433290391,-0.6760341777983802,-0.8594511562084142,2.9958601574936017,0.7831668491438786,0.4433623985901197,0.20888974850701106
5.533255571,-0.4848175951857765,-0.6264697361872699,3.0262999471936376,1.0176839457313254,0.40903687236681435,0.20563817517337402
5.633267174,-0.3473002627729885,-0.3545954321229725,3.090571760175491,1.226761915452928,0.4297421075667641,0.11679238536389638
5.733290055,-0.24669709559677744,-0.05662924929497661,3.2119285759450835,1.2698008671393979,0.5054626399407073,-0.018061602741162797
5.833225261,-0.13975933680320393,0.2539716280928085,3.333574459723309,1.1940772489582723,0.44655123198183033,-0.10073047993259568
5.933223835,0.003654559953455996,0.5567893277966018,3.363562960386962,1.0391294789535361,0.3910263144334432,-0.1438025912317921
6.03322775,0.19252793247971542,0.8328600326068605,3.341297515184133,0.8458188021768938,0.37668626289937246,-0.15468468903892127
6.133222574,0.42605218717703686,1.065908189730232,3.292033942257676,0.644999101678182,0.38239529616471196,-0.16333850472639916
6.233222186,0.6975935857522481,1.2470985960847831,3.25383941733746,0.44335682051919245,0.3794159645375367,-0.16040832309817682
6.333225727,0.9965274239377258,1.367552890085097,3.2110358633527696,0.23903887817273867,0.3926775196051003,-0.15597193036551538
6.433279341,1.3091952508775024,1.422434467075101,3.15251935517988,0.0415829844352825,0.36427642461227827,-0.16604479987526619
6.533276443,1.621772661242958,1.4123078119705077,3.103299548899053,-0.16218491232002757,0.34505756328553083,-0.17095732812391978
6.63327751,1.9184864324209614,1.3380983957973691,3.0348387265250794,-0.3725137798486493,0.34477089595628146,-0.18199145499660632
6.733328954,2.1862012672232654,1.2042813253484508,2.9608096331773672,-0.5930090436600862,0.3406118882333535,-0.19123751229043165
6.833226002,2.4128133759416643,1.0178029879235744,2.912602427507603,-0.8165756513686698,0.34029650428300456,-0.19582678742333356
6.933224732,2.5902371236039574,0.7886611118339473,2.906193675636271,-1.030045915578251,0.36436885093579513,-0.19996116056663396
7.033214105,2.7114800057059822,0.5291246486570046,2.862741812845997,-1.259453508835125,0.36442688948611107,-0.2123529843531728
7.133285493,2.7691398621614467,0.2518773326228605,2.8210244556882937,-1.4972332216795694,0.3733121875343172,-0.21570682550436787
7.233225566,2.760658157904398,-0.030033650513361886,2.8234455130238074,-1.726383378691051,0.40278623819148346,-0.2148679726152225
7.333222602,2.6870878300968917,-0.3017567952708521,2.816184598423185,-1.95591746170485,0.4105132635624163,-0.21956739506892387
7.433266586,2.5528428513730446,-0.5496194499132421,2.8472839592646797,-2.1920147862836687,0.4168368906814665,-0.22110482207115909
7.533279497,2.3637756035185546,-0.7599970686523257,2.8281201230839823,-2.4282354151239223,0.4310191752943493,-0.2073909100701122
7.63324196,2.130211977136946,-0.9236201526139534,2.8690215081170667,-2.653780372219529,0.42598528945865577,-0.21249038258354655
7.7333045160000005,1.8651317362194622,-1.031679135468495,2.874975212074176,-2.8855526896703734,0.4122693957865803,-0.21094225848167536
7.833256061,1.582128642494187,-1.0762943016123176,2.869738526450634,-3.1228641403351727,0.41141854362649866,-0.20777770981151222
7.933255938,1.2971786226546267,-1.054848695480113,2.8534926368224753,2.932416165599204,0.4140544527044378,-0.20269317641463447
8.033272854,1.0254954056526282,-0.9694163224852547,2.8398250178183186,2.7085880733247096,0.37976760144872185,-0.19987371961902337
8.133231046,0.7811238689447804,-0.826089578347395,2.8088593760243983,2.4827262645824915,0.37276179720980535,-0.2006023725884635
8.233250108,0.5770301762576873,-0.632504202919945,2.8048753359243563,2.256988243842321,0.38432369920360504,-0.21038362261518614
8.333221625,0.4190113313965065,-0.3983113828339736,2.862830691124004,2.0524769714601048,0.4204059755820937,-0.16000738162922287
8.433225206,0.29994535401765454,-0.13251308396076392,2.966837618485594,1.9209915119378227,0.440557341569114,-0.06657815178733661
8.53329692,0.1932837117289795,0.1560401468328872,3.1495123577780655,1.908386364852016,0.46741556951399305,0.0436320903739226
8.633225528,0.07215978381287025,0.4521455892458608,3.236941473251894,1.9680601346979247,0.387984544076665,0.11175356106119891
8.733280219000001,-0.07941422420232935,0.7421473859065025,3.2909234201547872,2.086611981184699,0.40308742769478695,0.16115410822032128
8.833281083,-0.26743823399242583,1.0117182322613132,3.2836693261102528,2.254514775474643,0.307177836747263,0.18874144613054686
8.933227227,-0.4984305795249348,1.2383541750606617,3.2224280700563344,2.513350792849659,0.30084398014238156,0.22512212825903888
9.033227338,-0.7673251514454237,1.4010509851256365,3.0972196973798987,2.783958935897048,0.3343348131367657,0.2087506898394969
9.133271582,-1.060270290498852,1.4895728577637068,3.0609459780324744,3.0205902777924014,0.4005911605189397,0.19623424908733822
9.233279122,-1.3655504944296275,1.5050423643874808,3.084369975756135,-3.052894786714202,0.4425276107389214,0.18714906982935395
9.333224395,-1.6723627599087467,1.4516015798441892,3.1487327299269685,-2.8542002311440546,0.4500684783370942,0.18761542531341857
9.433285029,-1.967752818861858,1.332121571839359,3.2172998186949195,-2.6400090377273973,0.4367198227026183,0.18680186412162703
9.533219191,-2.2340797073224143,1.15185296801051,3.2370546843107757,-2.4215900906713452,0.3969269177859696,0.19027620420808877
9.633215119,-2.4568693722545647,0.9204948484052676,3.215006360279863,-2.196557339981763,0.3650443385907967,0.18645976080955795
9.733254203,-2.622858039692302,0.6494955090710671,3.1726765697708514,-1.9670004193830832,0.35180417421072724,0.1863622631706535
9.833250503,-2.7215587064800704,0.35213104585737226,3.116895840337053,-1.750102692440474,0.34581055520329024,0.18227297450764504
9.933249108,-2.7521547097941217,0.044659499588324235,3.078695367888258,-1.5303115084067513,0.3100416178536149,0.18167264908220981
10.033275119,-2.71573641850824,-0.256750200052344,3.011565697605512,-1.3076554103213462,0.29457728439878755,0.1857165618262379
10.133263336,-2.6155012980807837,-0.5370205388139997,2.9580469099149993,-1.0870611656795761,0.28365727547571323,0.19599537320194335
10.233226795,-2.4576463082611024,-0.7819013835637886,2.8992524735653626,-0.8477595395068886,0.27676184434791845,0.20443124918005867
10.333259377,-2.250720250284085,-0.9779792658350172,2.820571879444856,-0.6153472646856017,0.3084131128167065,0.20819056376984663
10.433250373,-2.0062437535773108,-1.117123245374019,2.8124231517007536,-0.3829555670787897,0.33504727190767675,0.2196643807177378
10.533232614,-1.7355071857051116,-1.1937715368760342,2.8306388292967286,-0.1473881383614632,0.36940079672197856,0.22219287881414226
10.633219621,-1.4517867310733414,-1.2040489293015093,2.8590275014641158,0.08981687817247805,0.408559623922308,0.22015957219342738
10.733222729,-1.169424685821143,-1.14583296484632,2.915040377093139,0.33504771382982573,0.42257713879922615,0.22022155560404788
10.833265433,-0.9050916893639892,-1.0215851073106843,2.961031944633575,0.5732889750413032,0.4235761742853254,0.2052586152652018
10.933225468,-0.6719751102932461,-0.8380717800756484,2.989249386011865,0.7914759485601616,0.42775737781468637,0.20698268046846824
11.03322953,-0.48228657563769034,-0.604208451915895,3.036525760216019,1.0204875001870573,0.4116523183145071,0.20223459744372735
11.133278489,-0.3440322253428392,-0.33240893235524693,3.0709026242985438,1.2106511450125,0.4358258318139056,0.1056493828135537
11.233251305,-0.23783052719789027,-0.034893750258220994,3.2185254690048315,1.2427566031016206,0.46511606165572295,-0.012097845783378875
11.333220196,-0.12350405605443932,0.2728047240245098,3.3128142729740646,1.1672677773861768,0.4519874540585514,-0.09285231892144012
11.433273858,0.02688736361493362,0.5742212544179819,3.3837103987354955,1.0237929083495576,0.3912286508421041,-0.13013444937090257
11.5332692,0.21999624813025498,0.8494828943342512,3.3469886795269486,0.839099610944509,0.3628426486264747,-0.1549979241305278
11.633408259,0.45620361261535985,1.0817866509821783,3.297686195723099,0.6340798959137808,0.37879637330059585,-0.1619421443545321
11.733222783,0.7294286396834301,1.2600654113984584,3.2448220316227205,0.42834426727884584,0.3692553219903998,-0.1585746131546777
11.833224426,1.0285594912245393,1.3762406587276972,3.1854597962991744,0.2216572632117726,0.37482243895008704,-0.16031220742404922
11.933279205,1.3403455160975728,1.4262490712042326,3.1338289003890507,0.02322626850474682,0.3897823478201476,-0.16372266607056743
12.033293473,1.6507469175758445,1.4110041474024873,3.0933756464998643,-0.17555400724149262,0.35568172750845234,-0.16961765525569286
12.133320495,1.946242950395498,1.333954287251339,3.025876918506011,-0.37710192043210805,0.34358198451405486,-0.1757292740907237
12.233226816,2.2134460469197585,1.199217734559668,2.974790496203599,-0.5920655221736637,0.3453803855267415,-0.1862014427690868
12.333252895,2.4399314537578953,1.0131992395729192,2.9155020570492747,-0.8129177247802336,0.34388131780591696,-0.1974191957283159
12.433265798,2.615822171568704,0.7861268406713775,2.860181680586424,-1.0352871982117913,0.3519443241017445,-0.20611596301138088
12.533222078,2.7338310873257567,0.528690917157017,2.8368688374169104,-1.267376048911791,0.37982191925600345,-0.20911459598980808
12.633273638,2.7890072550971388,0.25295276282076984,2.807768625907976,-1.505120192839133,0.39514410857091564,-0.21619030320865076
12.733226992,2.7788022943450787,-0.027721204062091245,2.8189314032468555,-1.7303890020309538,0.4022006888795233,-0.2137101004062988
12.833284218,2.7046962498587845,-0.2992929681007912,2.821442423047186,-1.9611360303704932,0.4184759158814932,-0.22144206664614632
12.93326249,2.5697149167940867,-0.5466132109966328,2.8339582220890502,-2.197474210490483,0.4294164528604765,-0.22078982510059694
13.033262007,2.3798692489506594,-0.754845149949397,2.810540792126388,-2.4439381347720825,0.42473729285765904,-0.21627489553034626
13.133270505,2.1452940642429716,-0.9145589392386582,2.858612097820655,-2.676309568414283,0.4356076814207952,-0.20569733694134298
13.233222963,1.877760258319595,-1.018386912336045,2.8985619600416133,-2.905245831401195,0.4464767206418224,-0.20425559637076499
13.333227956,1.5900142996941609,-1.0606586814494914,2.9323577500164677,-3.127407709714506,0.4127194222805681,-0.1922052393080086
13.433283959,1.3000156825503704,-1.0387406665014314,2.8928702254244403,2.930926079945452,0.37764916344228333,-0.20025592739785938
13.533291785,1.025196454722598,-0.9538643415718817,2.878154437271696,2.702788951561009,0.3746563573366506,-0.20107781545109443
13.63326705,0.7798200308900372,-0.8097984592477377,2.845819088680691,2.4789403829056655,0.3602748629627704,-0.20080937084863457
13.733226565,0.5745755495391044,-0.6154949450267501,2.8258022289401445,2.260752123163645,0.3715830444349623,-0.19982001974752606
13.833273915,0.4180341267092748,-0.38168619664282766,2.822203147347737,2.0367695784931827,0.3929733071481461,-0.1946609817967802
13.933299535,0.30467188002459633,-0.11668320802095161,2.9589510812638937,1.895397007170334,0.45626251940814244,-0.06253861284996164
14.033225995,0.20126533826808266,0.17316595513777316,3.1456244448313098,1.8985718343605025,0.4415268253812385,0.04633497597131432
14.133275036,0.08224904937396096,0.47025940481875655,3.24007790960033,1.9597319722355895,0.40687772932575833,0.11548196164970448
14.233221772,-0.06735908638018809,0.7594063162903743,3.256603415464939,2.0884881338705896,0.33056661819232824,0.16492857985289108
14.333254123,-0.25683475870647804,1.0246817555954988,3.2554719088271766,2.273628656642175,0.3066000373765393,0.19542304869079308
14.433279849,-0.48950561727310743,1.2485719474657506,3.2126063156387867,2.505037700665625,0.32316527232237907,0.20836386297445206
14.533227187,-0.7606493423839724,1.4138730929076169,3.1513083755904874,2.761476005691199,0.3380643761940148,0.2130849608904988
14.633284237,-1.0571744409894344,1.508151421371544,3.081267961997864,2.9975710727355995,0.37802548592402935,0.20321630477420252
14.733226619,-1.3673554132552859,1.528900844826655,3.1169035561624647,-3.064764352558059,0.4246277415617877,0.19113006966142412
14.833270065,-1.6773347947080015,1.4801389143031056,3.155123066563652,-2.860614518038931,0.43340263961701664,0.19260748853938134
14.933223695,-1.9745142574128312,1.3642902962009362,3.2040175098994492,-2.648663837227506,0.42004015100485864,0.19314359981597332
15.033220901,-2.242884192982822,1.1881295385067283,3.228346782667683,-2.4411769200009252,0.3855363937480729,0.19694759538251114
15.133222878,-2.4701540453659523,0.9602748019353955,3.2192220583540374,-2.224818739541798,0.38463542016834695,0.1971118734751684
15.233220669,-2.643220342144881,0.6911046745038143,3.1971617166976647,-1.990759494756111,0.3454890509635936,0.19416242203686127
15.333224725,-2.7498273282810226,0.39404741340847993,3.1407231863331866,-1.7736431493927363,0.326541781175772,0.1858167377421058
15.433220393,-2.7879568409978104,0.08521188922147732,3.1097165119580312,-1.5522939465158567,0.32457480595974697,0.191886883404104
