time (sec),x position (m),y position (m),forward velocity (m/s),"heading angle (rad), from x-axis, positive is CCW",throttle (unitless; -1 to 1),steering angle (unitless; -1 to 1)
0.132746958,-0.09477796904746025,0.2034674661913412,0.0011589351413718856,1.7096906950030952,0.1408247932482931,0.028233621860533666
0.232692636,-0.09477880949419523,0.20347814070510992,0.0011657671036513473,1.7097364792379477,0.75,0.09699600204075477
0.332643067,-0.09475294045641444,0.20358418893634692,0.011378379277769184,1.7092481115145413,0.75,0.1512676331925159
0.43264922400000005,-0.10374766651475381,0.25192406355624347,0.9094724579735587,1.7220813835604791,0.75,0.21375250990678785
0.532693221,-0.14561954560273777,0.38425597008495266,1.780484539410102,1.8793415795666528,0.75,0.2923894978612906
0.632681583,-0.2492829878389871,0.5725346448765107,2.4321590378085114,2.1280754548801277,0.75,0.3172701352590046
0.73263962,-0.42594063981718555,0.7723633977323974,2.818801785781014,2.3952168022273588,0.6209234672442714,0.2929391335683694
0.8326414560000001,-0.6620668943157699,0.9368690532211924,2.9152943322806784,2.651793277840847,0.4594678668326927,0.28296765187603684
0.9326439460000001,-0.9354639195382312,1.0412147310654334,2.9366855636566322,2.9125786345528373,0.39846453317552777,0.2657325885984457
1.032726904,-1.2269987418879043,1.0763408964289247,2.938642126336148,-3.1099394738146278,0.4100906407462303,0.2511544524311198
1.13268601,-1.5189304013684402,1.039928785747625,2.9500517692758033,-2.8660092770388954,0.40344772567436016,0.24034730319272518
1.232650204,-1.7940915657751184,0.9343487769216331,2.9479823445469013,-2.630474698802082,0.38181123022527946,0.2248316757101262
1.332681341,-2.0367825732824762,0.7671757677066139,2.9570436915597393,-2.408645752161141,0.3855900766066723,0.22871597044898342
1.4326464840000002,-2.2353560209491112,0.5491947644973917,2.957214500979144,-2.1842161526325508,0.3359598430610037,0.22560396450799516
1.5326490270000002,-2.380131917487372,0.2931952685756873,2.9402747942455476,-1.9521610529017177,0.30636104977467726,0.22546571982166594
1.6326441200000001,-2.4611442199153313,0.014297190468539195,2.8839780814707647,-1.7232001387142777,0.2976744983802139,0.22717811147880634
1.732645604,-2.4765457816562466,-0.27071814583671877,2.8399294192029365,-1.4971277451933276,0.2832056126587513,0.23485755881762865
1.832646659,-2.42736887320021,-0.5471106024990351,2.7936586227348648,-1.2637836034501373,0.2728953437998135,0.2414512314159856
1.932643948,-2.315962336593978,-0.799737225155867,2.7413389812850606,-1.0234189999434178,0.3156804563646283,0.2510679124175278
2.032651911,-2.1488529663824356,-1.0158045596776506,2.7320353632025918,-0.7848684673358245,0.3028058273715982,0.25501337021089215
2.132713159,-1.9361709647647554,-1.184456372878742,2.7107028882697333,-0.5558725952606165,0.31788696808294625,0.2558044869252255
2.232642752,-1.688168626214768,-1.2969802946744307,2.725064234435813,-0.30725476105576627,0.3515649849737918,0.25986522730941075
2.332708063,-1.4193250657837002,-1.3464650521074208,2.7330001838667766,-0.05446606906284952,0.37719233877135316,0.2634618333789207
2.43265257,-1.1434201927908882,-1.328547361665867,2.7848609430450604,0.1900975658758452,0.383922883627833,0.254974869093794
2.532690498,-0.876332934643377,-1.2433383268817702,2.81960618658936,0.43158865591979323,0.4038006087104244,0.2469931154282987
2.632740674,-0.6324718920689842,-1.0964688683294102,2.8757952154054554,0.6638436608832413,0.41855313861403337,0.23900747934690902
2.73264161,-0.4242020633200607,-0.8958096624563949,2.9229879952623445,0.8846402520415759,0.3920319220079134,0.23068404598759795
2.832639878,-0.26144953009345073,-0.6512225349276798,2.9660878590235877,1.1007302744924525,0.409580624886252,0.18066580865076837
2.932702009,-0.1393718689846134,-0.375734133106563,3.06004480614684,1.2088939789872866,0.43138860861020234,0.07223244403951098
3.032689478,-0.03031496103687803,-0.08380192664330832,3.164318347435398,1.2042490579628016,0.39960112126681274,-0.03877324220010257
3.132715927,0.09924650897645242,0.2068603335640471,3.192930729923414,1.0877385877805035,0.36686000023828086,-0.10923405754204185
3.232645481,0.2683200970718757,0.47808409668700147,3.176720658482136,0.9133783057711905,0.3501396740923364,-0.14658995436613068
3.332690826,0.48079902463545254,0.7108503299576977,3.1277957794940097,0.7069182297927011,0.3351504592854548,-0.16086325664697615
3.432643783,0.7321340709076939,0.8926640323325679,3.0817345166099672,0.4947072889145886,0.3454008328640319,-0.1591573320216188
3.532691543,1.0112547756930643,1.0156898396680296,3.0327523513281136,0.28287277123137866,0.35536249983127444,-0.1578196077299535
3.632698848,1.3052360171648747,1.0752281118328952,2.9822893412085114,0.07377189366081856,0.3471042565829015,-0.16402395371917386
3.732725756,1.600733616809318,1.0704327448027917,2.928614102160006,-0.13256033579620932,0.33734028488136564,-0.16681832502566296
3.832685547,1.8841902842646576,1.0035089854819217,2.9087673710099966,-0.3458318396089686,0.3416035613310303,-0.17211429989349172
3.9326459060000003,2.1422478073148783,0.8785460704397902,2.8540702217875378,-0.5672717751165564,0.3321145181060846,-0.181536080820626
4.032670511,2.36215571491915,0.7014512981724698,2.807432549263499,-0.7921592431615253,0.3329326073412056,-0.18418522148845562
4.132644151,2.533665861205568,0.48301080414536446,2.7456396298175294,-1.0199102932047273,0.34467749523432967,-0.1839596960517272
4.232682848,2.6495836267902404,0.2338883511994142,2.745176798647684,-1.2467314805369702,0.34418018685049284,-0.19576679456313145
4.332643569,2.7048062937913113,-0.03356124336438815,2.729780962873126,-1.4775964042012508,0.3491832256364667,-0.19586134215396844
4.432647105,2.6970164036381057,-0.30473312622055704,2.701906504657886,-1.7099099694092434,0.35805043431574485,-0.2012202254782071
4.532641231,2.6273710608228042,-0.5655904578995853,2.7002640690481807,-1.9456205170142633,0.3678893248756348,-0.20574206735213107
4.632720956,2.49775106803992,-0.8016041541787347,2.6839567772212907,-2.192493488622674,0.36805119942442854,-0.20223196377866365
4.732720502,2.3155720695057793,-1.0011460272168013,2.6980721144041655,-2.4246414779561762,0.38855490765662865,-0.20268440323079576
4.832751274,2.0906955601224877,-1.154719129237148,2.749899580441924,-2.653421012082679,0.3988681012563493,-0.20032926886294272
4.932737135,1.8350429436930478,-1.2546604714908747,2.760827014528491,-2.8862642739546414,0.3916701816060898,-0.19831274674736452
5.032752368,1.562103562254698,-1.2932658517184332,2.76980719401085,-3.1216878243133,0.3943295721125309,-0.1968272077722452
5.132713091,1.2865702490028077,-1.26818485891709,2.7846022363105387,2.9306297880775576,0.4107848048331642,-0.19287043925098593
5.232715874,1.0233050376016082,-1.1816816071362435,2.7795032177582826,2.6984024355936307,0.3895158439604721,-0.18745731135876906
5.332642572,0.7860015134098113,-1.0369600221838209,2.7869946764038205,2.4710442633567813,0.3846831170040378,-0.18300687897834395
5.432640134,0.5876515140932728,-0.8427722009322552,2.781421951733995,2.2466065340997505,0.4025024479082694,-0.1882962568550039
5.5326479729999996,0.4365863635828881,-0.6091605125791872,2.7845526798130913,2.0295770420268684,0.3931284372791328,-0.18003771458798196
5.632647573,0.33773196660795,-0.3468214900260832,2.861997286343725,1.825756221526743,0.4070312889200368,-0.10396021089181831
5.732648575,0.2677311393814371,-0.061211489348402454,3.0056362218663333,1.7769713884630585,0.4663111716483962,0.03504814668161622
5.832677929,0.1919580897765536,0.23709389763906225,3.12084218734856,1.823633322410502,0.380606064991802,0.12524680118904635
5.932649452,0.08695302369501755,0.5335059950373121,3.1529305934639495,1.9501914395956776,0.3286342416864928,0.1830754194739148
6.032646895,-0.060417698874797865,0.8120967323063331,3.1375562883385166,2.141495164847826,0.3134153483653146,0.2169574896612344
6.132651824,-0.255321083726774,1.0542370618565853,3.1034798493499927,2.379146502631149,0.32025894113359293,0.2329041894083912
6.232693518,-0.49565226443191757,1.2442192074947276,3.048520272351564,2.629223538068677,0.3401517712547253,0.2287220337907114
6.332648105,-0.7707351963823459,1.3700677247463864,3.019468433033898,2.8691496113242665,0.36793044155733023,0.2161975619680682
6.432683029,-1.067031486534445,1.4273035403371643,3.0381429623806353,3.0820368074447724,0.40520508084444123,0.2109822044019745
6.532698466,-1.3719979170553025,1.4170241543067106,3.069326037315354,-2.997112687449697,0.3946063180372265,0.2040334117571908
6.632642177,-1.6709810108418828,1.3439098908594311,3.0789414233593395,-2.7926284172994964,0.30918531973753033,0.22365092449589122
6.7327397730000005,-1.9427580813012966,1.2099081718198865,2.994453668536638,-2.5491847671218664,0.2519624156877485,0.2505070853226596
6.83269789,-2.1712785221643665,1.021292254130567,2.9512358407175956,-2.3054419206573304,0.3473790106673285,0.21568089137301522
6.932709464,-2.3512948263164235,0.7866203516587292,2.969781066361597,-2.104748436897381,0.3777088036249224,0.19783890027356393
7.032643715,-2.4799444862835127,0.5169951495034681,3.006498244523757,-1.9103639784754298,0.3583734080182062,0.20608342066751706
7.132734227,-2.5512565491957773,0.2261226572604039,2.9852041692436275,-1.7055420552606035,0.30785991055230155,0.21655556566674403
7.232719138,-2.5603799736253823,-0.07018920839118759,2.954424972920588,-1.481859610706067,0.27701093355432194,0.22689692598944924
7.332724087,-2.504640832034355,-0.3554615363190855,2.8901977865573842,-1.2456325439241211,0.2760397914819423,0.23401753178281903
7.43263886,-2.3881940119504033,-0.6139448632644311,2.816174410126666,-1.0029175296992583,0.2798426200656843,0.23840798789405085
7.5326940570000005,-2.215670460309551,-0.8318476269052711,2.7687593521393983,-0.763625998312682,0.29715850275915534,0.2362817511644858
7.632744958,-1.9977933844463318,-0.9991866925530963,2.7533798019368474,-0.5248036091901868,0.3228494434096024,0.25358766182496273
7.732743631,-1.7462653742421153,-1.1082919723957336,2.755244088780857,-0.28751425799070846,0.3569147172657279,0.2484329791490002
7.83266952,-1.4744735692609903,-1.154791379110612,2.7795641687001775,-0.04626973800316331,0.36723248360414246,0.24635438021033348
7.932667498,-1.1959871017170944,-1.1355068737693437,2.821352502165523,0.19473139241321513,0.3783040651538646,0.2408060275420982
8.032731868,-0.9272451194222776,-1.0511256696577715,2.8443340769975634,0.418658046979909,0.3947152128682921,0.23891685073480878
8.132691403,-0.6813116889566101,-0.9070274183731,2.8744230887652926,0.645450640741052,0.3817088513147757,0.23622597289535985
8.23269321,-0.471144522053598,-0.7097475816884004,2.9120828972114174,0.8786988983240962,0.36042797692754125,0.23288210223155423
8.33272112,-0.3104464968142165,-0.4683986117114491,2.913164672949444,1.1102370120744607,0.37171387617051527,0.20750248775768926
8.432696333,-0.19770920418059768,-0.19738748541890805,2.9686015647505632,1.2429463201449953,0.4079344964857188,0.06357698887783836
8.53270001,-0.096975688788999,0.08923548900865054,3.0815562480177867,1.213481157259868,0.4071251735996983,-0.05679111365702503
8.632649031,0.02987123662873593,0.3733029461399591,3.1288419464555437,1.0769257550305902,0.3752589437662809,-0.1210592078609625
8.732697517,0.19950046282420714,0.6363605802276449,3.1158815851723847,0.8911200762733263,0.3694838395087605,-0.15157775697646783
8.832641384,0.41281279807943033,0.8595338993131387,3.06922888087217,0.6796520426044028,0.352440835643524,-0.15821810541327766
8.932642613,0.6646769943490887,1.032269317918454,3.036824488562951,0.4666983825973099,0.37266636901292177,-0.15336551832272347
9.03264367,0.9448337748241801,1.1467233489893305,3.0122675163745156,0.2517218676611409,0.37599201674835153,-0.15977655901811605
9.132643243,1.2399838725161247,1.1973023755712893,2.98832950854181,0.04357327884037277,0.3666771833241009,-0.1590264049010489
9.232734601,1.5362198234087385,1.1839337207229754,2.9643484279900236,-0.1652399340786941,0.3643126526375068,-0.15232040825713208
9.332654013,1.8195903117349526,1.1089805184921047,2.920684045943029,-0.37770709787005996,0.36876809817007594,-0.1660238145409507
9.43265161,2.077896686022503,0.9768420270279188,2.8904453720553174,-0.585326782947584,0.3449717634185018,-0.16629372716004445
9.532645374,2.298324449694082,0.7946169144321815,2.8521589780288243,-0.80290917475623,0.3494868259106621,-0.17108178595398169
9.632711794,2.4714319309984583,0.5723210965307906,2.8079944645024493,-1.0270856617498965,0.34158587514874056,-0.1844467705960775
9.732718273,2.5871544057563076,0.320839034973002,2.761339969785316,-1.2618466364274832,0.33917705736703946,-0.19175704939242078
9.832685377,2.639180501995925,0.052328407189766904,2.735134488810443,-1.4965265734700193,0.35981267621568613,-0.18082101165233777
9.93269991,2.6286441337499538,-0.21950275063206054,2.722509627654297,-1.726357547984537,0.36160123320622833,-0.1918433407869205
10.032749421,2.5562364195825946,-0.4815130654979266,2.714936583523121,-1.95807016940922,0.36240869603179826,-0.19280938267753844
10.132721886,2.4252547489379985,-0.7183389049939067,2.700406926592411,-2.1922781078136664,0.3698755862617357,-0.19707275025419616
10.23270059,2.242552705756268,-0.9184317660391519,2.7292674277651296,-2.4259055300708408,0.3923190783334725,-0.1977291774024707
10.332656188,2.018431076790984,-1.0734394177451536,2.732962128254297,-2.653629624103326,0.37919492012793693,-0.18904533149168648
10.432694987,1.7637669160209903,-1.1737541186102585,2.738037406679978,-2.8902385818319574,0.39415315493506675,-0.19029915815967638
10.532709285,1.4922871298141447,-1.2118295689287788,2.753869360542174,-3.1247027615994196,0.39414939571899854,-0.19245258915547578
10.632732049,1.2177639814668089,-1.1866778387117123,2.766043492646651,2.935453237524894,0.3812045678574832,-0.18135648648768257
10.732647175,0.9553224272524189,-1.1013888911078595,2.7613891538528987,2.7118566406712246,0.380668534440046,-0.18930907328377958
10.832697011,0.7189531475079154,-0.9595630755051969,2.7660194987355826,2.4820591312256055,0.38574356530296144,-0.19259322759145797
10.93270276,0.5204162325680464,-0.7690027893485185,2.74043729516946,2.2588568554491153,0.3765916061716515,-0.18820202446863887
11.032710927,0.37060126161224743,-0.5395419894043046,2.7353151457830345,2.0262871290376103,0.402077631115422,-0.1748442543600194
11.132685093,0.26803250331151945,-0.27949409974209677,2.848899548063772,1.8505086155937465,0.4351500570476193,-0.09982512903955867
11.232698567,0.1945193707980442,0.004044970315647174,2.995601330981315,1.7848758664442697,0.4126445751767242,0.020166718259974674
11.332652744,0.11846320458086072,0.29981227872867033,3.091303829660211,1.8190302131124327,0.37608949524416085,0.1188427481664812
11.432717307,0.015409864455446827,0.5943454161706871,3.139420921986744,1.9404791659385128,0.34089498576994454,0.1843927156488449
11.532649226,-0.1287083709516171,0.87323558304648,3.1465735066344873,2.1245649151173644,0.30458101819707595,0.22279483649981963
11.632646682,-0.3198241907916105,1.1179401376027518,3.0862330685031285,2.360214386427856,0.3020514652407387,0.23717004775711584
11.732698047,-0.5560078001635874,1.3107454971866248,3.0344138888970047,2.617611455506772,0.34744234164154364,0.23834894010772908
11.832697892,-0.8274494073761743,1.4382873082261394,2.9903211407894013,2.866294648519066,0.36685870863872805,0.22456450446094162
11.932689166,-1.1204359321324195,1.4960372772709136,2.9980067472339087,3.0924489673688536,0.39573565900627966,0.2143241035863909
12.032704746,-1.4214303095448544,1.4834214129472245,3.0338956630433156,-2.9753804135336392,0.41586773182206727,0.20582064316232354
12.132688673,-1.7163711996359148,1.4048473289309766,3.083830008800086,-2.772174115177697,0.39899802950354574,0.20722825844917991
12.232705458,-1.9932266102195089,1.265740688421301,3.122028985048646,-2.5761590549658333,0.3733840936519121,0.2072020717573184
12.332626071,-2.238311203781535,1.0734624069176064,3.1027221035107875,-2.361141433619337,0.34589244011375914,0.21919364570512884
12.43270214,-2.437273848476779,0.836409307398602,3.1020658556617366,-2.1301121574982513,0.33157166484384587,0.22146661173163576
12.532672621,-2.5773096181418134,0.5638411524125067,3.0587915422812473,-1.8983290823988122,0.30321526355807554,0.21604062957222486
12.632712897,-2.651476308408104,0.26985048837156883,3.0233297123473553,-1.6816807185525147,0.29702900041410335,0.2163095957309006
12.732726691,-2.658961062500434,-0.028957743361680863,2.9787291438994856,-1.4671068426865692,0.2991697817543442,0.22231229305209899
12.832725734,-2.6015934029876537,-0.3182436157625393,2.9323157734717684,-1.2397883576654205,0.278213680485667,0.2290027909543693
12.932640371,-2.482902458793307,-0.581935618823693,2.8705618640556536,-1.0034390443372907,0.27679003888284004,0.2371954756163506
13.032701267,-2.3091973679102957,-0.8064098225179869,2.8175093117511545,-0.7696884986883459,0.30233243085392403,0.24258433648643327
13.132735948,-2.0898317659579186,-0.9810064302282189,2.7937941894126705,-0.5394228847060037,0.3128569482237162,0.24560915979590192
13.232736595,-1.8363857849594638,-1.098795339635877,2.800088905219111,-0.3083866148989609,0.33572402421743996,0.24939548631209793
13.332640944,-1.5623109660277539,-1.1536012485759637,2.7846106466226646,-0.0674274262328877,0.3767042787051986,0.25301390865711293
13.432726482,-1.2827767349554713,-1.142395336614698,2.8212294157837783,0.1693657100061832,0.38478291515535,0.2481089495300056
13.532710006,-1.0111080697823176,-1.06389197397771,2.8546257214131057,0.40619047606597947,0.38739462796433966,0.24554243231941067
13.632709111,-0.7610637222972022,-0.9242764739850229,2.8913033987651553,0.6313997540864628,0.37929114852679136,0.23634704410162813
13.732668964,-0.5462735995002463,-0.7305797029698401,2.9079832682489695,0.861298157188944,0.37745407031993766,0.23707789701097448
13.832699191,-0.37690458299567264,-0.4911558862694367,2.9575244302807167,1.0732251257190173,0.39350912314126013,0.1732052584927405
13.932701305,-0.2503428024340307,-0.22047531364022965,3.03651426212718,1.1901711954364658,0.40090289120092487,0.08437515033831045
14.03273747,-0.13780596354426478,0.0669811486498163,3.135883300392163,1.1880706662079676,0.4048623639483136,-0.03799600613853507
14.132726557,-0.004878766698120139,0.35421206613624073,3.1693477224342597,1.0742890844708182,0.3681535320853478,-0.10842356975207641
14.232686806,0.16770550756614988,0.6223880448302096,3.181440755419382,0.8970907184081144,0.34866768902809114,-0.1472669918281503
14.332748698,0.38279776793288905,0.8508536206792892,3.113689058008016,0.6904491921366249,0.3552168159354961,-0.1627460372011661
14.432692039,0.6350367079833643,1.0294900781782677,3.0555789018409643,0.48226456384936456,0.3494204615628449,-0.16186151050172587
14.532721444,0.9156572086255186,1.149543010273904,3.041659580594787,0.268523542516101,0.3648159867268483,-0.15862997765284484
14.632723784,1.2114204569073836,1.2058515521648194,3.0017045337042845,0.060445655975965816,0.3780398490388041,-0.1652477821420814
14.732644931,1.5093634211280957,1.1978510135648204,2.964360916189441,-0.14867523860680273,0.3589327834865826,-0.16133786120627733
14.832701123,1.795045404050895,1.1278457583596484,2.9144280466831325,-0.36344986296330717,0.35281598370984263,-0.17268363104963036
14.932701525,2.0547530120645203,0.9992672632210925,2.883841954175691,-0.5770291112389389,0.3530908899146441,-0.17713944504372425
15.032697327,2.277699804030723,0.819375218605292,2.84685948715243,-0.7906925944210834,0.3404811593720171,-0.1753601525435712
15.132640472,2.4544437274164075,0.5987493419459442,2.814024366430168,-1.0073423942492419,0.34209626496543244,-0.1873421049724873
15.23273626,2.576383176934455,0.3483521450398969,2.787114405113237,-1.231580209220936,0.3492587351037111,-0.19669583985862002
15.332680852,2.636963310392045,0.08015801840259763,2.741859564294309,-1.4619289041806047,0.3461957200295453,-0.19415509209174373
15.432728266,2.634806172227431,-0.19272762704462618,2.7321349331868983,-1.6915837198202244,0.3614679718133839,-0.20303942292144203
