time (sec),x position (m),y position (m),forward velocity (m/s),"heading angle (rad), from x-axis, positive is CCW",throttle (unitless; -1 to 1),steering angle (unitless; -1 to 1)
0.135317859,-0.19822556087705095,-0.3711671944601602,0.026437896700802613,1.1454678639339761,0.15533655361332382,0.023344747517293644
0.235298148,-0.18724077813861167,-0.3441291546932521,0.5166876402839343,1.1514139772180716,0.65,0.10352889160148872
0.33532018,-0.1570523277195779,-0.27044469023554,1.0200508941195872,1.1835750881081197,0.65,0.05923406455425209
0.435356465,-0.11315968170966773,-0.16253639842052436,1.5116782466223355,1.21035951111353,0.65,-0.02072191548404599
0.535319618,-0.03749776515455152,0.021788639762586798,2.0550600363125398,1.1979632371818116,0.65,-0.09852326694155016
0.63530535,0.06175370084077872,0.23532397324561052,2.5935397140362513,1.1236018716464393,0.65,-0.15301322923757274
0.735297737,0.20586768459497068,0.47407749046074693,2.915939852777079,1.0021355775921932,0.5913139988162632,-0.19809163867738894
0.835302293,0.39596924034736825,0.7069304744887688,3.064970968490577,0.8343258282917106,0.48122613456400615,-0.2339253994674782
0.9352967790000001,0.6535837300358522,0.9260302065557189,3.0799398417584896,0.6015029992768278,0.3783206603369852,-0.24481427730633598
1.035319117,0.8960876449878399,1.0578555550895918,3.064565454133162,0.3882463341138992,0.3571293493768283,-0.24159882479898895
1.135299298,1.1877523424741407,1.1414394061147195,3.0227968601027664,0.15544511360977392,0.34512113915958886,-0.2511379010759108
1.235320764,1.4872270899037368,1.153705691525854,2.989968471724318,-0.07394943028381246,0.3457132338261226,-0.2490114792909961
1.33529865,1.7782068379272418,1.0960610960402055,2.9593791442599438,-0.31520881408039403,0.3780318866977476,-0.24652316549445952
1.435297878,2.0470050408915914,0.9720261716127969,2.9592269268879585,-0.5419623234142824,0.37140604888838985,-0.25068292445206963
1.5352958970000001,2.279705161600997,0.7895285667619785,2.9583991272992085,-0.7754264183106151,0.3633049267106672,-0.24370548819189103
1.63530387,2.4788139006756,0.5333391678444881,2.9626636299690032,-1.033241574647821,0.3664081147480649,-0.248830533783581
1.7352960290000001,2.5972959022442264,0.2652277730787186,2.9092383299816014,-1.268681414797084,0.3583775406221674,-0.2533216297224284
1.8352962879999999,2.6479587718630375,0.0074340531782088,2.924932653655495,-1.4778979631524227,0.3530189750212033,-0.2490269337299979
1.935312046,2.6403284617402796,-0.2829850578511639,2.9153374397898277,-1.7074825586850397,0.3603878672388878,-0.2503612297642636
2.035404672,2.566267590174415,-0.5613427332188834,2.8716491981801684,-1.9517553263280027,0.34762531638444805,-0.255437870269584
2.135299056,2.4284279868836927,-0.8118900960319816,2.8598335800401156,-2.187045906493235,0.3379072003095585,-0.2536912068118315
2.235303542,2.2354654056106016,-1.0231722944942139,2.8728644760357698,-2.411976421502066,0.35970921714027193,-0.25192603142149245
2.3353225760000003,2.0002041485271183,-1.186724197469269,2.8838671954854598,-2.6306043028684147,0.34800060175797987,-0.25367161359335844
2.435311808,1.7352754452022607,-1.2928871873990615,2.841797405122743,-2.8772577787167974,0.3532428796949554,-0.2674666071531959
2.53529438,1.4527933907085615,-1.3328378718333587,2.861521253792471,-3.117244289631031,0.3769580237712011,-0.2690242963601679
2.635299434,1.1689412800888068,-1.3043066400998438,2.8466608423802033,2.924571920916168,0.40845927607079324,-0.2675232287373094
2.735298465,0.8991948426520103,-1.2099530311445117,2.8714029162155157,2.682980475059538,0.3129126499635611,-0.26217210894788834
2.835302434,0.6637351027546193,-1.0545652828932706,2.814250351820618,2.4347631837410333,0.367855955242122,-0.27313963210654907
2.93538787,0.47408030967592124,-0.8473611052136701,2.819924476049299,2.190734704369783,0.47977905338128907,-0.24332332904696602
3.035295572,0.32928338502976273,-0.5972669766712383,2.966282607537059,2.0113731488175683,0.5187399624994724,-0.1471042759573381
3.135298475,0.2066444680059884,-0.311287301067342,3.2089632155725707,1.9749657182340923,0.49092237453367854,-0.04016208402292331
3.235312228,0.07875141546460818,-0.007089433795994237,3.3578661436910338,1.9983550779384716,0.43881046948843533,0.04348714588712768
3.335296945,-0.07246597880647142,0.2984488470440329,3.4484237986717727,2.089547502387978,0.3491403524503881,0.10068144457830565
3.435295857,-0.25791185559650265,0.587692540236285,3.431969080024596,2.227090792079775,0.29311381947509496,0.13964014119997228
3.5352988080000003,-0.4573647805089054,0.8210765107346335,3.384721084939764,2.3903439185705992,0.28630686078179324,0.16571741320858974
3.63529635,-0.7418821757595742,1.0529695385897242,3.296638570765388,2.6253886770654744,0.25896275275012953,0.18314920580970093
3.735294177,-1.0295931932605837,1.197143415152996,3.1721511316565874,2.8612312116403813,0.2623281820542757,0.18857079161857576
3.835299192,-1.3015360161796838,1.265740727061489,3.074358251360372,3.0621293962665455,0.29850528122067344,0.18585347856004436
3.9353165050000003,-1.63546167768303,1.2699505139492984,3.01350664557672,-2.9826290587244215,0.3187916341255658,0.18442377127341
4.035301896,-1.9268405888336178,1.2026797667698823,2.9748648914743008,-2.7590915252872534,0.3237392273595402,0.19913555647021516
4.1352993829999996,-2.191995257181397,1.0737071347490978,2.944086609543047,-2.5393272581823463,0.3386015596650279,0.1963819360982307
4.235300768,-2.420613221245895,0.8906011047743322,2.9303622024241984,-2.3370466185769936,0.3502029697214913,0.20627694057332063
4.335295026,-2.604729283290947,0.6631465179969533,2.928199188349641,-2.120015075780132,0.34250298939800455,0.20917184266222277
4.43529728,-2.7350314624597014,0.40057853646218444,2.9399411166301275,-1.8964623408388523,0.3543048259476634,0.22557023553816394
4.535362264,-2.8076705527233816,0.0873944732925692,2.9236117977150453,-1.6428615151774175,0.3644220813695527,0.22989155824673743
4.635300865,-2.8081804429572927,-0.17568083628973002,2.9495456872619195,-1.438775565476509,0.36619157240208944,0.2183573676585693
4.735394699,-2.747591566276422,-0.4608974747281077,2.9284450566932994,-1.2106382239858555,0.3921232162954069,0.22074777159049594
4.835298953,-2.623829275063671,-0.7256312204186001,2.9304993514112416,-0.9791637380362721,0.38662311339864924,0.22585371945677965
4.935297144,-2.44262659798736,-0.9551060089178144,2.9209005996468798,-0.7516354944381186,0.382556881583129,0.22341002201682714
5.035393742,-2.2142992944154534,-1.1379819276050456,2.9424082602870962,-0.5251318198463962,0.38524122018726437,0.22147624480242584
5.135411258,-1.9508196486148452,-1.2647775690974157,2.9415977938450824,-0.2998453910095067,0.3861447466446314,0.22132248439452598
5.235385813,-1.6649772574463249,-1.328497701092985,2.9357804246994483,-0.07522519112345154,0.3674499463449361,0.21066834992881686
5.335300645,-1.4011086486659456,-1.329751643994623,2.938027881079947,0.12679978051651108,0.3724634320221211,0.21963793029192322
5.435297594,-1.0873459477912868,-1.2589419419745171,2.923371814332947,0.38928934110353036,0.3833725755831338,0.22242260705314454
5.535438258,-0.8263151348436273,-1.1286987442919736,2.926545362844112,0.6107842007593347,0.3706653527698769,0.2097038927309787
5.635311344,-0.6006478767591666,-0.9436864475136121,2.9336387569707725,0.8266163361077022,0.3776745462916814,0.21981116952921165
5.735407316,-0.420417381126237,-0.7137704389294988,2.9367508170970993,1.0524254285901755,0.3962254800980972,0.21942031396082268
5.835295627,-0.288880046347596,-0.44825903768367853,3.01166529295724,1.218541037356112,0.4453373888995279,0.09501714002195193
5.93531084,-0.18369184348615794,-0.15756043409999426,3.1571164857611578,1.2449682505403779,0.44851793944140916,-0.0319821168072309
6.035421174,-0.07342323146148995,0.1466487271907251,3.2841811651246657,1.2150920876278242,0.419380471428306,-0.10151131294027813
6.135430663,0.057150671399477895,0.4513372628988425,3.3138400262232115,1.1165983600376646,0.3579267868488284,-0.1598110250496209
6.235300297,0.20642845384576272,0.7102019199778077,3.3020272939349042,0.9616483184654495,0.3046334860022979,-0.19172507719423382
6.335402727,0.438796468336188,0.985192503566788,3.2469640729942095,0.7362950981802961,0.303447683935316,-0.2053278858909716
6.4352979470000005,0.6921511232094402,1.1797096537964025,3.160719662897377,0.508373980292272,0.2978504657128135,-0.22275416788170363
6.535295991,0.9759476606246631,1.3089625813793957,3.0867364236236554,0.27747614717831004,0.31353205197468664,-0.22342738210430527
6.635348174,1.2761015259034771,1.3672308709034746,3.0283470398998027,0.05103722176049667,0.37156354736220343,-0.22875693037383102
6.7353992510000005,1.5790656867499073,1.354961610529575,3.0268082906149125,-0.15983894057507964,0.3579902827051742,-0.216364468075179
6.835301074,1.8703903342114128,1.2766162399756351,3.0359245624369344,-0.37984780697046594,0.36862347808105655,-0.2354259675325361
6.9353029930000005,2.136074435092093,1.1357521517883027,3.01940602104594,-0.613070529307682,0.39804454547938245,-0.23875280230799503
7.035322226,2.362387596876862,0.9386398103144517,3.0105960852362066,-0.8386560066758741,0.3737161666314216,-0.22852454374621725
7.135325592,2.538892184360726,0.6954012048841248,3.0017048094792673,-1.059052812008912,0.36950748616898876,-0.2348886137022192
7.235296076,2.6564125294685454,0.41998174514140835,2.9934336634594203,-1.2945214537514302,0.3856803793673514,-0.24017557977275786
7.335307244,2.7068718098293645,0.1271117881350424,2.9742147964774426,-1.53014019918436,0.3663301716214378,-0.24533187162393094
7.435299617,2.6881313573966725,-0.16854062035719186,2.985526563447689,-1.7538209192286047,0.3516714775306782,-0.23237624195078252
7.535300343,2.6039956445149417,-0.4520334770771769,2.960830771872921,-1.9782318605681817,0.3776667800401847,-0.23885333949358584
7.6353542690000005,2.4593865263110897,-0.7076659631250465,2.9402802493879423,-2.2114593416947548,0.3388637288475444,-0.24211414911627427
7.735310968,2.26149821893783,-0.9212377655457051,2.912483649995788,-2.4399582435501004,0.34039118934501555,-0.2406804660470144
7.83530966,2.022189044150751,-1.0835161795092378,2.8934117457439723,-2.6663353382098713,0.3487497618890796,-0.24247698518324104
7.935394121,1.863812759220786,-1.1527060775454239,2.8717228554204937,-2.805670408019765,0.3542417166562292,-0.2530679236956535
8.035376039,1.4693606844194782,-1.2245004941596476,2.8751905587495674,-3.1348813827352,0.37315616368102755,-0.267842248369215
8.135419169,1.1836721877167098,-1.1946546514393144,2.8708337426608033,2.919123732459427,0.39398695427259045,-0.25523096325642386
8.235358072,0.9120975182659138,-1.0996221656336793,2.880785181350218,2.679172361730353,0.41328118642587847,-0.25745017969692024
8.335307688,0.6685528795220853,-0.9440705605958604,2.9039005057770964,2.4454615277421743,0.41880679567222434,-0.24733764014376788
8.435308779,0.4475487367193627,-0.7115454340006127,2.9460651848253967,2.1935449689952655,0.44579036008080136,-0.2266635276805519
8.535313998,0.29097950855069427,-0.4556214308280342,3.0503463877847055,2.0227282010921632,0.46941816357518584,-0.15591031540130545
8.635298451,0.17490350910258987,-0.19725570872693385,3.2175073730823294,1.9714323149253787,0.44189066165868485,-0.05242377501156706
8.735299651,0.046252043826852704,0.10663295098255048,3.3570160848711756,1.9989675016858843,0.39006204109970166,0.04374189672312443
8.835304741,-0.08886694006082148,0.3794210172911565,3.4016804608961566,2.075423419843966,0.3406449427065957,0.10364158009752267
8.935297035,-0.31079502689187877,0.7232746877922175,3.419308410868655,2.2382442235131976,0.29734502499585735,0.14987661896379684
9.035307131,-0.5135208714542419,0.952522830947086,3.3819569388458244,2.3942419472617953,0.2722379959593083,0.16418772058107486
9.135369356,-0.8005207308265087,1.1804478548459576,3.2989116692970657,2.6303133813905974,0.262206495274427,0.19605556129395182
9.235324804,-1.0600762075080905,1.311214912916438,3.1888726285859414,2.8375658613386703,0.25734607175619534,0.1916054835705075
9.335312819,-1.3629872869743862,1.3895328038711106,3.094429631935663,3.0581979891517634,0.29207222240216874,0.2005244361756003
9.43529904,-1.6682780410334828,1.3954379944931645,3.0373992310242013,-3.0093129496954862,0.31178824781777525,0.2054548180699058
9.535396649,-1.9630078300476157,1.3330058417409987,3.016557976872895,-2.8099953598405087,0.32327298481537164,0.20125871124796446
9.635298393,-2.23492072635829,1.2089655174680431,2.994491804977267,-2.585966958991348,0.349729982033502,0.2162633233526241
9.735301196,-2.4941894070824993,1.0108730432827244,2.95543828290123,-2.3340981431860235,0.3487595440234356,0.22782008071076199
9.835298376,-2.663141482752966,0.8060883750698792,2.9409573665975604,-2.1149149238843425,0.3454734996564514,0.22592473197001317
9.935331416,-2.7838816747649897,0.5723734660817124,2.9300688146710456,-1.899029505770883,0.394569477880935,0.22740969905382855
10.03529855,-2.8602919337410264,0.2609850676214009,2.9299384091246634,-1.6490570941300946,0.38491397534739635,0.21863996181534587
10.13530049,-2.8609773263777094,-0.031086460903873066,2.9159541783542515,-1.426163069842114,0.39565460749880904,0.22114287620476672
10.23530144,-2.79702403182432,-0.31786059160576535,2.9525434376294664,-1.2052115540501946,0.40888145889613964,0.2170608071906755
10.335409673000001,-2.6722274028323625,-0.5856606057456503,2.962228630560874,-0.989244126549413,0.40154263764644904,0.2270638692270235
10.43529874,-2.490903255856528,-0.8199111278303336,2.9804726072247103,-0.76298341926025,0.3859647686030121,0.2216849980594512
10.535404871,-2.262675885255736,-1.0084782378651203,2.9730816357363667,-0.5410981421347525,0.38743948583842847,0.21419411774856623
10.635351793,-1.9988290881392585,-1.1427703047434947,2.9635607988915766,-0.32877477338407685,0.3764817500686099,0.21980421181695517
10.735303372,-1.7114165326227502,-1.2158953003926734,2.9787324084095492,-0.10276171245679405,0.36272540962099775,0.21679495647583547
10.835343281,-1.4161863601771387,-1.2234573486938658,2.956460810543324,0.12527606780992273,0.36071448003655543,0.21347373497826275
10.935313374,-1.1300748980485475,-1.1643161497598271,2.9091071535227426,0.3595232749213661,0.3489242993656043,0.2169372691237264
11.035295665,-0.8682771815846289,-1.0426435980483393,2.882915740504389,0.5879874339499869,0.3568752717547255,0.2246885935945039
11.135296562,-0.6411500002946008,-0.8656581256690261,2.894198690981363,0.8047888503020866,0.3813984646376825,0.20873167963379263
11.235348905,-0.45736771205655247,-0.642036238457372,2.8989908927947656,1.023354045708702,0.39968547871454424,0.21312470101721703
11.335297107,-0.32190840977583185,-0.38083625283110595,2.9890331173148286,1.2028576211069775,0.43666069958380377,0.09925753584011061
11.435307945,-0.2129547721330825,-0.09281166133784256,3.154265908884205,1.2313775124015143,0.4564337919060723,-0.01824247817481811
11.535298533,-0.09938311281869257,0.2093737061277064,3.2725626214537566,1.2060057715123818,0.43910887742312543,-0.10046369930650073
11.635296174,0.05061162658837524,0.5410454613178727,3.326991606588551,1.0835362103624293,0.3513934059721249,-0.15832620713361895
11.7353027,0.20900523958756645,0.7924791828939222,3.281415050896068,0.9186656200217217,0.31201390810354496,-0.19370209996761448
11.835315238,0.4279888940746694,1.033440671114811,3.2231966268829932,0.7104183971453248,0.31450505352452635,-0.2109048795031737
11.935299001,0.6864209487095025,1.221013438371309,3.167577464204939,0.49485489917958553,0.2973927551992871,-0.20761880928697338
12.035317646,0.9742838786869704,1.3446894364531188,3.1063455592487816,0.2764839969729893,0.3170257515116059,-0.22080158330861696
12.135422081,1.2475514531443452,1.3979196084198986,3.0843045595201968,0.08181003895898588,0.3555096134944185,-0.23425742945609218
12.235297511,1.5843076403875878,1.3872812330961835,3.048127263958693,-0.15669870206381473,0.35522611160818207,-0.2307861845866855
12.335294953,1.8794482110221005,1.3081338631369515,3.078679497015014,-0.3730658467519342,0.3653082497306787,-0.23280664617749822
12.435299174,2.1502769318662427,1.1666264165978009,3.060930186313967,-0.59500922548113,0.386281584130914,-0.24181805425825736
12.53532975,2.3833634469167815,0.9694181955658842,3.0640515055316326,-0.8166555027115444,0.36467412360470713,-0.24366451271740255
12.635298027,2.5667809278553673,0.7255454469781268,3.057847451077599,-1.0392433005291617,0.3598817869923966,-0.2368842166995857
12.735396638,2.692525307812792,0.4485554888335358,3.018899527588948,-1.2634345887078955,0.3733189103801758,-0.2473108526743352
12.835298011,2.7529470630971318,0.15224286256316244,3.0218759172224456,-1.4905474731915107,0.34497146167239195,-0.24788863359313928
12.93529697,2.740000408406594,-0.17764355462465442,3.002242515205747,-1.7406335165576647,0.34298067836359986,-0.2498252653855063
13.035299604,2.668869822329929,-0.4363158311474906,2.976124606778952,-1.953241583338749,0.3499356976638182,-0.24380799542979611
13.135401818,2.5293566143905744,-0.6953676265762067,2.941131520826809,-2.195643830200241,0.34096941241916745,-0.25196990276891224
13.235362082,2.333130911896484,-0.9120551496386863,2.9280368734598126,-2.428846997408415,0.3417519278246934,-0.24631341006315535
13.335372285,2.0925900103535904,-1.076783377416346,2.9240598998997713,-2.655282096483287,0.35563770308286063,-0.24597954005405198
13.435320264,1.8220584801673008,-1.182044410054796,2.8950368105361877,-2.8932341249853915,0.352021582201054,-0.25514944690625946
13.535300609,1.5353901562584127,-1.2211677973092967,2.907260597363994,-3.1307415342490628,0.3621181315993714,-0.2570959650829942
13.635295487,1.246634245167715,-1.1921529601654417,2.9077155176672815,2.92479894726309,0.3973373678889028,-0.25712907713235084
13.735295409,0.945713622694613,-1.0841172055628994,2.9263465408002434,2.6546639766161704,0.4046566917507082,-0.2557496516865264
13.835295423,0.7262128079516383,-0.9402502419824414,2.9207562145133763,2.4346542546191596,0.40338303880589826,-0.2377342033403317
13.935300608,0.5229848279686732,-0.7285516400081729,2.9758567327118572,2.2053252296334858,0.43398788454655746,-0.21369542313948198
14.035305417,0.36312830058447476,-0.47309911752804373,3.0521458425444066,2.038182754984834,0.46021021002316126,-0.15139067873803325
14.135297339,0.23101175740847607,-0.1852949912929777,3.2446351300955185,1.9864686446624198,0.4461852079972957,-0.05000479761089713
14.235300118,0.09926180973260887,0.11872746832662565,3.366233059766781,2.004542787035455,0.39473548955244875,0.03775073713976117
14.33544046,-0.05116766702476682,0.4235726759112141,3.4285941561954867,2.081541965278188,0.352146288663052,0.10210332526982956
14.435315952,-0.23387907011096357,0.7137061279229721,3.420381228972061,2.2147553659458956,0.28753701116943436,0.1470946823700521
14.535389733,-0.45368573535894424,0.9736172824316126,3.386869778886696,2.390840530729532,0.2694543132751481,0.1735539380455964
14.635310193,-0.7113844485593597,1.1850389754913317,3.2898460651742205,2.6127210739735727,0.2642843305315726,0.19520040182867174
14.735298319,-1.02742620423147,1.3430621908737572,3.1666966799074974,2.872502615130783,0.2667912409523388,0.20558234648563442
14.835306934,-1.2700596250454335,1.4038726769612269,3.102164406039824,3.0504362196728545,0.30426657433778426,0.18738896157486182
14.935301304,-1.6374099931779158,1.4102405807163636,3.0437164749815926,-2.975968027103008,0.32346659252885607,0.1982879256826404
15.035298186,-1.9030372730342862,1.3507913649130603,3.0172287833945624,-2.789753165294576,0.3274869382286968,0.20378267018091786
15.135298472,-2.176213925683126,1.225455564234465,2.9817830789607447,-2.583156458005034,0.34717238112391113,0.19737534076239344
15.235311238,-2.416504451689051,1.046405869044364,2.985324629096391,-2.3596890404725683,0.3523723517185859,0.22248451025233976
15.335299296,-2.609492397630788,0.8206933671957498,2.970574129519559,-2.126188218459506,0.33589634690624626,0.22774589057346495
