time (sec),x position (m),y position (m),forward velocity (m/s),"heading angle (rad), from x-axis, positive is CCW",throttle (unitless; -1 to 1),steering angle (unitless; -1 to 1)
0.131497477,0.10267998008918153,0.19723142849598685,-0.014424743920825395,1.624666390871198,0.1062760303844173,0.0398550629357316
0.33150054300000004,0.24714264517918283,0.26008677678016306,0.11276290674647507,1.6350203022737575,0.75,-0.18851410097031604
0.531501985,0.18739722970206835,0.438543127077517,1.6557202623084062,1.4230964412786826,0.75,-0.32252764637729486
0.731496699,0.42347864002099994,0.7546354806121375,2.8677367231451165,0.8163221718623132,0.7390745229627521,-0.2981549707122249
0.931554882,0.9871277653760251,1.0201837794255297,3.0217771883692506,0.29809089466148014,0.4824557268395444,-0.24567321512214982
1.13149689,1.6457085181794784,1.1048721736813016,2.949663556535686,-0.16284331410251518,0.39373672253660036,-0.2255464073270236
1.3314966830000001,2.1556219913043333,0.8623580033761143,2.808891968378396,-0.5496507717392264,0.34785650884443164,-0.22492974229356782
1.531544656,2.5427644209632154,0.43440220243944605,2.861942188322057,-1.1220426294580637,0.3709604448240245,-0.23785066596040483
1.731503295,2.5682490473636337,-0.09549028999696438,2.798327073886356,-1.5473825696397985,0.43116173966061994,-0.2406863464420359
1.93149719,2.444594539972939,-0.6396794492657208,2.7819117697889664,-2.1047622070897467,0.43328274131249245,-0.23790899072652286
2.131548244,2.0925445267518077,-1.0356172230002307,2.931828440799699,-2.555253491033353,0.4495633809211332,-0.23034195066417057
2.331504805,1.4721459542215132,-1.2603066749020921,2.9088972514783222,-3.0312207255747654,0.41150849842660797,-0.22785110150626983
2.531505852,0.9813119547202136,-1.3046058316307332,2.9406911928734485,-3.4346161768576295,0.38099339171045915,-0.2242449146558935
2.731500769,0.3478553995994933,-0.8790931634059729,2.7707209957189014,-3.979200563197433,0.39648798105773714,-0.2263669921410659
2.931500578,0.16264676951254192,-0.4500450951980993,2.9920915784751623,-4.20367092398488,0.4920326920801045,-0.10383585622815272
3.1315014310000002,-0.19410522898033827,0.1888635619819905,3.4399497286699123,-4.279658826342722,0.43108809166608164,0.07753679619189287
3.331495094,-0.5571931301452979,0.6784974454100587,3.398057853193802,-4.070782567472092,0.32331546717827997,0.15991105883345713
3.531575902,-1.0439751579389154,1.1387295329699172,3.254712937639171,-3.5129971245845097,0.3050419771900653,0.18384572928075882
3.731508893,-1.677365740779269,1.2569794046455438,3.081595746243607,-3.056132962397635,0.3887897774093224,0.18030731659194923
3.931505144,-2.2821394940467385,1.1381913119874671,3.218436026990291,-2.6313739257387,0.4015130821337925,0.17289875432183996
4.131500047,-2.7532992238048806,0.6562493934836525,3.2212401555711705,-2.22295471970215,0.37251490054177516,0.18606632269894302
4.331497491,-2.994265675069032,0.11440064208760285,3.080249616075827,-1.739548422586886,0.34711001160162636,0.18727390590833023
4.531548559,-3.001896533495507,-0.4364175846374709,2.9600675403312304,-1.3238791299087236,0.28620454026772835,0.19308881069399553
4.731498229,-2.7349373080187482,-1.0663499722327336,2.9429853029331063,-0.8564939608549433,0.31023960724471206,0.2067442510752218
4.931503333,-2.2366726274276543,-1.4148502641322962,2.8593363185923595,-0.4080324972257606,0.3915293997742236,0.23129136111832144
5.131503496,-1.8484523431852007,-1.4732259094285312,3.016692473259526,0.09992722030126097,0.4458182774975265,0.22500745607340444
5.331501677,-1.1588220244937062,-1.2709942165378636,3.1229607239001163,0.4424999188193153,0.4782949841484495,0.21297988946507973
5.531504202,-0.6912145769303036,-0.7718317223311841,3.2015514321178737,0.979535773453116,0.462764362289579,0.17745322954014478
5.731498913,-0.4286319750635778,-0.21948644376182397,3.355625236170868,1.2752218719589357,0.49000522330827456,0.004153548100440909
5.931505036,-0.178033997632042,0.3976657861402322,3.6254191673979967,1.0615688585216176,0.43337790762075756,-0.12953792064338499
6.1315397,0.2455433448717326,0.9506979377539512,3.584741344732104,0.6817760640427274,0.3603743296351816,-0.16574441769766646
6.33149558,0.8720667791027668,1.338831038221335,3.401229441051016,0.2915838141409252,0.3601833176281051,-0.16676549382286776
6.531538598,1.5173529818847342,1.343125180883554,3.2439655253057116,-0.06297147275917486,0.3514049659516943,-0.1648710123371927
6.731497387,2.0142840314930384,1.272039898092867,3.039387307019411,-0.5708912377335077,0.3165482479801226,-0.19744229450219114
6.931500382,2.600455071743117,0.8541909280083629,2.908813590193289,-0.9168385116097079,0.35158117031309594,-0.21604467917335146
7.131501546,2.834497165648921,0.36739028871373164,2.869387000140311,-1.3488385471047197,0.47969972602767497,-0.23824254206461387
7.331496513,2.713691300800563,-0.2250095884335515,2.9048237209009207,-1.8202538723691062,0.42859685182017504,-0.23669544695471803
7.531560251,2.497112870304296,-0.834770004598625,3.0069706935814358,-2.2982077484932666,0.4532701938795682,-0.2167608735746918
7.731505338,2.0123667247763573,-1.12217127297049,2.9598958212451216,-2.7889331124757857,0.436967381539359,-0.2173484118627532
7.931499318,1.4825783211397692,-1.2370783559029312,3.04515820950004,-3.3087452769966945,0.39663365261103173,-0.2105325110464403
8.131501094,0.8701260630531514,-0.9890121165380725,2.7807412738845634,-3.7182832338317753,0.3001885895789887,-0.31741272976364654
8.331502313,0.49826264958900074,-0.597769066298612,2.830629727173133,-4.209392076943651,0.46348311179762575,-0.18226310774049373
8.531503297,0.31972127065546135,-0.10679618515068562,3.2244649846199986,-4.333799282799582,0.499013380318953,0.024217045612113342
8.731502027,-0.05305938148316283,0.6176473484745059,3.339341765065548,-4.094905313503263,0.37572935357581555,0.13482738407792946
8.931548142,-0.5367677834987811,0.9417331362171517,3.3536064747393817,-3.841148088919528,0.31849937513446563,0.183913567148453
9.131573186,-1.1087579822753,1.3002223459194664,3.1597323332594227,-3.306765464982917,0.3654655515636162,0.18284167119134667
9.331495067,-1.6700822457497486,1.3631513587946458,3.231981435374153,-2.804805567643172,0.4304928826915475,0.18289533491899784
9.531546159,-2.304542078503759,1.0616575414273557,3.1871610643948807,-2.4402003644062265,0.3929848952254401,0.1866894891682575
9.731498999,-2.714706108350562,0.6093844157224934,3.3031883807343414,-2.0462032702322657,0.3642769244226053,0.18102605500356392
9.931503206,-2.92745166851457,-0.028747479129426202,3.223922933423506,-1.5874446094005392,0.3393410229240465,0.18163940068706114
10.131497833,-2.6832241909364005,-0.62468011487524,3.0404761040949744,-1.191807073748754,0.28868402121619796,0.1946672500294853
10.331502512,-2.383170629467655,-1.1511691034757412,2.8453405501991575,-0.6834342513780601,0.305944317068672,0.2156248200252945
10.531515759,-1.9173667937977292,-1.4398403950206466,2.8773765343145015,-0.16438859230514585,0.41881326883128245,0.2339895233633936
10.731507811,-1.256227947921417,-1.280922064295849,3.0256603144169567,0.28559487064890127,0.4634842476964262,0.22315186967106682
10.93150019,-0.8542182632126081,-1.1202041834740264,3.11928992164178,0.776900108475556,0.4618840864073055,0.20735106871034387
11.131512986,-0.4601535307833147,-0.5392962755750137,3.2745975608125435,1.1317060299159818,0.48517348838231183,0.13494744606990736
11.33155486,-0.1278961125762443,0.2174053179529072,3.537659584283052,1.2419563893325762,0.4696846568365826,-0.07537434191751215
11.531502737,0.1384089119598772,0.8046516240123225,3.54316639667922,0.9303000963763289,0.3816295728413179,-0.16312700002339278
11.731574878,0.7134287312314804,1.258637406124094,3.4822523567938592,0.5031903625242615,0.3988200198637233,-0.1610345477798002
11.931498113,1.2031661194366543,1.4161931699111112,3.234706580926349,0.006738086198143561,0.3516295073572703,-0.16170907156419115
12.13150327,1.9600085559889404,1.4320569356377941,3.104582085990277,-0.29288197589684567,0.32553467698308464,-0.18107622888426467
12.331500562,2.5239371083079867,1.0447113791560423,2.9764328420483643,-0.6792658995164154,0.3498807173198139,-0.20353554599156493
12.531564924,2.7680915925877936,0.5529516972455858,2.942950106950228,-1.1855485265767056,0.3850503078158781,-0.22173606950457742
12.731497919,2.864683579944622,0.015266147016719255,2.8997590470885855,-1.7635496340423993,0.4532161721799427,-0.2232836724716835
12.9315054,2.7150401080390583,-0.511570573850452,2.8818975918322054,-2.1285727945624586,0.47383760020164517,-0.2085363446479752
13.131500959,2.295412440516435,-0.9097043979491226,2.9964434870588597,-2.5923215664813752,0.43963997434423735,-0.2122921506245711
13.331507306,1.7312534894142875,-1.095401666903447,2.942416144117484,-3.002696302453387,0.4125299713648468,-0.20752822067058146
13.531500384,1.0850851449725523,-1.074233318186534,2.96672369693015,-3.5552922921860377,0.375445101767793,-0.20512275260378657
13.731506393,0.6061640362228351,-0.7734107097993163,2.8526201143749494,-3.960471520313485,0.37018764661994424,-0.21088156179590298
13.931508038,0.2645189767347238,-0.27218521877094926,3.0940963814259717,-4.243474555214095,0.5103696804603306,-0.07868267242103937
14.131502478,0.05127034126683409,0.26190790399037406,3.4252232634574047,-4.321253625115387,0.42352738824714875,0.07598777722416426
14.331498937,-0.34485872226474046,0.8705344766175831,3.371790687940098,-4.032499263244462,0.3243689998625467,0.16844316548295854
14.531497977,-0.8592170475937032,1.2679910509234973,3.3057934751148315,-3.478480064649038,0.3488751922266647,0.19256254619628313
14.731516068,-1.441634706801077,1.3185181908103545,3.3167424220436126,-3.072114128275604,0.4079057761933769,0.1851395871434307
14.931496806,-2.0404246966522694,1.2775778251606267,3.2747148114566533,-2.7799135961553523,0.4060487480473266,0.19175143191243119
15.131552637,-2.5157151130725364,0.9074850218510886,3.2599787927982358,-2.194952916309818,0.38262289651796744,0.1904839073000789
15.331499344000001,-2.837968311692194,0.331731960720508,3.077600518482245,-1.712599704742993,0.35499855321492385,0.17985465758681682
15.531498958,-2.9365676530792078,-0.3052930353844402,3.096462265377916,-1.235325547745118,0.3169661351912431,0.18717186134816893
15.731551709,-2.6951085879650187,-0.7738243828229912,2.992877542537788,-0.7905459714600749,0.30718698578347975,0.19460786711311248
15.931558658,-2.250195873359695,-1.174746309717042,2.979418811280052,-0.4053321008987258,0.36329853877991375,0.222113962592443
16.13149702,-1.5954222618027656,-1.3494730151634544,2.9630755613636075,0.09871991658704941,0.4303056938445134,0.22653143209689997
16.331506246,-1.1024679043957675,-1.1420679246086556,3.0730290823906103,0.5602077384304878,0.4734530770675889,0.2162717687084197
16.531498352,-0.7366961934901263,-0.680280881122303,3.0302725900401812,0.9117845095698563,0.4619857060250278,0.18236961358150444
16.73150923,-0.3052213843037509,-0.15529580968858,3.35605286040143,1.1826471261349079,0.5144902502061635,-0.0023363760165971276
16.931500762,-0.07739157968128094,0.41097479585478974,3.542084289824896,1.049367983199138,0.4301584124156748,-0.13131632510869584
17.131514201,0.3846348330354185,0.9353641455435919,3.49891428180152,0.7199353686483514,0.38770775827910503,-0.15181695630728106
17.331499073,0.8948319564494344,1.434010443374088,3.235552448977586,0.24157799721438553,0.37385552621486245,-0.15663009048706258
17.531507753,1.6601036505852595,1.4873866632090895,3.2431304771130613,-0.16148401259187217,0.339924259131403,-0.16394611077459106
17.73150594,2.17593299079153,1.228164137573669,3.047805230402489,-0.5285010153774957,0.32618468283603486,-0.1862740471808534
17.931496843,2.5871803706740155,0.8084757237598218,2.806324135145208,-0.8769201671921661,0.3587377326875885,-0.20830148499827084
18.131499013,2.8739926613159787,0.2539319392254861,2.91484875238283,-1.3892523996041983,0.4022401409816246,-0.21999241018071897
18.331499301,2.8168978650431886,-0.24406002873288085,2.910346257693959,-1.9183619459986017,0.45318450889480233,-0.21623504005658029
18.531500762,2.4104373483703454,-0.8096742078385142,2.985052874519936,-2.4325699834570207,0.465113507218742,-0.20641070028479883
18.731502513,1.9538570513314026,-1.0849057802861866,2.9757748885697195,-2.8626727565955514,0.43459443747438287,-0.20010338654323268
18.931580514,1.332003084114434,-1.1457076174957146,3.0118762615535957,-3.233381626009035,0.3961232020578188,-0.19880193940424162
19.131499213,0.7678601317496995,-1.022939305503637,2.923054847405247,-3.6730364766711867,0.37756427094713735,-0.1999425359466961
19.331510046,0.4352749918363259,-0.5602420826825528,2.874274110470479,-4.22802493260525,0.4373603420239771,-0.1656152359428066
19.531563614,0.19941850979445783,0.0005144718420894354,3.1845291196300125,-4.44006114925951,0.4961605559297195,0.021782164491678625
19.731543766,-0.18195007841514188,0.6351588760452445,3.403211843957818,-4.185503068690335,0.35949629401867633,0.14019884214212877
19.931513292,-0.528867138202515,1.1143061698632115,3.379526878885722,-3.8101529133681646,0.30290413432773305,0.18855362969533848
20.131499528,-1.1591966638835576,1.456367703732609,3.21643154925719,-3.2709999448810354,0.3836249522756487,0.18370861679156036
20.331499236,-1.776946081829499,1.4153203214353651,3.3220958111264554,-2.910847503743767,0.4214190057029161,0.1841541507572498
20.531540038,-2.441016913691591,1.0871553448686464,3.1009502323901748,-2.4200592356714585,0.3884209687196168,0.19734276236370324
20.731556202,-2.876944656706704,0.6758508839818873,3.2335287938797848,-2.019802511555825,0.36261333809261204,0.1893368777857577
20.931506401,-2.853469361703753,-0.061081850169426626,3.1743126062664504,-1.5245256991403373,0.3245755141993124,0.1827487215920849
21.131497454,-2.862139946979193,-0.6226711810091728,2.989135433862648,-1.18717609527879,0.30684328602226135,0.19823596530651885
21.331506727,-2.501444664646904,-1.075526788967805,2.9950481489288006,-0.5844823399710576,0.33005471594041447,0.2236705002473484
21.531497365,-1.9693212164186353,-1.259423845169852,2.9237322513767214,-0.2049251666876513,0.3935048809705274,0.23490520741825155
21.731498437,-1.4415376840861405,-1.2332312909979786,3.074338918863256,0.30843661378091086,0.4863804843403164,0.2261131248135671
21.931500591,-0.8313834480584456,-1.0531957902278561,3.1000126906884624,0.763880690712555,0.4543662332554939,0.20722137332987575
22.131552243,-0.5278138890052079,-0.4720874320776912,3.302880217716761,1.1852910973473798,0.4896928938298135,0.11261733022329695
22.331497971,-0.11857969527093205,0.0919546323973878,3.505719839765137,1.1374897817411487,0.5013890082605692,-0.07590222501519006
22.53149851,0.2077333732882665,0.803064842283927,3.652481427302402,0.8565183536856963,0.37989226014655625,-0.14384178647960724
22.731504086,0.6501354067468731,1.2989114031511972,3.463235054255344,0.500280534104535,0.36090070992568457,-0.1665758131601716
