time (sec),x position (m),y position (m),forward velocity (m/s),"heading angle (rad), from x-axis, positive is CCW",throttle (unitless; -1 to 1),steering angle (unitless; -1 to 1)
1.039691528,1.5757878742922469,-1.2834931790059965,3.1067867440423185,-2.978000719590642,0.34423095744778825,-0.24712566407386405
1.139668729,1.2382958651131712,-1.3008626140157191,3.0772080512109468,3.04920396593288,0.37142153013470386,-0.2541891613214943
1.239667793,0.9387850120760389,-1.241645270828136,3.055786760505849,2.8094153061775704,0.41527070095312235,-0.25727507653926196
1.339671127,0.6605322564622226,-1.114144422420336,3.085133886811348,2.5623583897179367,0.48099210547379095,-0.252640262664561
1.439666571,0.4166627035096761,-0.9231814275174889,3.121911427885972,2.324722443604378,0.5210869542755182,-0.24711574098321454
1.5396680520000001,0.2185846282410747,-0.6772375023389875,3.212075268629502,2.097886860594698,0.5644255665023837,-0.1799563457724693
1.639672761,0.07407130281363107,-0.4158461594675528,3.4255414129677586,1.9867297264651655,0.5681938222901423,-0.08523968426558712
1.7396713890000002,-0.08260803948038237,-0.058409025599103395,3.6425908029147185,1.9974509234642226,0.537622229614917,0.011783509016917866
1.839669237,-0.23721116321118116,0.27800221236176664,3.737297293148534,2.052723380911952,0.4071601875443278,0.06182175816910899
1.939664038,-0.4213090852914864,0.605737513097222,3.741708581676392,2.155090605873595,0.32440106568111826,0.10263251276615865
2.039659491,-0.6407399886743466,0.9100212930784666,3.7255381695377032,2.2953116676993797,0.2588091106844358,0.1377916694096593
2.13971614,-0.8430041516634297,1.1250190198521963,3.66444943459883,2.4470923653253998,0.21196487696098051,0.1601438741269284
2.23967099,-1.187730496201209,1.3771890809370335,3.484173738374627,2.726446210828928,0.20256004352114315,0.17613232173255502
2.339664079,-1.4995479389114799,1.5069939432157224,3.310757529383204,2.9649719697294965,0.211754118511777,0.178613996551062
2.439665913,-1.8173735725514835,1.5578815620188113,3.1629114798808087,-3.0876902949555283,0.24853970848551396,0.18378140202808702
2.539668333,-2.1243960073675137,1.531357095866998,3.059532127800366,-2.862621146498164,0.31026449718704374,0.18808530596455886
2.639692805,-2.382041049723821,1.447186458624503,3.002110584264007,-2.679203841667557,0.3585776083531826,0.19994807711438853
2.7396669080000002,-2.664156191339072,1.2763941745863698,2.99684343766566,-2.442244357119845,0.4049428923396262,0.21468752961868487
2.8396682980000003,-2.879580735017393,1.0636989173674896,3.055004972005175,-2.216043415040984,0.4474014391451868,0.220787786559782
2.939671719,-3.0435125695038097,0.8061106302295601,3.070362539376504,-1.9667304647088772,0.46687039832305116,0.22331138291618197
3.039667651,-3.1436024605986046,0.5150061042980808,3.0780581863961483,-1.7251770114160485,0.48427974096216747,0.21658498306868376
3.139683589,-3.1763432688771465,0.20351115086118257,3.171406871141279,-1.5081615597882345,0.5246834812646805,0.20288294409521965
3.239672068,-3.1418787774785852,-0.11443713358663621,3.2333202678042303,-1.2804808195693196,0.5373574075013527,0.20297492342014634
3.339664484,-3.0386536177103114,-0.42257068827010746,3.2626101334999387,-1.0665698245223219,0.5140080517909988,0.19744042663567288
3.439666051,-2.8701773359881724,-0.7050879195188746,3.2811116387298727,-0.8487877816124081,0.47878847385835266,0.19191511632252428
3.53966898,-2.645341388724192,-0.9454489367281291,3.2922360405964985,-0.6315640258917216,0.4755184754400273,0.18901329042192228
3.639668486,-2.3744134968764787,-1.1319660265226652,3.298234419578597,-0.43451942297470925,0.42649368457020675,0.18407777502745296
3.739665541,-2.072003926810267,-1.2570301139811502,3.2769792915753597,-0.23040018521079972,0.38676846126541703,0.19017779769997198
3.839758218,-1.7521454642258332,-1.314274442589293,3.237301444996831,-0.0074630022669454074,0.36348297890302694,0.1966390911318068
3.939667288,-1.4324599843032535,-1.3004157075685783,3.1772946749528863,0.2209557354309122,0.34061341163834397,0.20001910740801776
4.039670424,-1.1308540833960983,-1.217098978679944,3.1001182174521897,0.4512651658437666,0.3244055130797846,0.19939408313368134
4.13967163,-0.861605462567273,-1.0699141717864875,3.0630661445239133,0.6692565601143076,0.3693342558149262,0.20716833679142907
4.239666,-0.6335804604828233,-0.8678143200774356,3.0583656477730123,0.8813440077011777,0.40750369656837526,0.21017542889008123
4.339668816,-0.45168557249375746,-0.6200962631449644,3.1196773762944314,1.0890325666999359,0.5184706020715817,0.13008147637192707
4.43966994,-0.30366653338236044,-0.33195257696725455,3.330840145525723,1.1681287075919875,0.58607570661016,0.019690001571703888
4.539669713,-0.161810138782994,-0.015544396487270446,3.553701967604149,1.1642744295495429,0.5681709054542639,-0.062036814316047025
4.639666118,-0.006487826413019249,0.31363199507836537,3.6742679136904486,1.124314885421059,0.4469849065873627,-0.10680002207264717
4.739671793,0.17094234318539,0.6395776394118734,3.7051448813837884,1.0258655380364397,0.3575905291128991,-0.14441782744719123
4.839671584,0.3602893027977931,0.9131408831995858,3.6669954047167956,0.8861128098590336,0.2900617965048829,-0.1855923626797968
4.939714761,0.6352463681488967,1.1991248963213583,3.5687584673509574,0.6618572893870381,0.23179370523952586,-0.20578744381488595
5.039669799,0.9225792920649875,1.3920644566166043,3.401417586693666,0.42896694885632974,0.24797580753422324,-0.21446909610759726
5.139673252,1.2323881280207585,1.5080562351831814,3.2523406514402433,0.20348605244834658,0.270574118247544,-0.22564266057717297
5.239665939,1.5491932778304045,1.5462929124054343,3.1628359660977026,-0.027326024988948563,0.3365964162385923,-0.24479482707905756
5.33969209,1.8587059610850933,1.5084798914139572,3.116230081709271,-0.2661757976331301,0.4119667462880587,-0.2552739253923537
5.439668332,2.1488307470620738,1.3986182844363746,3.111666375701719,-0.5010610200600867,0.4789892530633019,-0.2560555437459775
5.539670742,2.407144354203904,1.2224148750579797,3.162612026520615,-0.7326859673974906,0.49704194847054656,-0.2522152771706469
5.639813758,2.6203541005705744,0.9883618130840642,3.1961654925709038,-0.9730549686629554,0.5255320401623828,-0.24893409883895354
5.739765019,2.7790127093125294,0.7081907437645062,3.2380935289827173,-1.2049523853243889,0.5241421659579377,-0.24216785350048003
5.839690494,2.864991741091389,0.4291578133246378,3.2670165096976542,-1.4216905463552805,0.4820949230607124,-0.2368782835990606
5.939666475,2.8882664195423238,0.07393992976801009,3.2517812571420737,-1.6799148661929701,0.46408081100640186,-0.22341633864113394
6.039672529,2.8312581302741067,-0.24559173420170674,3.2703428289722547,-1.8894012542609857,0.4724670980359214,-0.220061193993959
6.139664662,2.705169730915609,-0.5454774331192029,3.248834072050643,-2.0966567070568183,0.42127536325321774,-0.22290118157381475
6.23969055,2.560003566376764,-0.7609456119192856,3.26185181361617,-2.2693728957532815,0.37945955672029313,-0.22566766189209522
6.339665481,2.2792636131741335,-1.0263776300039504,3.2168113861002765,-2.530894622000205,0.36721890363637066,-0.23231404561721847
6.439686502,2.0014214694571186,-1.1846311135695209,3.1812367056535096,-2.7421801135810346,0.3240752686340834,-0.2275622824995428
6.539666935,1.7014647128519174,-1.276366660188968,3.1197216168396893,-2.9848127195081493,0.33327047356535466,-0.2597434766916401
6.639681496,1.3948560777216426,-1.2937621625191886,3.0632639914299844,3.0549897755584556,0.3924527661147654,-0.2559171520555265
6.739663319,1.0956918523223438,-1.2380511033205248,3.0330972088118937,2.815028962015819,0.433060043503486,-0.2565216989316906
6.839673658,0.8189942679817704,-1.1132056849520076,3.0611081875928208,2.5652333542476558,0.4843113414288681,-0.24971879848288572
6.939667963,0.5996032545019009,-0.9460815541917867,3.092507634701721,2.348273020458149,0.5579717714865615,-0.24487649630877317
7.039667791,0.3792353926097094,-0.6796662346247025,3.2074351209766814,2.1062078985084964,0.5922105745573484,-0.17149680439062398
7.139673504,0.2216880176703095,-0.3877677303763119,3.4294682211251692,1.984654061906998,0.5762204337921636,-0.08304914715743308
7.239669861,0.07789719417416666,-0.06238159161326744,3.650269300107523,2.014890344222655,0.557346259623204,0.02092382558369517
7.339666651,-0.0830591449295596,0.2730835804634732,3.760369147758806,2.0692222720651112,0.41854688728938233,0.06253962301581914
7.439670124,-0.25394924013469183,0.5672706334936454,3.788091392327308,2.162498405748541,0.32871338778272585,0.10369778028011482
7.539668187,-0.501584234877781,0.9008033461061192,3.7594997049747088,2.317410325241677,0.29979111894671534,0.1357244476826609
7.6396684740000005,-0.7648453018429395,1.1617844810512523,3.664108539727038,2.497609549810361,0.2312298923707549,0.15608460361684556
7.739670953,-1.0607115899902015,1.3652433735548823,3.530397348075876,2.725114225762396,0.21096317740682083,0.17334357329280842
7.83967323,-1.3772748923450393,1.4960853180312534,3.361374993735554,2.9559138838723555,0.2331205395821143,0.17797084092188165
7.939668038,-1.6994378577306408,1.5488518365744068,3.2129039621548596,-3.092801077011008,0.2521398458103071,0.18447948772193629
8.039667106,-2.0121516466350777,1.5246819613452494,3.117038687336116,-2.8752590340382427,0.2994607354325691,0.1889908598324447
8.139767548,-2.303521791609922,1.4301962252197866,3.051692994991358,-2.6741837423426205,0.3572932326740989,0.19859895399703958
8.239683828,-2.5646021107851213,1.2746562652567346,3.04392353215938,-2.459073255458795,0.394822756081327,0.21452083298485086
8.33966739,-2.785588588141111,1.064880317388521,3.068188539842098,-2.2331178010507386,0.41916621049077435,0.22285612755610207
8.439667035,-2.9553431596582875,0.8096800300054751,3.115100112634874,-1.9933349034601315,0.47621683448526736,0.21696675176261973
8.539666904,-3.06330007512336,0.520432644653917,3.1044171406608823,-1.7622240701950798,0.4900226164904721,0.2195873505808884
8.639663034,-3.1048971634361484,0.20981152562472533,3.1538519244170304,-1.5420632790127993,0.5007498053401701,0.21680736698583017
8.73966683,-3.079092737472053,-0.1080885502341229,3.2011045996933074,-1.3057023619302037,0.5112117701693526,0.20692621274733652
8.839677868,-2.996365825712536,-0.38622183974764396,3.257399098229388,-1.100118986079749,0.5084971861573987,0.20285884464266815
8.939663719,-2.8225743938414047,-0.6988765021720729,3.242457155850867,-0.8609726715193887,0.48274057286401273,0.19245215039604846
9.039674875,-2.602839380702113,-0.9406988680238333,3.288538185575486,-0.6505183870692112,0.5106750482938601,0.19393196508626065
9.139727027,-2.335667757932107,-1.1307568438722766,3.2936994667384387,-0.45096942395832146,0.4422365934804315,0.19031887694198538
9.2397303,-2.03583478654926,-1.2600309607890172,3.2431258901344644,-0.24003306731026877,0.3797757122678573,0.1955094927675593
9.339692425,-1.7184325617388019,-1.320608191761136,3.2206320387638248,-0.017093779870603572,0.3960715154195576,0.20067913831625603
9.43967817,-1.4012138522657667,-1.3092544209653165,3.151280297021258,0.21466587563300485,0.3609376198766399,0.20395883405908904
9.539673597,-1.1023003809742886,-1.2280767908651267,3.0757306219238423,0.4482302744786302,0.33994643029261845,0.20456354117617742
9.639682068,-0.8364348501680422,-1.0818441876570468,3.0112846373345623,0.6777237500130125,0.36840381065193223,0.21125055636902526
9.739667711,-0.6127994641578066,-0.8800895100553261,3.0135554277871655,0.9007341631815926,0.41900951665294806,0.21292861473625616
9.839667615,-0.4337879173771786,-0.6324354318011252,3.126490461927643,1.0884012886732064,0.550955709999362,0.11567454999238504
9.939668216,-0.28438628620133516,-0.343393008857611,3.3510635555362156,1.155674400395857,0.58999752219342,0.02198339302779721
10.039683601,-0.13761642376095587,-0.02734957112541069,3.5663266145738817,1.1478907515154824,0.5768120125353543,-0.05631506426437735
10.139677181,0.022436758311282334,0.30170321300985214,3.7114243545755854,1.1086494176508561,0.44154981512363856,-0.1007498306492866
10.239667276,0.20338563801065834,0.627432555140556,3.732946501053365,1.0088994365028734,0.34126594184619374,-0.14598292812556848
10.339668065,0.42086063295772785,0.9260418950861173,3.661828174925903,0.8301589966640991,0.29670571626709313,-0.1830573262338812
10.439688832,0.6524049476667655,1.1540393562697961,3.5772966913768283,0.6368172017322559,0.24242015543523057,-0.2007254532671762
10.539711617,0.9739754795207307,1.3580203609412946,3.413382961248235,0.39959611685139057,0.22961575443415522,-0.21600112921058184
10.639684773,1.2554716240368138,1.4535001321736662,3.257915038189418,0.16132944804027124,0.28191513089554243,-0.21092959496513228
10.739682457,1.6047209694212607,1.4831785271178708,3.1516735882472253,-0.08473191114097314,0.34761936349110206,-0.22245189945331414
10.839668163,1.9121067601054018,1.4312016308694948,3.120628370545227,-0.3123296995728803,0.41586495693583875,-0.2335586264730557
10.939738336,2.1987743058081914,1.3090629277813928,3.113029411755094,-0.5406145832840668,0.5063583980685634,-0.24240954349901125
11.03966878,2.452646724805367,1.1226388023892704,3.169561440082282,-0.7764699404366591,0.4967118262786757,-0.2421960976860331
11.139691694,2.6605344187471576,0.8803709834281281,3.219961700097953,-1.007660246721854,0.5057380669237945,-0.2352508198040805
11.239694834,2.811412873713221,0.5951369068115423,3.2352730539805843,-1.2453733041265629,0.5035852888321957,-0.2336752887623808
11.339672461,2.8935495608750266,0.28263225866574465,3.2395895070857805,-1.4927446697634168,0.48005205290553615,-0.22619909635536792
11.439665873,2.901116777163094,-0.04163658241843767,3.2499985918361265,-1.713269206857687,0.45604321902927697,-0.21523101748013318
11.539718252,2.834813447564514,-0.36035560965215035,3.278856227808073,-1.9133630415994545,0.4505527130471027,-0.20497599448969922
11.63968736,2.7023955363920136,-0.6583560747141501,3.260727727739669,-2.1191167232828194,0.41039939827962296,-0.21644820947696009
11.739667094,2.5098426045383113,-0.9193270385213826,3.233419731491788,-2.3394588210313905,0.36233335417064316,-0.22310547136054926
11.839670163000001,2.26705533174699,-1.1302497671301044,3.2116830030735235,-2.559020078022326,0.3634760801142149,-0.2235170204618857
11.939671213,1.988181935431716,-1.2809687532129204,3.1487452823364177,-2.782095748577853,0.3372426960841084,-0.23282107458881557
12.039667543,1.686651625537399,-1.3640010984868263,3.110978114139662,-3.0133265468901764,0.35184563333258767,-0.25034533127953146
12.139745443,1.37816459033676,-1.3744854327392935,3.0928340667212297,3.0329205455048593,0.3907012010777093,-0.25063653576351114
12.239675363,1.078508810806438,-1.3122929203618554,3.056732227662086,2.7844610844902067,0.45282934624795246,-0.2545617062595237
12.339674074,0.8021156360653269,-1.1805629199258025,3.0803958135249467,2.526189816641883,0.48963958401787055,-0.2427059651658345
12.439766369,0.6075349701906212,-1.0285987798770106,3.110794151413082,2.3205488848976765,0.5425365126126056,-0.2243222002492269
12.539676539,0.3727213268527786,-0.7330515156250428,3.187536773886186,2.046218935080518,0.6024439213044378,-0.1774232655907278
12.639668417,0.2279497002152528,-0.4361237572947247,3.392072643746153,1.9223550652570736,0.5887891055062882,-0.06398663648370273
12.739795167,0.10138138511357409,-0.1039416150007061,3.649794327074555,1.9515553452429732,0.5357877306461725,0.02850174842293262
12.839665478,-0.04187330871209363,0.2384911096707461,3.76403689285435,2.0144005301729004,0.4310694439975354,0.08137409859600438
12.939666806,-0.21780526070424502,0.5726740385145623,3.7810199566356317,2.12209518836299,0.33677864282764597,0.11954579955799155
13.039666914,-0.430348017060318,0.8830508447062083,3.7346143495687634,2.274277355579969,0.2822495639412418,0.148226599028964
13.139706658,-0.655262335029748,1.127802850479212,3.6517383008204995,2.4478390623528554,0.24645833075003948,0.17116311439821497
13.239743577,-0.9692403089480743,1.36204981563904,3.4879877252100666,2.71165337438778,0.2174821122892383,0.18207215966212226
13.339670206,-1.279687855104096,1.4965141139105507,3.322939275570276,2.9502701246105034,0.24509745574315908,0.18095338161717556
13.439671313,-1.5976072475808873,1.5531594178744181,3.179739407922314,-3.1153208489915167,0.2751811413885545,0.18970646074892347
13.53966674,-1.9104721982950097,1.535437362465401,3.117374500678182,-2.9161169527355715,0.30816931027597005,0.2003827679010146
13.639664018,-2.206835678006426,1.4502766500128168,3.071788646278844,-2.7122961733360698,0.35267588245335973,0.21418490416359404
13.739792281,-2.4760570684358187,1.3033576829346532,3.069952477768702,-2.5074763663583,0.3823799165427126,0.22426897354809888
13.839666861,-2.7070973602549193,1.1019767884458886,3.0500943154292606,-2.2865005512406973,0.4019934176136347,0.23329198949484026
13.93966711,-2.8895321310085134,0.8549784412796139,3.076084727958769,-2.0527368689403724,0.44543058756451526,0.23568472780177036
14.039670477,-3.011576910617547,0.5715423630081977,3.0820186394161153,-1.8135455613437457,0.4829272567525962,0.23691474044742647
14.139666784,-3.067045932427042,0.2643337145791818,3.138289977805429,-1.5852855304889477,0.49665647935591695,0.23261004000482824
14.239669223,-3.0538523612077353,-0.0514188239572252,3.1480529901014362,-1.3530813584435806,0.5182455245012517,0.2202209430551942
14.339669347,-2.9716524790775987,-0.3597425671799024,3.214009302440415,-1.127567647005094,0.5178249780918434,0.2168549007806545
14.439669488,-2.8231689071250385,-0.6460497083439877,3.2440199163649064,-0.9083633270665395,0.49586968210937454,0.21015003549116454
14.539674192,-2.6150372140740603,-0.8940358685329728,3.24929914640049,-0.6949358344784844,0.46968484034669145,0.21771468855781867
14.639669526,-2.385391015805528,-1.07486776967833,3.2634727764952554,-0.5169827466431228,0.45219253816803967,0.204424613631609
14.739668328,-2.0663438071021254,-1.2334314334221597,3.233814867792263,-0.2971507534574613,0.3993240120127718,0.21391599062237293
14.839666922,-1.7538288938521331,-1.3089658645036817,3.2111936047478196,-0.079637867203062,0.3632998980292356,0.2161040406800191
14.939669351,-1.4377883905968913,-1.3145424019806053,3.128602751215891,0.1488140700339839,0.3425914247305094,0.22150598360874377
15.039749367,-1.1351892235938503,-1.2510683607863171,3.068356778563513,0.3837956812073485,0.3416493212540834,0.22527215155545566
15.13970008,-0.8617069167986509,-1.1217513783963242,3.014895767323958,0.6112588751007302,0.35774884303395205,0.22438673514289542
15.23977708,-0.6265233167845334,-0.9356673975679416,3.000466462663016,0.8243915395693104,0.4293419065546337,0.22142983653478202
15.339793294,-0.43106260351429304,-0.700614830261905,3.122757920110804,1.0076224632045918,0.5524262561589982,0.13455166270809218
15.439709834,-0.26513713836194186,-0.42276615405462925,3.3340466609180757,1.1018720633073469,0.5900687980969124,0.044782396301906946
15.539734287,-0.10683836465392992,-0.11419578811543338,3.5550208086731176,1.114203936104169,0.5467552470837853,-0.03251702855168325
15.639771901,0.06025039726483188,0.20914733456918078,3.7076786687231302,1.0912985261949593,0.4663878552700094,-0.0913348765792876
15.739669142,0.2437188563829026,0.5344668645866918,3.7449725195409984,1.0307352357131903,0.3584810468513409,-0.13407536902665432
15.83966786,0.43381185136506334,0.8106751695434665,3.693494428256695,0.8807353496084629,0.27210065189357857,-0.18616963621779511
15.939678089000001,0.7109738242980962,1.0964564525883556,3.5751856492860865,0.6370805632188601,0.2301024519418489,-0.20977524819643342
16.039687992,1.0006908893682882,1.2859295397488708,3.394206865043529,0.4020763313247496,0.22133118601191487,-0.20933381606006501
16.139687874,1.280670794483466,1.3898370915946354,3.2712669032918695,0.2039943500162174,0.2705602878070791,-0.21760704199986491
16.239669262,1.6305377056464305,1.4311853440756341,3.1660052236702487,-0.04027628558921955,0.3318778438115778,-0.2339700722348636
