time (sec),x position (m),y position (m),forward velocity (m/s),"heading angle (rad), from x-axis, positive is CCW",throttle (unitless; -1 to 1),steering angle (unitless; -1 to 1)
1.027593587,-2.3099026056814598,0.22803984823346135,2.9804529909884367,-1.5952989569101794,0.34384459936477774,0.23488826028359447
1.127488615,-2.293276007939134,-0.037706204671111514,2.9520723138777223,-1.376486288028206,0.3340820530015231,0.23993067240995058
1.22749537,-2.202708026379454,-0.3438393441705893,2.8920866506016893,-1.1212831147834632,0.3164219422273601,0.2337075409179279
1.327539727,-2.0576623316145897,-0.5900885946574814,2.8479307211613105,-0.8925898774769554,0.3342997629226396,0.22802320410899724
1.427483582,-1.8621469581155363,-0.7948955450244599,2.824009405017749,-0.66268378559465,0.3426151473388835,0.24563419726186106
1.527481017,-1.6272137661211457,-0.9479085415985358,2.794417173237472,-0.4279997623987551,0.3174197247628413,0.2381772788384041
1.6276022010000002,-1.3654629877168407,-1.0405300870637875,2.771980248614148,-0.1981681471118991,0.32365598385063704,0.24323104391041128
1.7274937989999999,-1.091548024009311,-1.0701629842233915,2.7604503922024697,0.02492589100745629,0.34808336949970337,0.24465347621038666
1.8274772760000002,-0.792281468229424,-1.0300911223216118,2.7421048553988223,0.26841247227191883,0.3388739494711183,0.23971655813753698
1.927572326,-0.5599870239124543,-0.943606429032431,2.7610212027932093,0.4659500888187008,0.34463743710011163,0.24858326835957212
2.027480534,-0.3278956810203285,-0.7945219066574727,2.7795575390367975,0.7025489057700702,0.37355374967305993,0.2610811061932812
2.127503096,-0.1347504995910676,-0.5965336477945727,2.7883004589718885,0.9406842759341564,0.3756148146713088,0.24562961171895537
2.227476878,0.009857027716308019,-0.3572840750448646,2.8378804958162083,1.146000473398797,0.4098069242387365,0.16606343010963018
2.327504375,0.10728392852207723,-0.11607784110694985,2.9501998823355557,1.2323294704504826,0.4529145365144037,0.0289192113412309
2.427476452,0.21892144259489607,0.1974652682802374,3.1079573177054773,1.234660784740894,0.39629049314063475,-0.07314099961571145
2.527501217,0.33422650473079296,0.4881835485402809,3.147398250318449,1.1729050597908532,0.33140825162495013,-0.13911476822994723
2.627594929,0.47992649364881035,0.7659784812853311,3.134862371887429,1.006525837554153,0.30005712624712105,-0.19968123606072224
2.727586795,0.6699266115799902,1.0097748348218398,3.081207030558219,0.7973973272886437,0.28412384353626075,-0.22442509153141108
2.827481585,0.9269519772425614,1.2211737717150886,2.9990956069476264,0.5570077222776849,0.2903226991651667,-0.2287514082396127
2.927586539,1.1946678335308551,1.3507178559380335,2.9684747476558155,0.3378957170729645,0.33790842399688437,-0.23376141548668453
3.027501007,1.452267428773887,1.4137129452666963,2.9451268347027435,0.1483047936864742,0.3206360144005084,-0.23586673823750265
3.127474741,1.77228146777008,1.4173425218789009,2.899324114025787,-0.11526810694159431,0.34275066558187767,-0.25675124073143535
3.227567794,2.0256997461356145,1.3592523079413465,2.893288392044095,-0.33157274421386695,0.36745644388909326,-0.2527250546545563
3.327575993,2.2861474776036577,1.233043631834221,2.9020401297758545,-0.5568182196132637,0.38399249030031724,-0.24949065431485143
3.427509618,2.5124772421095805,1.0502301818339426,2.923872880608673,-0.7833133971725781,0.37727685799806615,-0.2490212721039613
3.527485656,2.693979039798677,0.8206615159803589,2.9366001352474753,-0.9986477043930309,0.37568961126198225,-0.23740519920251885
3.627476922,2.8315278451221504,0.5291588783025906,2.9449013781773994,-1.2515060374641245,0.37813068585461873,-0.25229389406303676
3.727504627,2.88771987222871,0.27217576318078,2.906549964974121,-1.4635541837059394,0.3654385418191906,-0.2519986788262203
3.8274897240000003,2.8859513741681178,-0.02007797960436586,2.932046398130922,-1.691699759169272,0.3681688697446509,-0.24508558726953725
3.927490609,2.818228027911492,-0.30510557754342976,2.9350311241806377,-1.9131852424109006,0.3761577555689343,-0.24919978813654062
4.027478783,2.68855629923282,-0.5672698886378876,2.92285119883933,-2.1427989683477406,0.35741624029242297,-0.25077013198555476
4.127509593,2.5026368482982875,-0.7921384029130528,2.910108224243787,-2.381355687129931,0.40763775758115905,-0.27533535487541577
4.227480257,2.2951116567660947,-0.9531210103396636,2.9158110564837147,-2.581090144948871,0.3624427532579706,-0.2439835905667869
4.327477165,2.003498024391537,-1.0882538200489253,2.9268944559107455,-2.8272140459377177,0.3514526529477458,-0.25035407791395137
4.427570174,1.7176715417062716,-1.1459732003358325,2.9240199211814044,-3.0634873198047545,0.3489820217301462,-0.2477798464379139
4.527572769,1.4275010633699352,-1.135977112478972,2.9085919464571974,2.9839794211894275,0.37362408795534546,-0.2551555215842842
4.627479303,1.148156359695525,-1.0589955582910338,2.89479445031821,2.7481587126552767,0.3775978397622471,-0.2574210228725793
4.7274790840000005,0.8939998402958488,-0.9195162958120133,2.914235604002106,2.518459157654374,0.3805685113888306,-0.23429928484949314
4.827479838,0.6773210260718469,-0.7256861767752036,2.9140455988684772,2.3007757532941486,0.402302271066951,-0.24340112960205215
4.927507107,0.503969623812688,-0.4874665366324468,2.9943224599317224,2.108126606004992,0.41828806415354863,-0.19058950078274414
5.027483329,0.377154162607784,-0.24530400866690202,3.0851014174066256,2.0175289173126036,0.40851876602565845,-0.08781527763946077
5.127479652,0.23043418381090033,0.07227116466169725,3.2408036028909177,2.0165801729240487,0.40955426304118,0.01701271856617879
5.227479897,0.0835697865950387,0.3683583733271582,3.3388082642671595,2.073062965750295,0.3419083385885698,0.08280798752743412
5.327501369,-0.09313472854776685,0.654240448805012,3.3655551765031566,2.2007607447935262,0.28796058743511593,0.13822837611100794
5.427477419,-0.3293301432838558,0.9369750187319615,3.326511474118724,2.380120663485164,0.27944659297525526,0.16417810692180956
5.527489002,-0.5554532275751309,1.129034782337562,3.273535523223601,2.5702689641993515,0.2608174811542211,0.1900765631043791
5.627523295,-0.8348851687532981,1.2855693687897354,3.163151085953356,2.805313177491781,0.2690876666763041,0.19982806984622165
5.727479195,-1.163124474817867,1.3783517295423293,3.073080506251423,3.044509836903235,0.30135735723265566,0.19344001491168347
5.827482252,-1.436880314203624,1.3912090061669289,3.0478105877416617,-3.056347226017158,0.32671255126783305,0.19881273473797148
5.92757516,-1.735276811823448,1.3428749195629515,3.023910677147343,-2.855375209618635,0.33162847685623364,0.2076192744879299
6.027505649,-2.0152247728977426,1.2332210894070519,3.0093627606969706,-2.6326984951540107,0.3314315835850011,0.21640482339073824
6.127483945,-2.261898418151155,1.067086347356794,2.961103259512779,-2.3902670002834245,0.3451193391966368,0.229837666392076
6.227480714,-2.478366018500312,0.8276200278084956,2.918115315784122,-2.1397556016692945,0.3452203899796862,0.2150354255724143
6.327524779,-2.605596463638038,0.5977375108700104,2.9210745982872353,-1.9458073701240997,0.3462337534778252,0.21547621873953848
6.427537556,-2.6894431577498397,0.31815130477008574,2.9292215253604823,-1.729384141366957,0.37789829124172497,0.21445657292566042
6.527479315,-2.7097852683095605,-0.002272843299698744,2.9242709013238146,-1.4880692970811602,0.3567435829982865,0.2231197070016444
6.627504516,-2.6688543173402373,-0.2621854788413172,2.9367097384219623,-1.2881145573666333,0.35331215107267216,0.21837908930522057
6.72758122,-2.565287664486215,-0.5350185082549873,2.9251588477815336,-1.063078278835555,0.3782942778828232,0.2306985479560881
6.827480243,-2.404335550313148,-0.7771929043918594,2.9069190613930296,-0.8340495539614816,0.3545884616894323,0.2290062473810889
6.927501491,-2.1944077409977454,-0.9769168866875233,2.915726984083374,-0.6160153913479806,0.35753822544777397,0.22334119743635644
7.027502579,-1.9456369381133929,-1.1245752187748126,2.893982506221516,-0.38961232115265176,0.38210066826211003,0.23248263611475486
7.127514367,-1.671230027410112,-1.2109213375105932,2.870979820223496,-0.15143393839026567,0.3501998232757613,0.23258116688860117
7.227477604,-1.3574305745003807,-1.2291342545457151,2.864390622353484,0.10175805231302423,0.35921132146037943,0.22203932434356904
7.327482415,-1.0758948300307951,-1.177477757286921,2.8614816765014655,0.32210727000445677,0.36536015401951527,0.22887789000361997
7.427481083,-0.8382160837324917,-1.0784091347528864,2.8694906798394606,0.5235752618685539,0.36042843563351024,0.23092964023481627
7.527485468,-0.6036967530386599,-0.9151057920602143,2.85836886266873,0.7470401889069697,0.3608689253284229,0.2296223224149525
7.627507523,-0.39405233293704167,-0.6803488553331352,2.881076621533881,1.0001476088049837,0.3836346161705743,0.2130775647441184
7.727581364,-0.26514983140215975,-0.4530386014810576,2.935239881304419,1.1662412192745046,0.4221883507638907,0.12886957206673946
7.82749932,-0.1432410815314039,-0.14529930605262661,3.0737359570364675,1.2353239577204473,0.4173285873541561,0.017476559021904974
7.927509982,-0.0458687339243782,0.11979241042901118,3.185810562675101,1.2282079746816221,0.4080504475399857,-0.07177524194476018
8.027565226,0.07561792368651117,0.41848963050299953,3.2648706478931744,1.1641725916977008,0.3482494151351323,-0.145840577329945
8.127503321,0.2277244467518914,0.7043717752635237,3.2303203499999706,1.0030419291508055,0.2954872256301176,-0.19522647534222068
8.227480656000001,0.42369118977338255,0.9569960590757743,3.179315732932736,0.7991478028833472,0.300576589395224,-0.21726572549298703
8.327478293,0.6612326382674216,1.1606177324998634,3.093958770936951,0.5785949372934587,0.2912822112596573,-0.22476049680663399
8.427478712,0.9609278270236224,1.3142969767049708,3.044425640314135,0.3303237267056898,0.30952490386489223,-0.23108642798783813
8.527611553,1.2242633296233092,1.3799525269897632,3.00563472370424,0.13151222920944666,0.34051194544829555,-0.23353297700373576
8.627497412,1.4926780996122033,1.389323244979013,2.983459742016534,-0.0655271387497695,0.3536238706028934,-0.24125379865568428
8.727479105,1.8126348187559378,1.3279073634847047,2.9449015531307463,-0.3104668852929726,0.3578675802422567,-0.24102286327678266
8.827492051,2.107834424681455,1.190503020216424,2.9572999254981736,-0.5534986159138418,0.3800536676886803,-0.24030865722636316
8.927573242,2.3184506448136863,1.027429366950856,2.956391605514277,-0.7544503718214791,0.3601184555556688,-0.24109642613207607
9.027479185,2.5243254424274215,0.7764147181125852,2.9472513088362393,-1.0054748555027522,0.35886153588029407,-0.2520018299954394
9.127479166,2.6512795770619335,0.511468505628875,2.9591619716644986,-1.241850490181373,0.35586533605910703,-0.24436264202054764
9.227483536,2.711439597721005,0.25528510851430397,2.931020081881772,-1.4470775565065992,0.36877714229843767,-0.2495010459715765
9.327481523,2.714696235260264,-0.0366269196641643,2.922821555130739,-1.6670662525428488,0.3558153565467107,-0.24705416598479948
9.427554158,2.6435663823292517,-0.3503954192843891,2.9427950078924923,-1.9097500200455952,0.3547354999908212,-0.24936669274144566
9.527481384,2.529798207516162,-0.5861728055108003,2.9004214241122095,-2.126016084169883,0.35063196425757653,-0.25696252348247567
9.627488809,2.428288989802775,-0.7265365498751633,2.8856832937660832,-2.2712796334090584,0.3313488400025833,-0.2427459134868758
9.727484373,2.123870361981782,-0.9881547549624208,2.882494464615476,-2.592656850741544,0.38791538327688924,-0.27347861500585047
9.827481375,1.8638322481753835,-1.1074370703133978,2.8605240051868455,-2.8364716311670852,0.35753362321518395,-0.2595042371551124
9.927493247,1.5831479489073348,-1.1624630738260349,2.859524970254602,-3.0738595852832074,0.3586625072356005,-0.2515748521242681
10.02748356,1.2969855769274707,-1.150265040082216,2.871884550173078,2.9800189500474907,0.36997980445053946,-0.24255727839631366
10.127483806,1.0209317936492324,-1.07215458165283,2.8780877582373767,2.7484815391181114,0.3775780619280284,-0.25247209504975604
10.227500296,0.7698701067422158,-0.9327641484827381,2.88322003513786,2.519017171777362,0.37868154623138933,-0.249550286378604
10.327477943,0.5365761616307164,-0.7173788692600344,2.917945690544115,2.2817316030196273,0.39923708976880723,-0.2241700575007506
10.427603339000001,0.381447099754971,-0.5021946332748628,2.9801021263798964,2.1238169019466246,0.4171778430480659,-0.19226195740978638
10.52747801,0.24153391839903596,-0.23356988601721282,3.096921170680409,2.0086061117046077,0.4037443226856209,-0.09992099009177272
10.627495983,0.11117751859342358,0.055102201697517866,3.2069466038149566,2.008393308539808,0.3847685845252238,0.008987069668388161
10.727495307,-0.033147523696207784,0.3497896093555402,3.324401984730323,2.0683666312676885,0.33852728823573797,0.08285609439485106
10.827478848,-0.22687909273377788,0.6605545749353949,3.33885613301361,2.2102680653326607,0.2859300858661148,0.13394637662305947
10.927479121,-0.41838879688117037,0.8891367609359856,3.2919067133203614,2.367644513718439,0.2740257691406724,0.16851150349964972
11.027517566,-0.6924449668610256,1.118763393959684,3.223157403154858,2.592092317037072,0.2588273760370384,0.18864572294245768
11.127480378,-0.9423671116237952,1.2554398701306833,3.132118322853226,2.791139247194468,0.2607875848323202,0.1926994600464298
11.227482949,-1.2382329671278276,1.3440965813092038,3.0556304281064053,3.0119090903431904,0.2930237449742759,0.19666734148996634
11.327478715,-1.5401775023712094,1.3643749648375194,3.028306301371602,-3.064176141558515,0.31871044896708495,0.20454409918348732
11.427506174,-1.836181158418895,1.3189227664314656,2.9985729716602343,-2.8556480484598414,0.32028774264650167,0.20510271432071817
11.527478878,-2.1125789444243224,1.2117718744121764,2.965306023386277,-2.6252681389543313,0.3304764531832786,0.219998685698103
11.627569424,-2.377621859498277,1.0281672221781395,2.9306455095370865,-2.3798581347319074,0.34552640778740923,0.2225508410566886
11.727509815,-2.554193202753837,0.8352472396270967,2.8947872600201636,-2.179272930770013,0.3505724251069006,0.21996416022059043
11.827599465,-2.7003999505991096,0.5846285666517782,2.9217417246832156,-1.9647925825506047,0.35964286250823463,0.22181916802102927
11.927482843,-2.7883037575203344,0.3074812343118814,2.901876091168413,-1.7485205450390324,0.37369783348236957,0.2314946869007403
12.027481972,-2.813651626318332,0.017595057130625702,2.9003748748976674,-1.5201462060664754,0.36195999342937907,0.22674411877539383
12.127477892,-2.7744016185373748,-0.26970446029729733,2.919166433820046,-1.2906192057329826,0.37306124335027857,0.23023477069715884
12.227480147,-2.6596351467071493,-0.5673390720193086,2.899237104573958,-1.0445493993526362,0.39460013972636254,0.2349606425653686
12.327480105,-2.513653733669834,-0.7839009190091967,2.9053946725910773,-0.8376581816299188,0.3696713363448467,0.22786193996393736
12.427503633,-2.3041976430217144,-0.984164921709191,2.897337948990834,-0.6170032430188923,0.3670843995349313,0.2231218427795988
12.527491257,-2.0553707733258033,-1.1335350553312173,2.9077973194607485,-0.39792260034707916,0.3942569910777299,0.23313246758545908
12.627602961000001,-1.7792467889202306,-1.2226869307783088,2.901493230434587,-0.16728693089589403,0.37156972252866477,0.24002483225964036
12.727478674,-1.490171715835486,-1.2471675320436124,2.910846840302773,0.06199747127402569,0.36005418600206496,0.23257018691161382
12.82748015,-1.1754604615977018,-1.1971630270237434,2.894326659555998,0.3200557385312337,0.3634981622488397,0.22008982948654665
12.927506878,-0.9090553320780971,-1.0847328562856688,2.89197885746481,0.5488019614962045,0.3544097490259472,0.22873663993211846
13.027480097,-0.696630655514134,-0.935747465563125,2.8793473725807206,0.7412828383878852,0.3568196012812729,0.23135892686103268
13.127478146,-0.5004306290506068,-0.7245380770082385,2.894830456278258,0.9649916460593603,0.3848059469520732,0.20028690182334583
13.227491263,-0.33637294442286875,-0.44763855782631023,2.9784467866217654,1.146620741849838,0.4186862354019193,0.13677266150286263
13.327482342,-0.2294737665008594,-0.19710310356357005,3.0789039082081673,1.1975710260784322,0.4136503200659865,0.026512208031129726
13.427483037,-0.11101472321653366,0.09466434533053296,3.1964294531488933,1.1920489874633236,0.3992910863365805,-0.06291408616423363
13.527583911,0.019884488021310414,0.3906846465709649,3.264089698130753,1.1279496319830684,0.3441739302237729,-0.13521239031797244
13.627506524,0.18021224321890578,0.6737090212187218,3.2474162636349813,0.9771100806539408,0.31019696609192454,-0.1810839224115294
13.727483564,0.3828123138979606,0.9233463201428852,3.1907730666645127,0.7770175800625504,0.2990798937422416,-0.20779023390057588
13.827487538,0.6518186914174177,1.140516419224262,3.1160437114798687,0.5329121649584522,0.29332752337277496,-0.22256255302803943
13.927477723,0.900136229646057,1.2618683215742665,3.0552142471370987,0.3238567274449887,0.30618811183426053,-0.2264635412082336
14.027546571,1.1934640708217472,1.3310117333339295,3.012789224309647,0.10006401876432826,0.34051293679013256,-0.22608947309549043
14.127479224,1.4910649337574637,1.3309420569191779,2.971852214122681,-0.1163915509793099,0.3626334042967334,-0.228539980434352
14.22748297,1.6954217902953832,1.2915488537239772,2.9734383154977557,-0.26185545197511095,0.3597956783540467,-0.22958223797332458
14.327585953,2.0495519057683884,1.1382015927699172,2.9724661361237312,-0.5541091351226093,0.41210550695872084,-0.259489876260352
14.427585525,2.281424242326238,0.9542310411068785,2.957502889551613,-0.795139007716554,0.36484856035107255,-0.2408659838389789
14.52760211,2.4638228643893325,0.7227192208645832,2.9414620108561738,-1.0203975155639378,0.3529819746126514,-0.23424527730878522
14.627535801,2.5995394831212884,0.4291290338466595,2.9178201231646916,-1.2627920079046207,0.3521174052385218,-0.23314944403690946
14.727503902,2.6544464523755074,0.17174110866061618,2.916959478119385,-1.4643103466724785,0.3582545361109042,-0.24062267487663883
14.827484708,2.652915311083,-0.11895750133172797,2.905440415335321,-1.6874079881637871,0.33613436751697645,-0.24377268472727132
14.927484822,2.587195420789225,-0.399955288546886,2.8835269196633706,-1.918612298510833,0.3405488595286467,-0.24607425299669497
15.027476911,2.4439676298632476,-0.6795022493921992,2.8609029814818494,-2.174283002815538,0.3425207744323352,-0.24858663038352036
15.127580086,2.277668577211163,-0.8740013561524067,2.835103565002518,-2.3757316629089775,0.3468089557472901,-0.2502627046275424
15.227484131,2.052558865656357,-1.046214684372362,2.8355995487543013,-2.5976457148705925,0.33757085373185197,-0.24268404108004552
15.327487521,1.7950662458911295,-1.1634879149226423,2.8380285081703036,-2.829636499448977,0.36473068491439875,-0.25397934206105466
15.427487312,1.51799264293953,-1.217519593816769,2.8201625231359135,-3.0717203764792864,0.36312503026254356,-0.26035564633518504
15.527507188,1.235470785689152,-1.204710854186961,2.8373585449207566,2.974602734673592,0.36909400910568246,-0.25532317428663437
15.627613702,0.9632864410670195,-1.12570471442758,2.8424393411064397,2.734438295082961,0.3948912980727613,-0.24800261952951796
15.727584587,0.7163570855221607,-0.9846996089158816,2.8709054638775005,2.4966717048761087,0.4059368274300199,-0.24968504024183227
15.827482689,0.5070104024561685,-0.7899793462335337,2.8627471105382427,2.2698216680412115,0.3979178552634357,-0.2356070701612466
15.927483932,0.3312659788714882,-0.5253023573466875,2.9309347185791803,2.044508590360172,0.41673501461571255,-0.19353149202123351
16.02748817,0.23154074570833402,-0.3074860461622027,3.0625861554668488,1.9655595819316711,0.44100339430336494,-0.0693720787203348
16.127502122,0.10197896590769828,0.014055179567422029,3.2135208140217535,1.9676794990504587,0.3905219757065183,0.020640496967859766
16.227484254,-0.018135468814928953,0.28254765887206246,3.3090528833659345,2.0283526353367205,0.3429426366294312,0.09123473904841184
