time (sec),x position (m),y position (m),forward velocity (m/s),"heading angle (rad), from x-axis, positive is CCW",throttle (unitless; -1 to 1),steering angle (unitless; -1 to 1)
1.029358628,-2.7605287586338054,0.08623808740924546,3.2030121099058113,-1.1470222946356219,0.4904395563588667,0.20898851184052533
1.129372217,-2.5817210507254185,-0.220313567942514,3.260699186947058,-0.893046858499549,0.4783372270402821,0.21427974366099165
1.229352901,-2.3565966002391865,-0.4558182827415444,3.2693202478495156,-0.646964752870135,0.4357819975146455,0.21345154547360545
1.32936386,-2.0839551310321114,-0.6329900237035153,3.242340184097608,-0.40076180679921997,0.4184427356730301,0.21131870428567104
1.429356339,-1.7804945754174457,-0.7404054558067436,3.216726079335701,-0.16323934274077243,0.4222328107440152,0.2139767297696394
1.529566515,-1.462449698590366,-0.77233947527366,3.2151778690688975,0.06437577036125894,0.41002754736363894,0.20123578408746287
1.629352135,-1.147095367425166,-0.7294967492308794,3.1908668445587822,0.2956971801071952,0.38618799214503685,0.1973951496518238
1.729384306,-0.8521970519001109,-0.6151975552809638,3.1772286670887717,0.5271390490356128,0.37124824743363505,0.20226166593836992
1.8293579000000002,-0.5936380719225454,-0.43764751259992535,3.133381836372407,0.75782599803172,0.35346173125111763,0.19805892449410628
1.929369832,-0.38369091732262134,-0.2072283178086832,3.1272290914298355,0.9865210427085891,0.3863146868579786,0.16101570120569508
2.029502948,-0.2391425568035058,0.03502771920262024,3.1592597595523046,1.1438964354386598,0.4254957485453427,0.09630172333988322
2.129418697,-0.10009967526601987,0.36350333310624383,3.326723095024501,1.2005292298995596,0.49138890007117775,-0.025181828360840854
2.229360692,0.029357875103054515,0.6782407947796283,3.45511980248292,1.1514025207475433,0.4518413422543572,-0.10023665362760482
2.329356346,0.18854714605447753,0.9898104001180599,3.5131365228874967,1.0267117976851963,0.3999972509025386,-0.14731842430644787
2.42936486,0.39150960511017613,1.2777497919715373,3.5173993060576185,0.8543001720754064,0.38561283730583695,-0.17338562802795318
2.529410109,0.6410005125919119,1.524931437817103,3.5089841375704016,0.650687876301666,0.35079463643924075,-0.18803072743275082
2.6293503620000003,0.9320085832276471,1.7145071923674762,3.464529921441242,0.4297504263643654,0.35394511734848266,-0.19367427219733643
2.729436853,1.2524845088669776,1.8351967063398997,3.4024047873852794,0.20732857397936275,0.38748310286270743,-0.19421791675028732
2.82935396,1.5882587123249448,1.8823708203365364,3.3911695710918606,-0.001055018297427191,0.38972560865570366,-0.19574887420686735
2.929445603,1.9242431585574507,1.8563736118723753,3.371129254234468,-0.20633267365624527,0.40025823170034985,-0.2035954267349726
3.029354597,2.2470202628007163,1.760289448855259,3.379070434491418,-0.4187757026345541,0.4331932894539476,-0.2114959066310017
3.12935317,2.5415795924865563,1.5972638467664526,3.3680351843754246,-0.6465611652857318,0.44716875503246467,-0.2157949173275723
3.229358539,2.793064655259601,1.3733357407877018,3.3854578393968073,-0.8756720394051019,0.4519273307851958,-0.21404557331761304
3.329437015,3.0043700462814917,1.0683582871514623,3.402320330766837,-1.1187630470307437,0.4491843376199001,-0.20047749668068776
3.429412272,3.1208512703134588,0.7856780752571426,3.4161631513243838,-1.3051651537199334,0.47779484794740135,-0.21574722221573683
3.529349093,3.1850045473243096,0.4493507454578932,3.4497092864733254,-1.517871071064775,0.45733614353137664,-0.2126386743830534
3.62935436,3.1766826291416854,0.10527797074331617,3.444076541929923,-1.7416016888664132,0.4607509564125817,-0.20918761874176664
3.7295131,3.0952204203382365,-0.22949727621977545,3.4406668001048684,-1.961979783391387,0.45954033093994373,-0.21163040129895228
3.82937563,2.944909510954625,-0.5410193655962602,3.468068846523358,-2.167856891563517,0.43384939812871914,-0.2077805706125583
3.929350754,2.7314511177736325,-0.8115439559459972,3.4428424989687882,-2.397264241581423,0.42351130401990594,-0.2063762974663137
4.02936008,2.4650008838790947,-1.0277118890488839,3.436039501289259,-2.615868441291636,0.43726469248000116,-0.2051218694928461
4.129361459,2.158550380112505,-1.1816184122577982,3.4531405894220244,-2.8170663210200177,0.4010057002895258,-0.19945056986493026
4.229354031,1.828064374470086,-1.2691336518945675,3.4289674455063457,-3.0217966941303143,0.37360059224980136,-0.20090306354025295
4.329382086,1.4891534817991,-1.2851666792809202,3.38936243553241,3.0390730611768473,0.36603930927049144,-0.20966431170915686
4.429354215,1.1602303697153498,-1.228256737657569,3.3212000836451083,2.8102198203737476,0.32757407632312746,-0.21069556362694344
4.529423738,0.8591349641914737,-1.1012155537368078,3.252776633175662,2.5782732888611455,0.32654172908377505,-0.21087074443560277
4.629460323,0.5778804961769299,-0.8897253451543048,3.185658093855357,2.3307998417583864,0.35223874346191014,-0.21420265164206284
4.729441642,0.37210855496526085,-0.6432530433623612,3.2602952995407914,2.1504938670831013,0.44050547559562336,-0.14785029785818346
4.829418191,0.215040519773173,-0.38735888829741666,3.4097391767256684,2.0646697151578954,0.48567443225753665,-0.07924099849868295
4.929439201,0.030350927830517797,-0.04609701237186404,3.615847768845813,2.0704714277170178,0.509641555411652,0.008996031547126917
5.029359088,-0.13416599012892316,0.23968103308847752,3.702746483338368,2.1180266915479447,0.39378041002896824,0.05968492202153779
5.129350182,-0.34196131461047385,0.5483449800954457,3.735068919830384,2.209943659134352,0.31784404390832033,0.093668758301508
5.229412442,-0.5816328159352538,0.8335685476512017,3.699713262480349,2.3533733488509503,0.2735064573625336,0.13458136165636717
5.329357003,-0.8570484869717433,1.0754811437806333,3.617881770990943,2.5570838570158467,0.2112835997094682,0.1595693927062675
5.429360492,-1.194241156680591,1.2676461404028165,3.463910801888331,2.81981367896955,0.20060811693914302,0.15628126400953354
5.529357753,-1.484538922850763,1.3560696110013482,3.3265701028511527,3.0343406963714674,0.24146900997883108,0.15734979657769338
5.629421124,-1.8075713631958426,1.3789840702027312,3.1933719180102043,-3.028345307944896,0.27089352705781333,0.16291083722005942
5.729357693,-2.117865662859779,1.3264883969337924,3.12711568713893,-2.835079705296867,0.3170938560046826,0.16908996902055148
5.829378459,-2.406716040379075,1.2067587753363458,3.1375032253426705,-2.6253477806145336,0.37123288950171107,0.19238409964216518
5.9293723830000005,-2.663156009556309,1.027751721243973,3.125967980965442,-2.394600937212285,0.3555883076751166,0.1963676682081105
6.029365215,-2.8715528203186853,0.7970024774110083,3.0901100372613763,-2.160074270351234,0.3775724304483853,0.1926124162412037
6.12943161,-3.0327558794447764,0.4966247504513082,3.1229030757374936,-1.9046381742921128,0.4113838179077478,0.19769910986869685
6.229363787,-3.103533905144876,0.2263789362001937,3.119548070635454,-1.7055290873735223,0.40607989823904145,0.19121782149935146
6.329363465,-3.1167716688081817,-0.08626570283334539,3.1387689588812644,-1.471700501718161,0.42501961255906967,0.19940748725007904
6.42935879,-3.05888497600894,-0.3982077952731606,3.192005691589578,-1.2352686682077159,0.46075815158248723,0.20455170287236082
6.529353794,-2.9340783623019133,-0.6907368557877279,3.1917861572880954,-1.0171942547232886,0.43195851590581463,0.20363408914447564
6.629366726,-2.74494249047646,-0.9492446106058788,3.192928839912884,-0.7856856168084503,0.423598912019495,0.21180339174330318
6.729357265,-2.500549117767888,-1.1602945836976395,3.2462542564766923,-0.5631629305924184,0.4944332631201253,0.21079037184884303
6.829363142,-2.212921000550511,-1.3134067568031833,3.267433032503925,-0.33350474346012976,0.462181299219153,0.209311638198404
6.929404708,-1.8957792686490225,-1.3980130482248119,3.2971699633354956,-0.10679634800455326,0.4596823464301068,0.20596212322702898
7.029365783,-1.5653583394888264,-1.408476400024357,3.324927087777069,0.11763006258337469,0.47448058803878385,0.20541454529678854
7.12940652,-1.2392841535460006,-1.344791742362119,3.330696141289268,0.343108467795784,0.4277202054969475,0.1993925041282677
7.229353678,-0.9364620295762747,-1.21072438844544,3.307563767296601,0.5786563631046516,0.4053187682776976,0.199930239382549
7.329367447,-0.6726138862725913,-1.0146575884164513,3.288473510532123,0.796932585924289,0.4010452922909509,0.18586630898612505
7.429367061,-0.4581797184663973,-0.7674212267475896,3.279197652318731,1.0096322476610038,0.40865819077459786,0.17418063444954954
7.529358704,-0.29905950252013835,-0.4788580796913628,3.324243092506927,1.1986224619604804,0.47384062458063914,0.08623589743007413
7.629367857,-0.17654791708152565,-0.16164346867665882,3.470966822423771,1.23598899204696,0.5097071400291213,-0.023634677310828394
7.729373737,-0.05149335578697267,0.1704703266007225,3.5957741024891003,1.1806157625931453,0.4957397107947215,-0.10125964797510674
7.82935771,0.10502394360300457,0.49860783177796936,3.657442527245648,1.0492517625130116,0.413797091149022,-0.14474345631674385
7.929380804,0.306386922822416,0.8026453787180698,3.628795145230404,0.8721405868540967,0.3663000313449383,-0.16693673289788774
8.029357418,0.5553309250496944,1.0653069688179782,3.6106079004196108,0.6758662707586084,0.3729274447690904,-0.17680469173781668
8.129368962,0.8460992114143803,1.2724403985946198,3.546221027886254,0.4618013185716968,0.34894495184963753,-0.18373239352637383
8.229352379,1.2008903831647575,1.4200819796431252,3.479956831061021,0.22147982723321413,0.35183927695873246,-0.18563281895555142
8.32936647,1.504878744820096,1.4734626180861614,3.4106476102672514,0.03168772015202102,0.36042098412469337,-0.1858406922688227
8.429374781,1.842392181877527,1.461639535132353,3.360078101981653,-0.18186615650483925,0.36839581578363106,-0.1988846076666245
8.529364339,2.1654594409338177,1.3769841692945628,3.3323855087720204,-0.397578588427623,0.37603153683980944,-0.20571780648867022
8.629368901,2.459347427610304,1.2235708047255374,3.307908944899296,-0.6160130864326893,0.40210738862533035,-0.21467843833955713
8.72936753,2.710758455566839,1.009668442048506,3.2932843548899076,-0.8379549513283415,0.41428386207156026,-0.2102709080448547
8.829359627,2.910270268980197,0.7464533271683594,3.3052496885811893,-1.0581383886128393,0.4213787367545618,-0.21876751425172675
8.929358683,3.046001449844212,0.44626669539148306,3.304281836339999,-1.2923133735529655,0.4294624422231828,-0.22202521532798447
9.029359449,3.1105757996283097,0.12316138263132533,3.307089783114106,-1.5223127595702215,0.45783696931467827,-0.22024513691742198
9.129360702,3.101693267742421,-0.20754902328842537,3.32084109198597,-1.7417713003681436,0.44594274292763403,-0.21717904886274633
9.229361862,3.020166204708154,-0.5304875727998322,3.321877895944981,-1.9635089748901122,0.44360514522289746,-0.21368074580844337
9.329372532,2.8683957666013886,-0.8284130349569462,3.3642958275792942,-2.194933235759003,0.47348699675374056,-0.21768970613685149
9.429362406,2.652035819924705,-1.0860102371917928,3.3896968026915726,-2.4131020646820898,0.4470385710616782,-0.200153453938316
9.529405013,2.383754540856178,-1.293152269741134,3.404239195647539,-2.6227025804910795,0.4255687590144366,-0.2108381671051274
9.629375454,2.077515556968528,-1.4392417640853075,3.3910967873331535,-2.8410884019902416,0.436968676123184,-0.20906619983873642
9.729360848,1.7496097111094606,-1.516049028697112,3.3637533279444947,-3.0624255363925346,0.39000841126324237,-0.20677898552891474
9.82935263,1.4158281529339574,-1.5193057945329413,3.333448834848218,2.992862364156654,0.3751264761822957,-0.20889837566725208
9.929363787,1.09365250190861,-1.4488229366068786,3.2860741416075796,2.772064044484253,0.3736790837679443,-0.20934734294091187
10.029370608,0.7985193665072056,-1.3093913546348832,3.259315451701501,2.550001049904126,0.38032476327542536,-0.20965413371783345
10.129365735,0.5439321470853535,-1.1089587511153873,3.2437939566199883,2.3322582461731436,0.37803291055987415,-0.20875806847147693
10.229364595,0.3404652449306384,-0.8581497900731433,3.259680140475825,2.122109432744969,0.42574980849345645,-0.18763531093767882
10.329416182,0.17453189027176452,-0.5669162584337265,3.4507614095771992,2.0188641877541618,0.5314855054652271,-0.05880380658476364
10.429362237,0.015963432336271875,-0.24762671198882083,3.64364231508518,2.032118367154118,0.4917699494452281,0.018658812095003363
10.529353318,-0.15978221019451302,0.07928403192388832,3.76963759458855,2.0936291522194246,0.39675866598343246,0.06227540375917109
10.629505582,-0.3640387934011203,0.39694047361050094,3.78179706831951,2.1988156984020666,0.32319706525104874,0.10274600834653094
10.729375147,-0.6039017411749787,0.6878697542392059,3.7472281411213824,2.3610055361641447,0.24053183776116435,0.13326144661792133
10.829358949,-0.8806172834786077,0.931066415029005,3.630720130604846,2.5730554001436645,0.20300027860955125,0.15018618091460093
10.929367152,-1.219264280216415,1.121326289098786,3.4763153832722193,2.8255658864740782,0.2086616258624583,0.1552395877299526
11.029358634,-1.509665973897122,1.2090895225632532,3.3074456827865526,3.0339290094296234,0.2191714936482826,0.15675354969629704
11.129362673,-1.8320425485683394,1.2314821563838068,3.18053444509734,-3.0247616080907958,0.2652305484945009,0.15684259387109742
11.229359062,-2.1402718088939636,1.178767288713502,3.089688862337779,-2.796249546495189,0.3250561941326039,0.1670158834439117
11.329352185,-2.4217928597312737,1.0579674648803739,3.0479946943950065,-2.586984052154429,0.3386390816463015,0.1726560640402694
11.429355333,-2.6892955106819327,0.8562036725543861,3.0508865116453463,-2.354305314284333,0.3713350740023596,0.1791963788011456
11.529356405,-2.866956557080842,0.6453550047561675,3.0753981811152933,-2.1529593548943287,0.3981104669985439,0.1946205716986139
11.629361633,-3.010586193924946,0.37464628116683124,3.0535561268680387,-1.9189876623548,0.3976759859694722,0.19708965763135922
11.72935769,-3.093433251541107,0.04663158544734722,3.0830445568398983,-1.6724684287003135,0.39221866747955186,0.192488792025417
11.829418581,-3.098317792779576,-0.23334304034810827,3.120303727906715,-1.450805318084451,0.4121991395898925,0.19879539051053496
11.929361364,-3.0381780922008463,-0.5371099850253507,3.119134812282661,-1.2174232843820036,0.40150958924465563,0.20046033230089863
12.02943764,-2.9260276936423013,-0.7930725676103353,3.1147982074493217,-1.013794866103118,0.43250341431454975,0.20544475494697323
12.129396791,-2.717990068509384,-1.0683674251857846,3.1653522777754635,-0.7693489568020888,0.4635738331795652,0.20625095892925221
12.229366283,-2.4714034895515504,-1.270525776951766,3.2302677565406834,-0.5502648160800065,0.48515319730793427,0.21036562540528303
12.329358326,-2.1821642422991787,-1.4158602388965655,3.2733040649804974,-0.319513419235467,0.47386760473198664,0.2129211928941893
12.42941331,-1.8637779148550377,-1.4926429558318302,3.299043405352469,-0.08621960184130792,0.4572672638530133,0.20616739901184813
12.529361201,-1.5340988365633734,-1.4955265261993032,3.306281140369963,0.14344599448667916,0.4679293915964267,0.2021185439760069
12.629355848,-1.210797523115987,-1.424579488478422,3.314739899550401,0.36661652792895627,0.43432259643955395,0.19594682618404904
12.729384579,-0.8825562419132753,-1.2654034617595022,3.3177726635508806,0.6241560598633715,0.42258915310034295,0.18666804124888925
12.829365745,-0.6508225712859816,-1.0798389495799243,3.300879225421985,0.8229550783756894,0.42166819176888565,0.1851668647911714
12.929364139,-0.44138696558214996,-0.8260037980031405,3.3002943255918598,1.0317922775665067,0.42713406618765987,0.15835220859838722
13.029379794,-0.284826344611776,-0.5320280468057231,3.3673705240249503,1.1996063740999083,0.47008176567487786,0.08189286204135438
13.129363227,-0.16574400039725215,-0.2091499239576791,3.496964438969427,1.2567944769004213,0.5112864762714566,-0.02608423817485348
13.229368959,-0.050614244834017136,0.13029799862412234,3.6300866112952197,1.2224744806780328,0.4804713870773852,-0.10389011531352169
13.329359268,0.09324489046102251,0.4666548739355577,3.6665177471375756,1.087291934212246,0.40625470439857314,-0.15551203662499524
13.429372878,0.28390477782318363,0.7793566060545962,3.6541798961880785,0.900026527996945,0.36734935085814424,-0.1728722472906115
13.529367647,0.5239078764129559,1.050235478046285,3.5853577520476656,0.6979174991585337,0.3525990026925072,-0.17766630675673062
13.629364641,0.8081924258640448,1.2657330588001692,3.5541033036853262,0.4836179867856857,0.34214060587774886,-0.18343391770361167
13.729359119,1.1257644487550866,1.4119325745788907,3.444837659919502,0.2584890337140824,0.34459494094226145,-0.20259097994307765
13.829357909,1.4604390192261525,1.4808338689336709,3.407697432929113,0.03906982220575292,0.36323923951303766,-0.19647189163109494
13.929354789,1.8298521588576029,1.4685665506438266,3.3465971823382974,-0.20096758302276166,0.3711564146389434,-0.19948902224862647
14.029403234,2.1499463945585604,1.3792059357424815,3.309316097569599,-0.41710016607984784,0.39333701011763145,-0.20142559420491812
14.129359725,2.4128752632587642,1.2408233783166003,3.303354516001701,-0.6121614502295011,0.4179914442802371,-0.21077060054560107
14.229354202,2.6877654575604675,1.005316296733992,3.315153268809867,-0.8543575235867428,0.421390581456545,-0.2162518153078674
14.329351525,2.884590246330224,0.7391778139628822,3.3086088060078502,-1.0662826483416024,0.44298422595824855,-0.21522525257649436
14.429361872,3.0085632076266706,0.4682815022450885,3.316746915426209,-1.2798272220319873,0.45787001952755435,-0.2258362972727172
14.529372396,3.0781710354118865,0.1453791206612722,3.299297655786851,-1.5183122458638874,0.4327957543495524,-0.2235722111789435
14.629360137,3.073352077166045,-0.18566857577682613,3.3393824324107797,-1.73593697630826,0.4402772022036531,-0.2172789169726472
14.729367183,2.9957166714854417,-0.5094855014439084,3.341591160710208,-1.9509117592044813,0.4505865248310728,-0.20971675936173995
14.829365624,2.848756536220024,-0.8091236860699361,3.342987917073558,-2.181254909831633,0.4438264405000464,-0.21924655623618514
14.929366049,2.637490656760859,-1.0688410920237938,3.371783609424477,-2.406810416517511,0.4316900800683596,-0.20172412834101278
15.029366411,2.3736522064757497,-1.2778427108573696,3.3849643834025946,-2.6171490476480446,0.4479909194942776,-0.21259349993098486
15.129358264,2.070188792489099,-1.4276072257936807,3.388571454044092,-2.830718376829511,0.41747585214329475,-0.21569929559472234
15.229366257,1.743903889621756,-1.5081589858881144,3.344093510970456,-3.056555966502366,0.3848926406342173,-0.21368809332197347
15.329366571,1.4110448604807733,-1.5138081679647923,3.3178989725838304,2.991473142009667,0.378214511754391,-0.20980832922200165
15.429365335,1.0898768620544053,-1.444196386669413,3.269442563954386,2.7675882054969567,0.37989166832609367,-0.2061058460343769
15.529423132,0.7952218797436433,-1.3052319954616705,3.248327827944413,2.548542312457923,0.37092557958518035,-0.20783839190317707
15.62936168,0.5415870196286656,-1.1049093769363616,3.230128280092236,2.3253415094617345,0.4006439936462035,-0.20333389303973334
15.729365933,0.33612542673818585,-0.8530188868994871,3.298073428591515,2.1243826461209823,0.44425040732792065,-0.17676538439199457
15.829343945,0.1571682472489759,-0.5296170387580317,3.4503289754355033,1.9922704735842984,0.5080115115609918,-0.06969709071864735
15.929414701,0.004481874819293502,-0.2065947929099662,3.649051568979609,2.0146500356803556,0.4809499679678741,0.01902232353027333
16.029360418,-0.1671684582160353,0.12139546997719473,3.74180964083634,2.0852308774459773,0.42245981609635885,0.07411879187842342
16.129363518,-0.34709812314285776,0.40746292819542357,3.7513054036036437,2.17989567864945,0.31694545370701815,0.10560326457669028
16.229354700000002,-0.6057506062826845,0.7279628038294879,3.731566121985965,2.3533663463950356,0.246624848804824,0.14091856756192706
