time (sec),x position (m),y position (m),forward velocity (m/s),"heading angle (rad), from x-axis, positive is CCW",throttle (unitless; -1 to 1),steering angle (unitless; -1 to 1)
0.12968695300000002,-0.8251153024499553,-0.9323543952703096,-0.08014163178053467,0.9636553171910778,0.65,-0.2997692247976138
0.329686187,-0.7931214845693367,-0.8766428283269169,0.3829421877941847,0.9304964979308394,0.65,0.03876371791489318
0.529685119,-0.6308725335036545,-0.7768596966340658,1.413241198469034,0.9950735505309489,0.65,0.12624337697619703
0.729692235,-0.46403077881910765,-0.41574573080334615,2.4573043505558663,1.1774814004100411,0.65,-0.008048228679607378
0.9296858010000001,-0.45903678069415443,0.09221882558814834,3.350467498233747,1.0640209040096742,0.65,-0.12025226261058228
1.12969955,0.07019682286509585,0.8108304645652397,3.57619343454599,0.8228036610398256,0.4334747452117904,-0.18636818719364434
1.329689994,0.7108136322054439,1.2951360502303595,3.5243968224529203,0.31682073757030604,0.31494257809510295,-0.21522624955089362
1.5296900070000001,1.2967653319456307,1.3441959253855866,3.2225085804018736,-0.01740680506750871,0.34001133115659365,-0.2341086163221543
1.729694571,1.9735509452720523,0.9942363954409317,3.16776527047024,-0.5355134767685653,0.45740949982634643,-0.25412960154860054
1.929693285,2.5290357689599263,0.6782092235191622,3.3240192558995707,-0.9997166840240517,0.518750961179734,-0.24690200431764175
2.129685886,2.7763982869902772,0.29230744470262227,3.273895838163231,-1.5168087269775599,0.46794236889248664,-0.2352703871429807
2.329685951,2.451053492793388,-0.5202852068272794,3.2018491399106415,-1.8396247991849095,0.42203970139268976,-0.23515701756965432
2.5297858939999998,2.1201428810415797,-1.125929289680416,3.079934722492011,-2.340266748922186,0.35701337818864054,-0.23799375109024704
2.729689238,1.755356131673017,-1.4100678668678504,3.1330691887689284,-2.7839041831383122,0.3153467616445909,-0.2631482681447477
2.929691418,1.0421065816210773,-1.6024916440170522,2.9094831582969407,3.05447861090125,0.4190401811892035,-0.27677642710343314
3.129689194,0.7169567302525246,-1.3515592796123883,2.977570781002992,2.5246578486872195,0.5399931465137905,-0.26882359370031633
3.329698708,0.15775534977073752,-0.8973651110517595,3.2647823095112893,2.0567123033066546,0.6416474230595035,-0.1497738379034699
3.529685932,-0.040497877129639995,-0.11586135020326893,3.6127759542511986,1.8995492590239265,0.5900637662184428,0.055240552414893625
3.7296837590000003,-0.3154239929069451,0.5182054867269696,3.868281962672455,2.255824947193548,0.330999144511639,0.11876223800435654
3.929686175,-0.8097582624962337,1.0856462305399697,3.752247324704837,2.4684350371102606,0.21286410596175276,0.17212666532915896
4.129686627,-1.39367877129338,1.362794506021013,3.0779417910575795,2.9557825089313003,0.22792847644807473,0.18369158926595475
4.329689246,-2.3070867134439434,1.2709812722074623,3.1291574876294748,-2.9123450728488893,0.29287770077877895,0.20359363980133421
4.529739494,-2.5197725533369466,1.215807945097775,2.907336004579632,-2.464685283124749,0.3871808347201929,0.2366310632422349
4.7296978460000005,-3.021175515999085,0.6009876527321165,3.1500442509062516,-2.141218765806734,0.5216843694976676,0.2434480062538301
4.929784992,-3.130154406101863,0.0753686886712648,3.258118563554549,-1.4191732151426795,0.5375690831463529,0.21532564908627658
5.129697111,-2.846265702315464,-0.4647319753089147,3.438510168198771,-0.9305379171231507,0.546249075215997,0.2043504302144719
5.329704794,-2.5561656934950943,-1.105524968152577,3.3888333199707645,-0.7007381779505601,0.46661696235550415,0.18773910784125172
5.529686511,-2.211700605066134,-1.5265136642758805,3.330595196361133,-0.1958234134726521,0.3817066869443332,0.19373230357568744
5.729691526,-1.336835191212924,-1.3688847909362452,3.207001920724199,0.28183788709970126,0.34405822546921894,0.19963026330558592
5.929688905,-0.7979910204851178,-1.2081812341027076,3.0466172423768736,0.8971381957762632,0.3922817231460876,0.20350511404029806
6.129685264,-0.22400898102992478,-0.7808727520470738,3.1536554780992354,1.0531320669251236,0.5814097969249092,0.10195790488459217
6.32969809,-0.13837484412311177,-0.11599807143847846,3.702931302071649,1.1266935854631845,0.5405166520142688,-0.07615113630707526
6.529687341,0.46777281219739786,0.6840643630824413,3.6737466841842297,1.0927919691540853,0.328640427371375,-0.15042824252877668
6.729746337,0.7784379821883262,1.1419255429198893,3.619157938606862,0.6610578539157184,0.23118754301065683,-0.19122588495980855
6.929686018,1.5821218819977725,1.474239285694901,3.3631878019701102,0.12893151293485855,0.2746667814966854,-0.2180948808636164
7.129686494,1.9322840193644755,1.2899247685349342,3.2950938988024667,-0.2687659770546002,0.39428927322543017,-0.2525132567559897
7.329745938,2.5156417130456656,1.047286222019104,3.193266818350664,-0.9310157825559051,0.5320838294894544,-0.25221274952885453
7.529692619,2.9074026279466465,0.4602259660835878,3.1132765166950924,-1.2278589641873554,0.5205997970327834,-0.23929241273080162
7.72976348,2.760889575750772,-0.06676141953822762,3.2986381606113655,-1.7991218278809158,0.4983610756811861,-0.2181238045332175
7.929688567,2.56972163505626,-0.8429595355086663,3.344519958860559,-2.280153260633043,0.43951569107099037,-0.22464615425044443
8.129690563,2.3307567676539507,-1.1642494483569128,3.2013644356274016,-2.508280439161154,0.35590179144322864,-0.2374826385287601
8.329684726,1.6604834127852741,-1.428113188675968,3.080475744316302,-2.9266199364551553,0.3569006136681859,-0.24654906734785126
8.529791301,1.151495570594014,-1.477661360434967,3.2306557327916927,2.6634104194047294,0.4653828331482847,-0.25859933739299434
8.729686088,0.5035581073292563,-0.9119000128574104,3.2050588073498707,2.2094026938125593,0.5695888094833234,-0.2245251793244248
8.929686002,0.0811229027268024,-0.4239525190686857,3.7269492373693063,1.9089854547728478,0.6043053900722707,-0.04646697826946787
9.129687967,-0.015631865349741758,0.06513945490206582,3.818253643085156,2.097513112731253,0.4418863199559402,0.0793157287266728
9.329785118,-0.4523382203443776,0.9885771905170685,3.6032478042488525,2.3208464170402374,0.25351438429109846,0.14787609301081395
9.529689233,-1.0067939782052544,1.391910621647056,3.567655171075005,2.7788015640524453,0.19861950977273218,0.17400765989696165
9.729715281,-1.830050926191423,1.286031375410944,3.3511516868889046,-2.9785068615039574,0.26352678474862545,0.18099716583735764
9.929687167,-2.3698259449015193,1.4142166864941548,2.973889821040414,-2.600857700002226,0.35294608806429234,0.21288722078047703
10.12969071,-2.582903439727288,0.8494117198697306,3.1750919725106517,-2.07663085542608,0.45470659640626804,0.2290636995228988
10.329702634,-3.0939554205887996,0.5492843608355074,3.2127467805187147,-1.655029389940009,0.5179402330903038,0.21353581297344795
10.529691306,-3.0556879281759555,-0.2428845318392202,3.279418233483244,-1.2883500031466542,0.521063088340481,0.210855131759692
10.72970613,-2.6787111459562762,-0.981790570972456,3.3893577878252503,-0.8824228171508811,0.4893036091130501,0.19444995730749648
10.929685501,-2.2820974254455617,-1.2443583391717525,3.2437855632660413,-0.45386782095146017,0.41733286914063256,0.1890735757451967
11.12969005,-1.6466674563408321,-1.523442909111359,3.218385221342632,-0.03973182162815343,0.34458438185223195,0.20283361661600058
11.32968543,-0.894261598087346,-1.2902064934993573,3.2448264535652984,0.4987145244433628,0.3508486747293199,0.20960692940630427
11.529723517,-0.5909538544055286,-1.0494308171848485,2.956098836983058,0.8133357054326984,0.4846011055157307,0.1845986754737288
11.729686641,-0.11330585761594385,-0.4415366679372465,3.5088608003790944,1.2363598791458497,0.6198766705967785,0.013800746370394657
11.929687018,0.35284606764445847,0.2241668507387299,3.929407046760502,1.0043407987334991,0.42283872192847205,-0.09739566350112451
12.129687969,0.5763469603968467,0.7678278983746346,3.6266559964570453,0.8047690694287275,0.2466756385382959,-0.181253403218967
12.329690222,1.2057506286068618,1.0445429121347243,3.476972404951803,0.23361668080476847,0.20304718992511864,-0.20128801569335528
12.529688038,1.6907680719812372,1.377402859798144,3.068194632748746,0.08634324059599446,0.31553156844065716,-0.2390629172128801
12.729685756,2.3139666715198124,1.3437249685222101,3.1430846686078344,-0.6442850386113467,0.4690457946832219,-0.2530272792687111
12.929689218,2.9779848648020635,0.65407983156118,3.3272382273330368,-0.9077401903455499,0.5650727255935646,-0.25109924059605393
13.129688172,3.024749663308099,0.1070164922512894,3.205854465804009,-1.4952667548343717,0.5046416676370568,-0.2279599208064146
13.329690259,3.025425288607947,-0.5292435215153237,3.2285078898554525,-2.0540243432537366,0.47125436528615966,-0.20488134536783265
13.529756935,2.6830386770277435,-1.2137940601135861,3.1725090071072897,-2.4574368133037634,0.42689799589748,-0.21388578946327566
13.729777825,2.0547612910785165,-1.3432592321961827,3.0606195106796354,-2.875366918624622,0.34321276455342,-0.23112433006042848
13.929685826,1.506535737675153,-1.4050371689890078,3.1877281827415582,2.973668919641001,0.4005315269063074,-0.25180631718805263
14.129695554,0.7357380462775867,-1.0947647220069336,3.1580123908829227,2.468129689706827,0.5167735684991696,-0.24308096247256158
14.329685405,0.24778758162974218,-0.740130868125477,3.2476840167509176,2.1929255591270014,0.5880400087018539,-0.15137951299617844
14.529707943,-0.0739628716471966,-0.1891735344939218,3.8209015860329494,1.90625392062496,0.5390163791574261,0.058132682340700376
14.729686015,-0.16414844710771226,0.5446282260996226,3.75932829997812,2.2442747362671813,0.31274165347635013,0.12226732046120393
14.929686696000001,-0.7810656082949639,1.0371613154744852,3.5961597640311473,2.4516187704636896,0.22159066082492157,0.16784847300524813
15.129686703,-1.3400154936828919,1.3980671315139943,3.480397838172064,3.0140546726148,0.22444225321091718,0.1845961399531054
15.329738717,-1.8903306505212405,1.4695736378444564,3.3660585161345367,-3.1233965621028084,0.3055005227240421,0.20846937682024352
15.529696819,-2.720728735352346,1.2061197889941704,3.0467268370791247,-2.452110553581011,0.39110177777008315,0.2352767798105464
15.729705651,-3.159267244612287,0.9226239910290952,3.0477209529788345,-2.056205328786447,0.4850986594622297,0.24137036339270151
15.929704216,-3.198831085039631,0.03065154222625255,3.2848123148649186,-1.6273522150602973,0.5310912976884189,0.22005248955305456
16.129690386,-3.19303961312416,-0.5886239982080594,3.019593641426356,-0.9395547003319332,0.5089379678464169,0.20722520632862929
16.329685181,-2.4289279465268754,-0.9458989076987045,3.2909039436457825,-0.6664059587798444,0.4744555790705984,0.20178491085935257
16.529685881,-2.0138198233142925,-1.3909532916063285,3.216091350981597,-0.1914571671509641,0.36225089751937173,0.206580628419322
16.729685877,-1.5072819394369648,-1.3530996490723521,3.1668534274708047,0.09975689092237348,0.3205990263280533,0.21558573685855148
16.929691279,-0.7726378206042713,-1.1099035973817926,2.9896171206509887,0.7145316412127506,0.3646756880756245,0.22840275811589256
17.129686741,-0.3663280434554379,-0.7764941477251892,3.05817241905645,1.2101891934602806,0.5592073412818452,0.12605316920785856
17.329686714,-0.14132170013008252,-0.2108028762381402,3.6012253884434022,0.980086095532633,0.5384057288049443,-0.03866639627865006
17.529694409,0.3301385318308892,0.5322034413274273,3.8211553238157747,0.9561993352780171,0.3306202930482219,-0.13814643429081677
17.729703723,1.0455448472950857,1.2002671672024554,3.5201839021236765,0.5528368953733259,0.20562293043076127,-0.18994299713138446
17.929700156,1.538914579911754,1.2945879398758078,3.16574121446183,0.1327206334777312,0.229466665705409,-0.21977311082196466
18.129687091,2.1885857790253214,1.5163118330675278,3.0903645493491476,-0.14045210157559737,0.4034245697252391,-0.2589083007827354
18.32969096,2.743550120696984,0.9529346020466052,3.095840554328244,-0.963992086792592,0.4953645094660668,-0.2560505247636121
18.529742893,2.8864242007582046,0.5317569046862053,3.1315505267255355,-1.2415017959377272,0.5276973174748248,-0.248815364475944
18.729686533,3.0898995071717303,-0.05859910059432888,3.479920398712478,-1.69630853100807,0.5006747563051067,-0.21721031948803737
18.929765616,3.0061727186818747,-0.8581686029832855,3.157758763472062,-2.262534743832217,0.4369769647342634,-0.2094452610337977
19.129685784,2.3060434920725648,-1.25563231774938,3.443115932178254,-2.439474464844332,0.39024218251275755,-0.21920726764728815
19.329685895,1.5782435006800735,-1.4145981583042735,3.141789241427237,-3.113925460034897,0.354973471951132,-0.2415239416321926
19.529687261,1.113294258293424,-1.5450594209636308,3.2241560438309733,2.8924538634643633,0.4460739777232668,-0.2597617472579753
19.729684862,0.6255443119296902,-1.0137637948384526,2.973210365678479,2.3183677121484405,0.5417976014895906,-0.24221017904108957
19.929685249,0.015752554001602137,-0.41838586654277576,3.4566656194398266,1.9653630050161839,0.5972685321674115,-0.03812823961193313
20.129685684,0.04048010396631491,0.21167922779215706,3.895249279803101,2.065368981854504,0.41526405367172914,0.07815045319852491
20.329685857,-0.5531925694183064,0.8746258751730996,3.7975514321475887,2.302010220756354,0.2782311596636149,0.13226429085946134
20.529688079,-1.0835877529164333,1.2030384837664099,3.6142518327063007,2.692626745904981,0.19814757154310642,0.1806539102754815
20.729701332,-1.7258307583594779,1.537520404301317,3.1843049302929693,-3.194143787193532,0.25585159746615255,0.18437226205001467
20.929702515,-2.210644158267077,1.3909743567550625,3.0131199493332836,-2.8852969228738883,0.3670487962563032,0.2009033012043348
21.129683898,-2.714779621890248,0.9904222863602131,3.0922276129346904,-2.366384199990473,0.43550333008481784,0.2303433361694119
21.329687414,-2.890403390440906,0.6033502300117001,3.186024541510735,-1.8784808196193015,0.5132665171570608,0.21868672570251144
21.529749689,-2.953841727207463,-0.408770240269845,3.344511763724326,-1.1341264064963281,0.5409955097915001,0.19209129435379316
21.729688075,-2.5799011137895507,-0.8283398239453631,3.3552908171696654,-0.8061804039952634,0.47492918362061587,0.18350728457011142
21.929683996,-2.084093068338598,-1.1603239044757352,3.2322514517121235,-0.32952545665434774,0.4070597072770186,0.18890043800660972
22.12970415,-1.6391139803487549,-1.7431077542018296,3.3708327653652126,0.057296320658541726,0.33759807398387703,0.19650862123879742
22.32974087,-0.9335339392044555,-1.3201901856950962,2.940326400147106,0.6303857547371977,0.33532799160180754,0.21151505919372723
22.529731166,-0.34118360027264977,-0.8604520816809664,3.1944994153761055,1.0635609067683713,0.4713724869449154,0.17832403842226502
22.729687935,-0.21356066582153965,-0.2066307709187044,3.461266237520712,1.2361903119455377,0.5866002341702087,0.013877565785965107
