time (sec),x position (m),y position (m),forward velocity (m/s),"heading angle (rad), from x-axis, positive is CCW",throttle (unitless; -1 to 1),steering angle (unitless; -1 to 1)
0.130487446,2.9541971512304,0.002793526341328248,0.17294452891946796,-2.0776246270752643,0.65,-0.14937023392906953
0.33048899000000004,3.042170695943564,-0.3604388594980369,1.3607644521873268,-2.0029570936039605,0.65,0.041218698944396205
0.530490013,2.643469418075764,-0.3082952869391018,2.3183219267084625,-2.2348932888736117,0.65,-0.11882529741265278
0.730487729,2.2473101193880773,-0.8300073028042683,2.9821150782300805,-2.313878570952522,0.4625640165021462,-0.20797854461858684
0.9304882200000001,1.8315527240025267,-1.4104035388102079,2.7863624383371173,-2.6727378993113553,0.3398033555644924,-0.24985337298628263
1.13048792,1.3012817161160055,-1.3860897379827037,2.9340631858136077,3.0671925056239666,0.3944249646547914,-0.26076126446407116
1.330487113,0.7357479817242195,-1.1986077778113173,3.084908903209929,2.482742318802013,0.47887393493657243,-0.24992239324059423
1.53049425,0.12392021943509772,-0.8615536860096802,3.2621202835336565,2.124044171518862,0.5611504801485232,-0.1805143809750793
1.730500143,-0.05910513371465545,-0.24657968757791304,3.583112593438887,1.9493123795582326,0.4929449332929585,0.013272145396123007
1.930501304,-0.33054437497219336,0.46951283840346647,3.6179615760665342,2.0687220787335496,0.3229805833502228,0.11197782466172285
2.130487968,-0.7427393914913393,1.1037382006002077,3.500021906117576,2.543507644401914,0.2438393524387786,0.16788669250207328
2.330487703,-1.4899740465176774,1.4236970818610013,3.288756172651873,3.064204582830813,0.22853715550171386,0.18168018300158986
2.530574128,-2.081399184930046,1.5003064866240208,2.9516407722176563,-2.8551041940928883,0.291037369193993,0.1985628533314505
2.730508075,-2.789986002896114,1.2096661772457482,3.0042128999057987,-2.4402952089028513,0.37262379257082073,0.21870327539357623
2.930486494,-3.0998352478437288,0.5371237544818395,3.0428659795058373,-2.191250196053604,0.3962136141606477,0.23402125276318933
3.130563686,-3.330934822864837,0.18133366446720459,3.079880099158556,-1.4392309043071023,0.4639802431818209,0.22495108621654913
3.330486123,-2.930457207941359,-0.5199681904912724,3.181286889592391,-1.1543222530998574,0.4787645978845563,0.2086624505733399
3.530487135,-2.7445180224164956,-0.9558008657057316,3.0412649784068497,-0.544186093843977,0.4462690239523928,0.20138616308621307
3.730488706,-2.1953840321062867,-1.3540601809314983,3.1673631723405413,-0.19076998606073187,0.40968242568981644,0.20753508777339788
3.930487637,-1.392949798907415,-1.4600038003070968,3.0364437671228903,0.21174755255459804,0.35439034630577154,0.21078620561201034
4.130486339,-0.7959981317012339,-1.0393630027586416,3.0012003903569853,0.5845076230669485,0.3677958400817714,0.21107674765220255
4.330496295,-0.49873717604170215,-0.6502431067579217,3.014644390989327,1.0076719805145702,0.49768791647426913,0.12717985501767398
4.530486665,-0.2306917861963098,0.08568838271223837,3.7346558315644613,1.2698031851856217,0.5021841632983242,-0.055604352554629206
4.730599816,0.10202699592888542,0.5673930714874178,3.5411298985681565,1.0383652967250045,0.3633839842674334,-0.15785770099792332
4.930489563,0.5424423356241872,1.1595980918400783,3.55271711848839,0.4787501877248709,0.2572975959132685,-0.20428165400701698
5.130550359,1.2160046970942548,1.294959296257752,3.144280207295171,0.03245548837241041,0.29663576698726224,-0.21508904598747322
5.330490493,1.7067443239997209,1.549168786294143,3.1342202812398257,-0.3907898162868151,0.4134215567060855,-0.23118837176975843
5.530489647,2.4291638557819155,1.0721046343250096,2.9970573565062555,-0.8877896915228163,0.4304963960105002,-0.23660197497911808
5.730489107,2.7303248992499807,0.432461063585874,3.1342677315488086,-1.1987552390284202,0.41763666294093854,-0.23908829796843478
5.930562393,2.9452578393400572,-0.12898684883143272,3.1739801477395244,-1.669203823248826,0.4399113155775123,-0.2333823866512271
6.130489469,2.6338510842062735,-0.6493024818761358,2.9856932371290545,-1.994585804987658,0.3651798821923553,-0.23383924012834517
6.33049635,2.273197089496988,-1.3279564613000616,3.2335672254566075,-2.5308602816233803,0.3477268901157407,-0.24125453811330635
6.530509089,1.7913457237403538,-1.4798660576358167,3.0653504704411967,-2.9584269049075904,0.3756376789216369,-0.24829539785862934
6.730499989,1.0830298250851709,-1.2998182659252628,3.0909896283496305,2.756423363363573,0.4359364618158203,-0.2671001120591439
6.930486014,0.5607414415984312,-0.9091729719945139,2.9448355048328905,2.209901278754766,0.5292646374540027,-0.24486127123958865
7.130548299,0.11817455943069632,-0.4467318594321635,3.301561465951763,1.9439839506890846,0.5660960353159523,-0.0689200229590007
7.330502573,0.09631485190219434,0.24016409141652395,3.879682227742704,2.21817072074856,0.41556750961674427,0.07507402612503783
7.530487116,-0.3860037376975368,0.7046822373739752,3.758326658633162,2.3626760181585436,0.28653722454363456,0.14823415462889156
7.730499677,-0.9530987545183809,1.3310920677940716,3.515076493063206,2.6713621315314606,0.22947728792412478,0.18244513888909136
7.930484079,-1.5587993050394062,1.527522813550221,3.0645127347604317,-2.886492681110956,0.27779700840495436,0.18327216228957885
8.130486977,-2.336867900803189,1.356075766574265,3.048957716123604,-2.706055046729615,0.33884690652492694,0.2033288153163584
8.330490203,-2.7371634961213522,0.9473915595446838,2.944169111474924,-2.0312610997943716,0.3814830765251846,0.22227169803401364
8.530581363,-3.046680962190339,0.3667437446457362,3.0633641328215124,-1.6002021935199218,0.4166218713093307,0.228888679684763
8.730501289,-3.0394380220529835,-0.19817678679561476,3.0133718316288007,-1.3815888304397226,0.4509347950803612,0.22434349939698825
8.93051674,-2.6513565780985,-0.5995486511972042,3.0658956478095187,-0.703422237970429,0.43973168227719944,0.21376018718799536
9.130488811,-2.3161898304092037,-1.247667285071634,3.041985553023816,-0.47386139654620507,0.39604465139831785,0.222320474954214
9.330490154,-1.7431410328749473,-1.4256281118774987,3.218519910202613,-0.02304603152404557,0.38569752585564576,0.2276299335499833
9.530488263,-1.0660972202583665,-1.0458909556903713,3.0597811732082563,0.42597110338878985,0.35979098067352994,0.21877395400324803
9.730487999,-0.45421228748079445,-0.9137313414173115,3.074877421104923,0.8083693345996465,0.4127241013032174,0.20689572932597797
9.930491172,-0.3586281542275042,-0.33707731592872864,3.333363608691853,1.4333917998561718,0.5719547353690801,0.024122776497491814
10.130502946,-0.04945271098069594,0.3297756484500418,3.6181785565707236,0.9772067105841793,0.4305349004577005,-0.11218598783298189
10.330585653,0.5021297241034101,0.9197763682837699,3.4765541789346774,0.9732127646879801,0.28176626432445795,-0.1909327343206091
10.530566594,1.0767383409659073,1.3472290582538164,3.2335665651541534,0.3117576802798727,0.2769792967264304,-0.21472767263916845
10.730486138,1.6045870493150902,1.4001865918238583,3.1089279530903458,-0.09723739058097314,0.3318915605089152,-0.2362289210198925
10.930531807,2.1575338651299654,1.207605643461731,3.0967280974505362,-0.45746266187117,0.42416914177203674,-0.25438539365797386
11.130581725,2.715584220619522,0.7641160011029916,3.35116165704524,-0.8961243122891139,0.43898007719345983,-0.2514067532576944
11.330488155,2.9567848337695586,0.24527432591452797,3.111376512287057,-1.4705041045981582,0.4312902812354981,-0.24501441114685388
11.530496763,2.857945417538466,-0.24688616899536453,3.211964680512777,-1.817334615171035,0.41017198361262036,-0.24242486727138748
11.730487972,2.777469590886468,-0.9540985731149167,3.007520624391662,-2.0774410339807323,0.3576264203497977,-0.2473336892844601
11.930496886,2.0588228838242606,-1.2630115908092328,3.10735388005999,-2.742632108119157,0.36216446701885446,-0.2613891269756836
12.130542207,1.5925151227286203,-1.3815160963170425,2.9457262290809156,3.2311596841991204,0.4047496789503116,-0.26582771992519955
12.330487076,0.985938565031071,-1.1016159137245305,2.9966493987232345,2.513391696611781,0.47005287547659924,-0.2684707171165861
12.530497998,0.6042125161040383,-0.8752845458985252,3.264855218802815,1.9065300549422128,0.5478617720172454,-0.18568744853605176
12.730499577,0.08299955091583466,-0.03801434775638485,3.718383437295787,1.9617033826145518,0.5148071638340479,0.021719483707564265
12.930489404,-0.18546349076646534,0.5454700580612021,3.6097092500544132,2.202022759009377,0.34449016641048413,0.11523153381532783
13.130486599,-0.6980727658776266,1.1621597330946476,3.5279167056005587,2.369806877559352,0.2632539962054123,0.17326751588863618
13.330488569,-1.3172725512987842,1.4363559992756174,3.338315806657867,3.0900854973757426,0.24151724937104666,0.18387571782675943
13.530490772,-1.8848038535799065,1.3679243880198493,2.94883439507688,-2.811116960619785,0.3033849685486847,0.19253631188181072
13.730584847,-2.4675927489923355,1.1351539848200562,3.136162034003347,-2.4243015100332275,0.33636453173198777,0.2717701115831527
13.93048875,-2.718762535572649,0.760664810679366,2.9975317342786307,-1.8898841934123523,0.43177981967296647,0.19827920931693246
14.130486666,-2.990289903178172,-0.089602320355881,2.9051914709867552,-1.5217382147694163,0.44694804167710483,0.21957934931613585
14.330487355,-2.591970536027986,-0.6273768247395105,3.099720744088849,-1.0303994448384708,0.42647374705959246,0.21607380645341834
14.530488862,-2.3542869683205074,-1.0605586909794158,3.254676179301472,-0.6196839335408191,0.4090123340132869,0.21077139090973507
14.730568927,-2.0148070241621765,-1.4228195729853406,3.1007106950081202,-0.10545600775016654,0.4048567767963182,0.20826934721700047
14.930488564000001,-1.0924158831259856,-1.3051450225225951,2.8935603236519323,0.33510716964877807,0.36974572801648103,0.20780556176147344
15.130488897,-0.7608457970608585,-1.2151122628545588,2.9917924239114875,0.539935597595456,0.38433973490268836,0.2114124481626936
15.330487983,-0.3112113169807548,-0.669878032557951,3.1387227746310855,1.3274821532343528,0.5198740775904277,0.12413470108120823
15.530488049,-0.05845201102436313,-0.21810192054794036,3.474240503819875,1.1506677729905601,0.5103571858261607,-0.056416170368348464
15.730494213,0.2204044427766042,0.6742295920873475,3.4886751029085876,1.2066094590509036,0.3324925129139708,-0.16405546295009873
15.930490574,0.7239952477597767,1.1641604916348745,3.384269279869534,0.635713758956581,0.2733836033806779,-0.20203496908041405
16.130501313,1.3205142790925397,1.4367276038916073,3.2720202730005132,0.01191370638016584,0.2906934956041673,-0.21732760832066852
16.330493267,2.0734421498848565,1.3022265198830918,3.123709930623219,-0.2531342119318576,0.3986523179306801,-0.23412430604016005
16.530489016,2.573938788193366,1.060462817026103,3.1426179082376797,-0.7735838012548344,0.44078153925215324,-0.23816708611012014
16.73059109,2.796790448411468,0.3386569483137798,3.331118673678937,-1.2007431067893448,0.42685226802207465,-0.23304951270305002
16.930486835,2.783054547917862,-0.13908140311991915,3.2030688738400803,-1.8640440474508575,0.43112736249017475,-0.22896091906304641
17.130492608,2.8329220540069553,-0.7610472040463632,3.020455581111601,-2.0608238417510627,0.374323709583221,-0.23101810837522493
17.330498738,2.3259313231164205,-1.3212284544662727,3.2334079243994793,-2.5697573270969545,0.3575480315080923,-0.23344181054720214
17.530485053,1.7006198432287292,-1.3667967559899799,2.9927064503523124,-2.971846868068927,0.40287123524776497,-0.24388556700060146
17.73049154,1.172304057676449,-1.287029709662225,2.99382449184476,2.7794857295067126,0.446832829671853,-0.25321574932531665
17.930589206,0.681536843897627,-0.9349971354257288,2.924674897402651,2.306156972958537,0.5063947273768405,-0.23149911120966105
18.130488176,0.46587228684214305,-0.28928871065780437,3.3042210976784636,1.8954146340939895,0.554998329639931,-0.07014298290024519
18.33049764,0.07030990554840853,0.22374976636881608,3.763073786853804,2.0855238525711086,0.4096298332573896,0.07697245030086067
18.530490977,-0.37013869384735504,0.9024821550715586,3.5291037768569087,2.292240434569879,0.2789633892177523,0.15457049125444194
18.730486669,-0.7165815250401554,1.2532728877133483,3.418925556548445,2.6113597129367228,0.2754515197876448,0.17929403459465523
18.930487272,-1.4912875562381784,1.3398111331196345,3.227493755601245,-3.3063255460766885,0.290361821330139,0.18180370012672334
19.130488555,-2.083441678552698,1.2741863586490312,3.333087445940013,-2.63160966358528,0.33274184763595444,0.20380577592896904
19.330502191,-2.5058618033385027,0.9962186787526524,3.2263017812285177,-2.2050174372784306,0.38974659734023703,0.2213586438153415
19.530485115,-2.8306666521201818,0.47584712888480074,3.1646919155005677,-1.9806484308238421,0.4228970704282451,0.2236029958593587
19.730583836,-2.9216886382605343,0.0388255889680324,3.2186454873561443,-1.4515084373201095,0.46014138816938766,0.20800969620857743
19.930603699,-2.69218271442128,-0.75860578605617,3.2964704505327957,-1.0292263328681908,0.4448240302780106,0.21026044354705062
20.13049049,-2.2071710021932094,-1.1291402285973848,3.0612852485864104,-0.32625777520710597,0.39418632200402864,0.2128785287114461
20.330490144,-1.6728678734157472,-1.3822259941276762,3.1514977878800625,0.0031506489857589075,0.35023190761154416,0.22130423913658678
20.530588793,-0.9745532021860357,-1.1241414839805968,2.9967776006928286,0.5718709049117644,0.3613326938238928,0.22477561649112512
20.730504224,-0.6212195694410407,-0.9419577985689265,2.9562740217434618,0.9218302524427752,0.4345122356575366,0.2045082645602892
20.930604269,-0.145198206887227,-0.2614531587267814,3.3309634124749197,1.3308028067441424,0.5531613514409922,0.0298642005733269
21.130486484,0.1914038883355454,0.0033784776806772276,3.5027590019811754,1.3143647225458934,0.4228681289654001,-0.1037778414783724
21.330491964,0.3373862167257732,0.8088057263737318,3.5036298161758217,0.8103237157829116,0.2807766841337575,-0.18654342668421411
21.53048506,1.0130783975244297,1.1130429380727507,3.0566697971993193,0.24210330582937872,0.26624230713379055,-0.20392997445586644
21.730487509,1.619493058051071,1.2765878447757684,3.187002628795583,0.08936473756687353,0.3344413920787688,-0.22423090797870482
21.930490771,2.1734624182772735,1.3141601627777908,3.065310466340854,-0.6104757947431847,0.40265944715259255,-0.23758108094104693
22.130490319,2.5035547073376776,0.8303737691998851,3.0388496785884116,-0.9695117168998594,0.45808277096786804,-0.2386939044802336
22.330490548,2.904200146130157,0.4225892916049461,3.19782094033041,-1.4320845472925203,0.42092967729656705,-0.2448697453220622
22.530500834,2.8082258429144944,-0.3009142006688394,3.2005721035178314,-1.911005449881422,0.40196700670421115,-0.2318030523328654
22.730503943,2.561495066294386,-1.005733308031846,2.9997520658603163,-2.4255410114370726,0.37779489499946717,-0.2339132160047813
