time (sec),x position (m),y position (m),forward velocity (m/s),"heading angle (rad), from x-axis, positive is CCW",throttle (unitless; -1 to 1),steering angle (unitless; -1 to 1)
0.12682548800000001,0.08877532529627083,-0.9647913554597958,-0.09823915454172556,2.203220220820184,0.75,-0.22300269832785116
0.32680488300000005,-3.4683876409397074e-6,-0.9202737875524543,0.08861297503972658,2.1752627004035348,0.75,-0.15028305280764506
0.526747336,-0.10636491638350482,-0.8625288928222079,1.7073267422839151,2.2527461068104713,0.75,-0.11877402652001447
0.726743149,-0.300364751280726,-0.4310490647418052,3.262322522869107,2.0345580101784764,0.710895229781284,0.06708502520137274
0.926846833,-0.6009975010875496,0.3997322359012264,3.4761316006285603,2.3449053141504543,0.34462809760513546,0.15020800687034175
1.126742226,-1.3453468426946265,0.37610012838154466,3.4317388822893604,2.6952517117444357,0.2551262912498999,0.17388150683377274
1.326754244,-2.032949457274436,0.9010305211035285,3.090636736540371,-3.0043929500017885,0.2463479820297964,0.17036752507758765
1.5267454169999999,-2.430339751075613,0.42003245208038265,2.7988265906804286,-2.7403748158173027,0.05096918358097964,0.25384411237704974
1.72673781,-2.7567248682947354,0.2378647751943406,2.512666557078127,-2.1493657828335526,0.4013262534090804,0.17618030057915712
1.926743347,-2.9199404178184842,-0.09555628386940224,2.7463377364073938,-1.636220033788164,0.34438849987872505,0.20985170013775736
2.126755244,-3.0103064293186734,-0.9231545429593335,2.9002169806851392,-1.1425337894865504,0.35651579161664126,0.23625348999967424
2.326746038,-2.453729616049864,-1.4308000156021339,2.8346137479719924,-0.766957515823473,0.42133316307220176,0.2315591886348931
2.526846665,-1.9882513929838308,-1.7654833739234375,3.015469298330694,-0.13309610944905662,0.4692832629699893,0.22243178568628402
2.72673896,-1.3308244400218587,-1.668877339003767,3.009060868547311,0.20633769190702048,0.4802431013391407,0.205822141523072
2.9268137970000003,-1.0288444465716051,-1.303021733351505,3.1178710364738746,0.6825789407638473,0.40899904033368567,0.19461420074782754
3.126878705,-0.4703968298510169,-0.8656051137077935,3.1558791310659426,1.111209815693411,0.38253128963088057,0.16734888986190766
3.3268230450000003,-0.3497828055842823,-0.3023162110349336,3.334993233838992,1.3236533036336915,0.4485425963824759,-0.04349181225465555
3.526826331,0.036702881024998614,0.3997744509984501,3.614663406780857,0.9557853025982435,0.36128632300677,-0.1618060017523699
3.726739227,0.48835695570576815,1.028884560538199,3.4378893383211935,0.69211671096911,0.35609350194193856,-0.18436973680136517
3.9267804120000003,1.0662449897361286,1.1250008318106204,3.476936467473544,0.24596542037794825,0.36975920655653033,-0.17539981146318273
4.126751197,1.6832385898295534,1.2100922809131704,3.301405142992409,-0.43401841213156467,0.34781058883880567,-0.18772178300402664
4.326755852,2.378451630001815,0.946488665066464,3.299578481282673,-0.7075621476035869,0.34980582861389525,-0.18517497303807193
4.526894928,2.745113954071464,0.6335528706631822,3.081508365908918,-0.9866549288632482,0.3283299360485904,-0.1849326316405874
4.726738587,2.905238255809296,0.02858942588624712,3.0957931612984275,-1.5236915027912772,0.3381215341383467,-0.2105978216666028
4.9267450440000005,2.842807455891129,-0.6657440198964331,3.047531185494853,-1.9077775217184025,0.37367721144005045,-0.20650127674585114
5.126752815,2.5836394013795823,-0.9855403293669294,3.026605523821419,-2.339889339006861,0.3938146670225416,-0.20504044436436925
5.326853084,1.8413820635951506,-1.4394188016744305,2.995364578155788,-2.9470629626515215,0.40374118565650907,-0.20882132722997826
5.526774022,1.1435706808817976,-1.6051354018787216,3.1436553614679967,2.86961269502644,0.40177659384876624,-0.20286900590731824
5.726737213,0.5900542696327472,-1.2144432412701893,3.0987777337881264,2.567508931126853,0.35176451630319366,-0.19741311681682547
5.926806507,0.2751793729054517,-0.7122631315690925,3.3258883993334436,1.841063608148111,0.4117845177828831,-0.14536660362523568
6.126761996,0.09338903806870427,0.15531458646194832,3.381131554742402,1.9312330701941618,0.42545391952055484,0.043610171236098276
6.326750762,-0.19286409383790598,0.4810434411690053,3.589091316506367,2.0462751245260082,0.28935092006192736,0.13786652820629822
6.526820071,-0.8451579081633962,0.8433544649051676,3.3908159343250084,2.724222010179015,0.24371348002402315,0.1673698603765075
6.72674078,-1.4766161992097595,1.1455787878884576,3.3464388240119565,3.071666626807113,0.28527869790049304,0.1616217414702149
6.926785077,-1.9971456358104405,1.1506355021934893,2.964295367817571,-2.8891773053203953,0.3179014519399313,0.1610010533390745
7.12675806,-2.381304259692621,0.7892388222481895,2.9716881375705744,-2.4564384295738826,0.32098817988674166,0.1740801981394219
7.326755043,-2.619390773543622,0.2680681110046656,3.0671359484746192,-1.870420465637039,0.30274586320978153,0.1932589691114294
7.526762834,-3.159425064737308,-0.2470556245499701,2.8973166375125126,-1.574701779052552,0.3145397860271093,0.2089314297118992
7.726734121,-2.81990973740342,-0.8593779935951023,2.889249562362535,-1.0345226963684628,0.38521196490006826,0.22232685712855096
7.926764785,-2.30625089002814,-1.131032269830516,3.0097192053492945,-0.5504008470216223,0.44928263332792073,0.2178861877081366
8.126755166,-1.7955818618180148,-1.3918857651497811,3.2202588461554984,0.09280121560091435,0.4509375163884492,0.21338720805317526
8.326763235,-1.0567294156694313,-1.3496825407381572,3.2145392120490612,0.15762454627457329,0.42997867939321566,0.19780648060488562
8.526752765,-0.6637109863837392,-0.8707627672323188,3.1747742725748918,0.8120003426606379,0.38770160884735066,0.17802594383878026
8.726738693,-0.20884679765340888,-0.35795557982887627,3.3364025109821656,1.2479105942175774,0.4012428116072374,0.08738488340932354
8.926752734,-0.1999626543351173,0.24496831570153094,3.3537094065496253,1.177857418089768,0.4132397810907482,-0.1253086632638644
9.126742676,0.1395326616389612,0.9350894477083528,3.390355684877491,0.9022673293847762,0.3609099483637373,-0.1851810376514673
9.326763682,0.7287943273877207,1.3138457702665658,3.2486536057021733,0.42051315728714,0.3685224625844373,-0.1896903247322079
9.526755213,1.3376269626096517,1.6195289034180118,3.1995281765487587,-0.07031552501032783,0.38989926240932493,-0.19068104686918178
9.726742928,1.8669432801852288,1.2954148245113501,3.4017292974095596,-0.5921017521012972,0.381199545322909,-0.18387407465456823
9.926748083,2.5112745356996165,0.7946866956192113,3.2608829374103725,-0.8030446641335932,0.3513158635011834,-0.19312367809593076
10.126762081,2.842991503558927,0.5566566268169232,3.428343788426124,-1.2922866562951403,0.3400272474104346,-0.2069373180070785
10.326745272,2.97051835208585,0.0449185630902971,3.116914028193419,-1.7701318530401502,0.36680727616054465,-0.20384047360099336
10.52674733,2.7805173458181485,-0.749890613414899,3.2272356253125016,-2.137998162950356,0.37612741279803114,-0.21185653802166812
10.726748537,2.154979874440342,-1.3546733988280306,3.1419045498883853,-2.8447519672417343,0.402651895141836,-0.2103132842895871
10.926754834,1.4559923437848485,-1.1970802795969435,3.0873965753170114,-3.1528489982952896,0.3958544701776091,-0.20621278250165861
11.126744763,1.1390778941481,-1.2627105594118089,3.1738808942679317,2.7990051960447833,0.3432614229206574,-0.20733502231315373
11.326746271,0.46596672901510555,-0.8932819596981793,2.9941171941791302,2.3642636641011396,0.34925065950571843,-0.20700529890671138
11.526752629,0.11034474260926694,-0.5167718202032321,3.070123655324803,1.9047786852079531,0.43808350752875086,-0.060467546263677
11.72673992,-0.18695200972449763,0.3690109385946673,3.2150925181425314,2.0962612854653884,0.35909825336419043,0.09863372333667834
11.926750471,-0.5226790855485568,0.8111228442599193,3.5155491175643263,2.403634621057949,0.2622941493813387,0.16788369847457174
12.126744401,-1.124109922728193,1.2214046354914452,3.2419072717038677,2.785902027814653,0.24881648399131778,0.17884068395030384
12.326758486,-1.9080512167793593,1.1137437683163491,3.2181285627843055,-2.944274323976697,0.3320123238016097,0.16764822854568442
12.526763481,-2.3206961624277302,1.1451301135029388,3.1291428680380933,-2.547252126330079,0.32401786033316543,0.1834333018043506
12.726805544,-2.6588702988996635,0.5009556271686468,2.964597890217486,-2.1125101686667898,0.3153726064447337,0.18748962539396202
12.926757897,-3.0353511982449364,0.08745754461262975,2.9309745451389677,-1.6659798759139477,0.3281165914608744,0.20348062810672027
13.126747541,-2.8655483914556323,-0.5768789839521643,2.899497101178842,-1.1447373433334482,0.3529901291163108,0.20423098848283885
13.326754956,-2.408228249159483,-0.9396858155244441,2.9623129542212094,-0.8458495900900771,0.4184457027277366,0.22404706945595884
13.526820078,-2.226602043701451,-1.1177322684168491,2.8908864161437586,-0.28130709265695014,0.4540122466972498,0.22038889346367743
13.726739087,-1.530759495143997,-1.3824521057417287,3.0807567272713614,0.03576003370378866,0.4347085867682316,0.20449891655504926
13.926758996,-0.8865834714056756,-1.127783043095339,3.073073176899704,0.5448239194214044,0.4136342352104419,0.18707769483772488
14.126755516,-0.620053382802826,-0.7097971524871518,3.2260096795189397,1.119655319823814,0.3877998998870066,0.16249621070092315
14.326756086,-0.07404969361811164,-0.1300865298270216,3.3043894685169843,1.282088110390637,0.42727324898248553,-0.03428080536802563
14.52676043,-0.0029236196204113774,0.6638352134416625,3.5721074964298047,1.0185069773366493,0.3734690307096969,-0.15741118214827296
14.726793105,0.5138836271242374,0.9981066682425503,3.3675067367624774,0.6530507563035157,0.3455085910277057,-0.18499846846233298
14.92674386,1.0505151539974693,1.3972066165034722,3.4460534351252003,0.04262327169087443,0.3780710343707037,-0.19466724969722213
15.126759098,1.6276944654811405,1.5928778182200787,3.212656231125716,-0.2057072282474728,0.3759904301424503,-0.1951702889794648
15.326760365,2.5577016628932907,1.3076919115569712,3.2068973175930586,-0.5901158054747797,0.3587364554035066,-0.18653051431041892
15.526761609,2.7449876692457407,0.6048843737145193,3.463081431080832,-1.0060637206084992,0.35076952437215214,-0.20369509763053714
15.726733804,3.049340217669297,0.19503535275156564,3.2227477211397333,-1.3292390897386162,0.3484029808581123,-0.2119243125698773
15.926755026,2.759080615535476,-0.47643179535573543,3.211125842669637,-1.9763213605797032,0.3727286263909647,-0.21479094692433096
16.126754819,2.637587825461705,-0.8580281085206375,3.3244487588738374,-2.5215612613631224,0.40408099398751535,-0.2161539973118897
16.326748941,1.9714235060608816,-1.1950051309448777,3.0731606219401213,-2.9327645966743217,0.40133773722500277,-0.21326319197242985
16.526756979,1.3801025964319833,-1.347548019283198,3.265931856841158,2.9859010891101763,0.37568097758681723,-0.20920167172659251
16.726733261,0.6695111567009178,-1.0725396238750187,3.1388091605067343,2.510801673793997,0.36540252979687154,-0.2106331075150974
16.926747389,0.5395025208466047,-0.5123721792508882,3.368369365076566,2.0581610873078104,0.3902930695854008,-0.16079081102513168
17.126798347,0.06805123232840672,-0.2770654029427672,3.1635843428977757,1.9241874516350668,0.4374593401010192,0.042236233883740065
17.326744277,-0.334016061105875,0.46632321023415757,3.50110787903438,2.3263540904450104,0.32725846311844214,0.1445533969965246
17.526748873,-0.7573455274599229,0.9513946103210231,3.330240203049316,2.6843874992086296,0.249708310717559,0.16856755626412576
17.726736616,-1.3595122796860082,1.2290476123639091,3.178202741615741,3.048657323439982,0.3158257306349143,0.16242024491910972
17.926758091,-1.9136281320468262,1.1134492014330655,2.963452566700061,-2.621785653049331,0.3420297055862858,0.15575248654534798
18.126743091,-2.533417734278101,0.9359008216441531,3.1471018017722643,-2.327534715287956,0.31208419263148063,0.17216714543822445
18.326795963,-2.745190354225171,0.37849868222230715,2.8807229736165647,-1.9792055218665892,0.3060727534495703,0.18856916630310866
18.526750353,-2.9361244689250574,-0.39330600172950053,2.891675940719778,-1.3548348335488174,0.32325353620181874,0.20176063389396964
18.726736574,-2.5062027538858627,-0.7767307062773585,2.7949192247716566,-1.0598829286283333,0.3703839854831137,0.21563121894180598
18.926747335,-2.1881128423680356,-1.171344646433966,3.0940268029771842,-0.46507941825871835,0.4287270918973907,0.2212162883409809
19.126756545,-1.8146061733477221,-1.4288666357071824,3.0367133306739746,-0.0021172429178431627,0.4493010670222724,0.2108644835100235
19.326752932,-1.0540786119391738,-1.192783327213362,3.047796121250113,0.3763167145936403,0.4165526362416963,0.1943511185844393
19.526763593,-0.7724535654269677,-0.8076061342378785,3.247517838896591,0.7181128611207632,0.384642116741576,0.187234452955598
19.726734525,-0.15424320450861767,-0.40267691178503584,3.2582456055893347,1.5704849435117956,0.4013616757358184,0.07957588927531381
19.926741074,-0.14717369029893246,0.127050789820951,3.4170484700554256,1.2446018494547002,0.39717239651594455,-0.1160707236685322
20.126796353,0.31244305165475217,0.805674538173897,3.4471919142973766,0.8529558600855962,0.3485598123142334,-0.1863362046275703
20.326748714,0.8864010552980148,1.2893252129466717,3.2729164080099524,0.41133686158484245,0.3639340407704417,-0.19074609732560716
20.526807424,1.6004172339022988,1.4465008720251304,3.4002264306803482,0.1947337014934348,0.38810960258572497,-0.18895658031121657
20.726752636,1.9547673595892527,1.2654715896874418,3.0493447227467447,-0.32584176153827327,0.4000612519479238,-0.1913224217057928
20.926743903,2.558339332570578,1.0238138017001301,3.205608664580441,-0.8129478929906094,0.3456940320205092,-0.1965425811595515
21.126739932,2.769729274383067,0.544986273537733,3.1521329193541097,-1.403304471204267,0.3459288444178419,-0.2096477611207785
21.32677862,3.067020612379323,-0.10607011704250686,3.1243098939542135,-1.7278300254858627,0.37771087146656057,-0.19532279870543345
21.52687227,2.6438344259403204,-0.8679951381007115,3.177025586183753,-2.335290751523323,0.38908490449642064,-0.21641914583317434
21.726738066,2.266995877825337,-1.1573390047190502,3.099548317619724,-2.5462780477845777,0.40581926130816937,-0.20381265411751184
21.926731563,1.722476176999423,-1.2927570973196785,3.0888880836130403,-3.2951096923883374,0.3967837642739025,-0.20930595345930467
22.126756416,0.9396480964512977,-1.2833454400824877,2.9878688226095704,2.8179437199608226,0.35639005527600076,-0.20506930675690288
22.326745313,0.6144060067961902,-0.7722132690347395,3.231234363155527,2.448230814911415,0.33128889868480377,-0.20753835234231352
22.52674074,0.2116992736132632,-0.3560070027194521,3.239441183929514,1.9982259514257714,0.4304212190635187,-0.07177791459409993
22.726736405,-0.07569773401248592,0.28901210168601077,3.5020443016338154,2.002570891837699,0.35216520444820126,0.09711356332395894
