time (sec),x position (m),y position (m),forward velocity (m/s),"heading angle (rad), from x-axis, positive is CCW",throttle (unitless; -1 to 1),steering angle (unitless; -1 to 1)
1.129372217,-2.516367755206039,-0.026129272741185594,3.3838802914797155,-0.7732462926184366,0.4783372270402821,0.21427974366099165
1.32936386,-2.089391848001248,-0.38188124349718094,3.420172517560734,-0.26973493582993036,0.4184427356730301,0.21131870428567104
1.529566515,-1.5473583147071273,-0.8723734686420792,3.1939995656559974,-0.041093111671674606,0.41002754736363894,0.20123578408746287
1.729384306,-1.0082659044088103,-0.6118717011017016,3.194560525752347,0.47693488425479325,0.37124824743363505,0.20226166593836992
1.929369832,-0.4335081647870322,-0.1743883331925079,3.112348163123931,0.861471663644877,0.3863146868579786,0.16101570120569508
2.129418697,-0.012623696792675623,0.45296733638602443,3.2991091643319614,1.2145265921697257,0.49138890007117775,-0.025181828360840854
2.329356346,0.06379896700023402,1.0252590565661397,3.543785566040622,0.9327667651809997,0.3999972509025386,-0.14731842430644787
2.529410109,0.7011259302331164,1.32656334811786,3.6978705109586483,0.6922149665857815,0.35079463643924075,-0.18803072743275082
2.729436853,1.3421434989754222,1.787446880691081,3.3329939673411526,0.1785776332510703,0.38748310286270743,-0.19421791675028732
2.929445603,1.7110281411832748,1.8850374699774466,3.371641521694657,-0.09823156427568146,0.40025823170034985,-0.2035954267349726
3.12935317,2.708702804255218,1.639446869034662,3.4171748082562097,-0.724654441215859,0.44716875503246467,-0.2157949173275723
3.329437015,2.992963462954576,1.217374376059099,3.37520827518628,-1.2335385697469452,0.4491843376199001,-0.20047749668068776
3.529349093,3.3444161785926982,0.18558301630206647,3.573929731849285,-1.6688796081434876,0.45733614353137664,-0.2126386743830534
3.7295131,3.172461167813783,-0.24040745293482338,3.2573494836699606,-2.2517750276098543,0.45954033093994373,-0.21163040129895228
3.929350754,2.6945717952366355,-0.6614867204585644,3.4274838006305424,-2.3254617188273023,0.42351130401990594,-0.2063762974663137
4.129361459,2.2192986589006654,-1.1321843687640736,3.2720437302889627,-2.8641836163608025,0.4010057002895258,-0.19945056986493026
4.329382086,1.486572398315851,-1.3591513475882335,3.26990577372707,-3.292517471309686,0.36603930927049144,-0.20966431170915686
4.529423738,0.737737960632617,-1.1871550832921554,3.3120567489614694,-3.6812409417830603,0.32654172908377505,-0.21087074443560277
4.729441642,0.26871455015361434,-0.7390937677944682,3.3594518551537482,-4.325301871878975,0.44050547559562336,-0.14785029785818346
4.929439201,0.06326578337345481,0.091674045963932,3.51483270562205,-4.0152186194776025,0.509641555411652,0.008996031547126917
5.129350182,-0.37190476298563,0.43375122145337214,3.8352435023364615,-4.071324943263186,0.31784404390832033,0.093668758301508
5.329357003,-0.8534898200922206,1.0547912402100503,3.51988206660663,-3.8961768255805063,0.2112835997094682,0.1595693927062675
5.529357753,-1.5256362381400275,1.4647809622330294,3.4468242689361657,-3.215564407677074,0.24146900997883108,0.15734979657769338
5.729357693,-2.09384820044129,1.2082355500676516,3.0623108055108084,-2.9650992770932434,0.3170938560046826,0.16908996902055148
5.9293723830000005,-2.639991296123838,0.9795310935837763,3.131938038302607,-2.213178239942836,0.3555883076751166,0.1963676682081105
6.12943161,-3.1229860900115938,0.44676089855081913,3.470903821033379,-1.9437249538350767,0.4113838179077478,0.19769910986869685
6.329363465,-3.1398582496513043,-0.11442156523845957,3.123030302631245,-1.312493578749644,0.42501961255906967,0.19940748725007904
6.529353794,-2.8769844722800064,-0.8023707654726251,3.1574713532062004,-1.0932813512869741,0.43195851590581463,0.20363408914447564
6.729357265,-2.651508960315435,-1.2383246271934456,3.268628483273647,-0.5529307060870999,0.4944332631201253,0.21079037184884303
6.929404708,-1.8305238056630284,-1.4519750582042306,3.1746544537583734,-0.05315733319614341,0.4596823464301068,0.20596212322702898
7.12940652,-1.2176115898641473,-1.3337141155423518,3.4262942882784664,0.3689435290557287,0.4277202054969475,0.1993925041282677
7.329367447,-0.5953148659115175,-1.0929742708370267,3.410565569744555,0.7894563056060006,0.4010452922909509,0.18586630898612505
7.529358704,-0.3507557721490252,-0.4063204052651099,3.503783694238117,1.239491104036763,0.47384062458063914,0.08623589743007413
7.729373737,-0.17083833359496947,0.12062054001390723,3.6207475358024976,1.220083020309974,0.4957397107947215,-0.10125964797510674
7.929380804,0.48440804251523795,0.8009413860071323,3.5775851669389698,0.8384134225118935,0.3663000313449383,-0.16693673289788774
8.129368962,0.9209987043615431,1.277402400415198,3.5907537663753946,0.5052984284348483,0.34894495184963753,-0.18373239352637383
8.32936647,1.5853670487859466,1.5583126198827084,3.500376737008595,0.03276755169607186,0.36042098412469337,-0.1858406922688227
8.529364339,2.247796132818899,1.4703566551372225,3.353986441502815,-0.3484815374264692,0.37603153683980944,-0.20571780648867022
8.72936753,2.595411873135634,1.0380774914470354,3.408358483293759,-0.9978514653177687,0.41428386207156026,-0.2102709080448547
8.929358683,3.020246824460643,0.4747636656750923,3.3536926463408796,-1.3025336404262033,0.4294624422231828,-0.22202521532798447
9.129360702,3.2028529177360645,-0.05939788128233203,3.385032759437078,-1.6802139611242897,0.44594274292763403,-0.21717904886274633
9.329372532,2.9949135697404885,-0.9068348541747318,3.3011602774352173,-2.2676209312575115,0.47348699675374056,-0.21768970613685149
9.529405013,2.409688014435103,-1.47002555949066,3.247769421399535,-2.462457547916856,0.4255687590144366,-0.2108381671051274
9.729360848,1.7457694749529402,-1.5985067257400514,3.3236240957714407,-3.1847221151314598,0.39000841126324237,-0.20677898552891474
9.929363787,1.0321106250549252,-1.48538736258471,3.2668164516856937,-3.400014210926088,0.3736790837679443,-0.20934734294091187
10.129365735,0.6584438154922478,-1.0682620123261064,3.1562049033307416,-4.218548181586747,0.37803291055987415,-0.20875806847147693
10.329416182,0.14536992012850797,-0.6689040448415684,3.3510387347396637,-4.2523656297363415,0.5314855054652271,-0.05880380658476364
10.529353318,-0.16104129482999927,0.22586125460642076,3.7322814440264276,-3.9741223433839625,0.39675866598343246,0.06227540375917109
10.729375147,-0.689374576983313,0.5610851048194716,3.792039394284455,-3.873991520521063,0.24053183776116435,0.13326144661792133
10.929367152,-1.203946979690825,1.185812440459282,3.505717713599107,-3.5632962303896005,0.2086616258624583,0.1552395877299526
11.129362673,-1.7985365412836483,1.3821993438205227,3.259071286057007,-3.152073663560656,0.2652305484945009,0.15684259387109742
11.329352185,-2.546425136778455,0.9476579444629064,3.2369372397411067,-2.541114417631845,0.3386390816463015,0.1726560640402694
11.529356405,-2.9340993726688205,0.7407747632289097,2.9239271736415295,-2.183017788937793,0.3981104669985439,0.1946205716986139
11.72935769,-3.2287777761295766,0.04188379985852212,3.0701435865964593,-1.5223887455476504,0.39221866747955186,0.192488792025417
11.929361364,-2.9356369733171097,-0.5423940347030229,2.9778267404596326,-1.061028219015772,0.40150958924465563,0.20046033230089863
12.129396791,-2.822480344443729,-1.077979851275778,3.150918289141489,-0.6573788195985305,0.4635738331795652,0.20625095892925221
12.329358326,-2.1986270955074803,-1.377697917571931,3.4605716748102653,-0.22021781314439126,0.47386760473198664,0.2129211928941893
12.529361201,-1.4804688197636937,-1.5354953326193552,3.2335624120726414,-0.03246612545319133,0.4679293915964267,0.2021185439760069
12.729384579,-0.9157424767998579,-1.2921911133097608,3.199017372724551,0.5299781405979245,0.42258915310034295,0.18666804124888925
12.929364139,-0.386299146415732,-0.7782061873545961,3.395596112082242,0.9833797410563181,0.42713406618765987,0.15835220859838722
13.129363227,-0.1140094843183802,-0.1857942473505812,3.5248266495507132,1.2078543495647789,0.5112864762714566,-0.02608423817485348
13.329359268,0.18701730073952982,0.4511902153667117,3.7613186936253866,0.962339678347568,0.40625470439857314,-0.15551203662499524
13.529367647,0.43534872150469667,1.0716447225682533,3.484766143647656,0.6259510502989231,0.3525990026925072,-0.17766630675673062
13.729359119,1.1202040108611575,1.3772651312321411,3.4192046659447963,0.353820453690425,0.34459494094226145,-0.20259097994307765
13.929354789,1.9196160514489349,1.561988391280318,3.487992803154699,-0.2636756344220216,0.3711564146389434,-0.19948902224862647
14.129359725,2.4517378929296267,1.2723213045418322,3.4086244936853114,-0.4714574005684973,0.4179914442802371,-0.21077060054560107
14.329351525,2.8555478268754593,0.9193248173887544,3.4337589665200166,-0.9974730741146403,0.44298422595824855,-0.21522525257649436
14.529372396,3.043834234985997,0.3746737174477772,3.3339035527846885,-1.6000837734394309,0.4327957543495524,-0.2235722111789435
14.729367183,2.9902879402482747,-0.5266706418995218,3.554511921876895,-2.0797035399894694,0.4505865248310728,-0.20971675936173995
14.929366049,2.528088942229025,-1.0935171938528208,3.4293847724275577,-2.36189068947656,0.4316900800683596,-0.20172412834101278
15.129358264,2.0447095185035797,-1.3038301960501277,3.225418411033391,-2.913198388378398,0.41747585214329475,-0.21569929559472234
15.329366571,1.4902434338664063,-1.410371762055086,3.3009791611064845,-3.2088913318777585,0.378214511754391,-0.20980832922200165
15.529423132,0.7228963773561168,-1.3440369891841457,3.2360313967581784,-3.8552619403611232,0.37092557958518035,-0.20783839190317707
15.729365933,0.36052488424551554,-0.8481940121019425,3.217713459694583,-4.072232201719784,0.44425040732792065,-0.17676538439199457
15.929414701,0.08097717435288353,-0.1998030230428984,3.5458645314056976,-4.234501363786566,0.4809499679678741,0.01902232353027333
16.129363518,-0.33339876930043283,0.45145290113751274,3.81925285194932,-3.998403733821145,0.31694545370701815,0.10560326457669028
16.329376685,-0.8741878492166688,0.8557460844631214,3.6368208319187993,-3.9045542520764562,0.2198371501218202,0.15979536011189938
16.529372319,-1.3844957996251992,1.1705288134564178,3.3166559341427124,-3.207252168533506,0.2302994758693078,0.16081867185273066
16.729399538,-1.9852446963354267,1.2308834139582363,3.1464497981471604,-2.934797299640067,0.3129614149804621,0.1685475521053599
16.929361319,-2.9677737439465677,0.9717529300387923,3.1929398122679777,-2.450586385421219,0.3873677095134158,0.17536683975936368
17.129357232,-2.8993498484982076,0.3236532062012943,3.023296192092205,-1.876837380638264,0.3918223279197625,0.19406734361757824
17.329358184,-3.071989025054825,-0.31881849404500484,3.158644118327565,-1.385867919374809,0.4202878197343916,0.19581697673640497
17.529361993,-2.8635791096515923,-0.6194159138934197,3.105902074188749,-0.9366629974887559,0.45589095656028966,0.20080501637020015
17.729353585,-2.5608257861476966,-1.4158793914867696,3.166188881014209,-0.4701746685605989,0.4505586120321227,0.2062307794761871
17.929430553,-1.8712899969360517,-1.440543858072853,3.262570038458368,-0.09677242032802624,0.46581638474024095,0.2099519818365155
18.129348843,-1.1593148309078085,-1.5106190571020643,3.288627096023047,0.34841692654647677,0.44212435225254254,0.1994200383982196
18.329360503,-0.6248018111434657,-1.1335756256496161,3.2802200452442434,0.7341471826099258,0.40517954583583166,0.1920920131917185
18.529356042,-0.3241741152273922,-0.4967641853200229,3.395274456284251,1.182273410607759,0.505692550659866,0.07218861822574918
18.729360021,-0.09316174342838535,0.20693116498050135,3.705096606797861,1.1720872626306704,0.4791267459010794,-0.09770668845160906
18.929375665,0.5132831095133761,0.6739392272726958,3.8156743919363048,0.9090174609028461,0.3749084205184936,-0.16608798374793332
19.129420786,0.9350569410151166,1.4125951603673272,3.598252986346576,0.4102311481838568,0.3690734392146022,-0.17904959450322375
19.329366191,1.5731214303222743,1.5584213310181914,3.3933395591532665,0.15256152106581714,0.3566344035512214,-0.18287208261618776
19.529355083,1.9761537876862274,1.2948720509433842,3.3166665874796277,-0.3056018888808619,0.38838019657427697,-0.19728395828626824
19.729357179,2.8262167722623244,1.1044212045078328,3.208701747293074,-0.7971128359065212,0.4482670111529513,-0.20453901977641883
19.929358871,3.1355125757798916,0.26353638355762476,3.2125155218693124,-1.2441649160207087,0.41607730439967855,-0.21083921492710872
20.129350935,2.8163375069924363,-0.3425806212942264,3.4331391364993267,-1.5113725216309528,0.43894186915687267,-0.21202279645260286
20.329367752,2.838627300932173,-0.7633649685133961,3.4400458806848837,-2.2138768341957733,0.4530186256961652,-0.19670339763510808
20.529355318,2.4218394361069455,-1.4049940430610075,3.4504041664928438,-2.6437017026556204,0.428165328901438,-0.19512361669482547
20.729367472,1.8155269111039285,-1.4295804938494574,3.368048265226219,-3.1711228194958325,0.3997367087311641,-0.19823141094739236
20.929363842,1.1377499777186562,-1.4965581988407919,3.44423506929715,-3.8256107610881163,0.364811574772949,-0.21729512240317608
21.129360535,0.5728650080525737,-1.1307890835386345,3.267361507667654,-3.9097240970051206,0.3860474840981579,-0.20299429431499755
21.329368639,0.11757404911971564,-0.5863223027548269,3.3809117187234374,-4.500343153510522,0.5329554114506013,-0.054289920860016105
21.529355776,-0.31957666927885453,0.12606838691763966,3.7812616977305327,-4.159912530307414,0.39069077836104843,0.08531322631484096
21.729355898,-0.509624486180498,0.8149544709450375,3.667919384036865,-3.9570315384858907,0.24085716678374594,0.15034540873468458
21.929361996,-1.0555765622310207,1.1969379051352826,3.491984077360134,-3.5376795173184,0.2116963605463021,0.16902356400316002
22.129348223,-1.5563262925683075,1.331300180545452,3.1755389944060997,-3.161850186780508,0.2706619041812933,0.17392266831874445
22.329361648,-2.3032296323182617,1.317523058101378,2.875357178920825,-2.7792012044372303,0.07280170190243337,0.27409290673460385
22.529355933,-2.7325081565666323,0.6173582108025515,2.904400478863487,-1.838454535420142,0.5514733804510135,0.15769244783005706
