time (sec),x position (m),y position (m),forward velocity (m/s),"heading angle (rad), from x-axis, positive is CCW",throttle (unitless; -1 to 1),steering angle (unitless; -1 to 1)
1.134818931,-2.42791881626005,0.7995148354437589,3.1712750565685908,4.562485100824841,0.36815799832026963,0.2027521613347981
1.33480851,-2.439840656146524,0.27172832528639923,3.244888110547626,5.036894800555991,0.3154594804568801,0.1893271449529164
1.534826929,-2.0439863342330753,-0.2469466973824999,2.8873533273980723,5.569840068573222,0.31332728223695605,0.1926951245679773
1.7348194860000001,-1.508996105060959,-0.4850274203744741,2.8225721863130406,5.94168584812695,0.3120192188028453,0.20123865109845152
1.934830615,-1.1100293776978931,-0.7433194746922623,2.8571932089054406,6.542114066212311,0.32048979831822577,0.19451514409132822
2.134813516,-0.5791584398312578,-0.4827950973953338,2.9506701742415453,6.864632289166697,0.31933664958935626,0.20672764893276932
2.334809851,-0.24252466829698063,-0.13056835363487168,2.778876930477812,7.483537428044062,0.317243642287131,0.18124536341683517
2.534808106,-0.038094932080873334,0.6006652121057132,2.9788733638220144,7.600565395968317,0.3413171930531773,-0.015901639695389318
2.734817948,0.20161600207412592,0.8531032857725585,2.837095778691101,7.546150463272832,0.3246080679505431,-0.17690815215936043
2.934809174,0.5645434588471637,1.2801079314123804,3.313450290352889,7.117083430063098,0.33673390129791325,-0.21365430044858605
3.134808602,1.07249404927676,1.6369611270011595,2.82411793173667,6.4297876684435,0.39500172725959726,-0.2062744088168298
3.334811094,1.8246717615742378,1.6379523622582488,3.031935762343523,6.068745911980894,0.4191545242487904,-0.19312434276008233
3.534862383,2.230864734391311,1.4533716955253182,3.1967912895712907,5.674354530524894,0.35629503829251824,-0.1850837102172618
3.734810488,2.534911123233289,1.1322450899291305,3.259050350291073,5.252465095646618,0.3428845765370216,-0.19559911093435928
3.934820929,2.886069170266825,0.4804802615828777,3.062175245367919,4.820920224591452,0.3276287600947857,-0.20219629032071237
4.134822102,2.634221440037601,0.018159381762829885,3.0767391423417494,4.1835113033153615,0.3247234596266373,-0.20595306716851133
4.334834559,2.350007549164963,-0.5515654066002171,2.955050660195137,4.026782138371195,0.3533766686120402,-0.20893848212454535
4.534813264,1.906819153306447,-1.0457899503872865,3.0673298877037807,3.5040793109252864,0.32892313736106593,-0.205246131601205
4.734844141,1.2176546719365309,-1.087173607299254,2.87400711547041,2.9336965598211657,0.3171906371168719,-0.2003530693211991
4.934931307,0.7638808516177473,-0.8756488897092828,2.9638370058560524,2.420418737521211,0.3049314523714935,-0.2063436205006881
5.13481517,0.2901432643692691,-0.4194111398287933,2.823621168766778,1.982473955980754,0.32464894672210304,-0.1677732481391768
5.334922465,0.07724909227083263,0.265715091541766,3.030779213467223,1.8410449052994913,0.3591418287491983,0.05284047713888096
5.534922838,-0.2647157417214897,0.7827384239843457,3.187157405730078,2.0675746536491104,0.2893837223483009,0.17202695439409135
5.73481706,-0.46661094200861486,1.2536623784506222,2.963390633908288,2.5119857915101793,0.28429735645988236,0.19931605734874158
5.934813719,-1.0783091250808183,1.5170762794451802,3.0413786029793384,3.1714106640872908,0.36895403307809144,0.16980741457005508
6.134810543,-1.8333016002174793,1.268196735446399,2.8639686066358756,3.4958328420070726,0.37236937828178923,0.1652729150277648
6.334810675,-2.222424528721041,1.0800264907619272,3.212181806462088,4.078746146164571,0.31756471492245547,0.18570243664172276
6.534893747,-2.633824844512825,0.49908092216368327,2.9599580863050883,4.357689437356515,0.30268292238812766,0.17376592598430174
6.734809993,-2.887861684984637,-0.003368094079375425,3.0798214101580896,4.707209918436214,0.3136575316776477,0.17327823465269787
6.93491637,-2.502921768004689,-0.6653201211573022,2.850434392865254,5.37463987471889,0.30777498484668936,0.20436430241091272
7.134818985,-2.0690885968731343,-0.9752653323126589,2.7722278643391336,5.694974343652498,0.3487132633894594,0.20014407535646206
7.334830118,-1.4424941547724668,-0.9544543752773733,3.0063642729528643,6.187526849417292,0.36380553134545734,0.19491403569936658
7.534819289,-0.9442401830138429,-1.129959957046678,3.055684545577406,6.682273791920895,0.35040296515829006,0.190569597236739
7.734819009,-0.38004195364497173,-0.6423898220987501,3.0537359566748146,7.12005129471171,0.33283420736378067,0.17898298404145718
7.934808534,-0.2420749238576236,-0.25606225231161606,2.9563388962519523,7.418198869982062,0.36195213809025817,0.09081314109679964
8.134832797,0.04459622728082155,0.23280394392862322,3.206550988564783,7.504079786212435,0.36672877526103864,-0.12065907440576126
8.334819149,0.20018591167942765,1.1340580581602384,3.1762485461174257,7.329060706982355,0.31190888909560144,-0.20434339691744408
8.534905508,0.6056075091863845,1.3773815562399978,3.0446527170870357,6.924886119545226,0.34987458636423613,-0.20584515318078309
8.734821264,1.3263729439738392,1.5436752216362482,2.9976058319653367,6.124342283418349,0.38145747789746276,-0.20147946662126548
8.934825761,1.8561327753025825,1.4339323579115566,3.2374469184774894,5.879275753315044,0.3639951004582185,-0.19219055551958658
9.134816266,2.44352825060338,0.9872235656135793,2.952614604736392,5.352660442018294,0.3473983905773751,-0.20595997546589104
9.334807915,2.7683314293347845,0.6503729660287122,3.0146024667794897,4.930497603027873,0.31486709221719544,-0.20150796859998235
9.534914102,2.8527539636857884,-0.05776540487496401,3.052549531443451,4.4906800395495905,0.3139995909148548,-0.21328561231291507
9.734891077,2.5617124041733903,-0.5571588479902512,2.8648454354900026,4.1640222601230015,0.3295357641700494,-0.22384971390349423
9.934835238,2.128513195930133,-0.8193916672944098,3.1829440461484113,3.82160727660963,0.34306023106706124,-0.22338322054482912
10.134871859,1.6598591938260374,-1.248823815670005,3.022475479383944,3.2932883264565076,0.3533513903274558,-0.22336573501167767
10.334822608,1.0593659032886342,-0.9449326868306587,3.0998923821403848,2.6583920440114985,0.3375421204782082,-0.2164254860586311
10.534919309,0.5776951505957536,-0.6844610167764152,3.029808900030904,2.3684782736446497,0.3098797530227752,-0.21589285636187752
10.734832734,0.18337188451938294,-0.36002589653164774,3.1077478827597407,2.0410503240473923,0.3920449060101538,-0.07032900658519757
10.934830337,0.058707597800719484,0.40837817905655727,3.291178192088971,2.0604171326829315,0.31897449792077553,0.11702236715705285
11.134815174,-0.27373812767383676,0.875490390131665,3.0703772822864934,2.4878873726650097,0.26196979831142464,0.18712083616643882
11.334835274,-0.9800435584844861,1.2784425177957854,3.0851377770079234,2.8534607456983476,0.3102101102379986,0.18990746500860697
11.534897284,-1.3952489004444182,1.3841281551843914,3.170113556674305,3.254516856533123,0.3432311789616409,0.16399630003138194
11.734816159,-2.0591269874176286,1.24914225019665,3.220728469233902,3.7757097021705284,0.3274228859677315,0.17459690948303783
11.934820179,-2.588609412727707,0.6470128240174137,3.119267620997813,4.168893233311544,0.32878958651118173,0.1798894654813852
12.134812187,-2.8024417418762937,0.21082079429696177,3.089199356190129,4.531380345038687,0.27681449643214967,0.18649015653279796
12.334817912,-2.503495256941741,-0.5265877142439385,2.833679363723238,5.1297586807355,0.2919607806465183,0.20076301484295972
12.534814896,-2.344030358717994,-0.859617677278413,2.8474575959910355,5.684156979225893,0.32463453325440156,0.19165019287178464
12.734814248,-1.8571124361113984,-1.1834807699942593,2.856660633659255,5.984414677383152,0.36995010374464576,0.20325283130795335
12.934815965,-1.4353767193737776,-1.173555541808707,3.0667058539661514,6.492482584025322,0.37185852292145655,0.2014641630674902
13.134819227,-0.7769237508327439,-1.134337077311549,2.943262476405727,6.801724666663255,0.39042853426737895,0.19491711357468403
13.334860161,-0.27942354382781825,-0.5695239081779292,2.9058157576628045,7.295274719405804,0.34857534565511733,0.17521879529135817
13.534815567,-0.08384732900676369,0.1367050328486852,3.01825231646033,7.47142052171582,0.38789807486581096,-0.034365797738289475
13.734808503,0.02431571078843535,0.6678750227952551,3.274696989787632,7.50954597653113,0.3143818099740927,-0.18328570853296042
13.934810861,0.5695491218496066,1.0525698676598705,2.958300991106201,6.835260696681099,0.3217148274617591,-0.2273203339185033
14.134822306,0.6710007592630354,1.5866971725400243,2.925767409783433,6.463022915736033,0.3717361287297962,-0.21895711171980728
14.334813081,1.2546150956753346,1.5443371164135549,3.0279905296555936,6.049533852983065,0.38287236487196286,-0.19091403621614536
14.534811071,2.1392819175847437,1.198476895290271,3.1236070198456094,5.7615954882752645,0.33523120238348464,-0.20508514274424214
14.73493569,2.4683817661049305,0.8093482680043759,3.0208457705831826,5.232245349408597,0.3377870332479848,-0.21871965134069393
14.934844876,2.761049737466655,0.21908317654693893,3.226975835351619,4.766062376532095,0.3095343483034704,-0.2233209941379521
15.13491258,2.7953236050542976,-0.4497228719115395,3.028794794703396,4.312141463834806,0.32627735567474303,-0.23496610371242135
15.334825827,2.2590778211790377,-0.6586732429443192,2.892187533311666,3.8360217832362236,0.36754588474527544,-0.23662219482985428
15.534815958,1.88460828837955,-0.9951559311615009,3.026464052249732,3.5291635361411813,0.33598941016449463,-0.22303123880266534
15.73481029,1.2400147749891088,-1.2617019446543307,2.8911428857866723,3.0103096940407648,0.34372614305630106,-0.2284655427556131
15.934811669,0.6630804626702308,-1.145326546305811,2.9147281571045607,2.6147159425886337,0.3303807791516833,-0.2241260685302726
16.13481298,0.4361477198410173,-0.4084328650241842,2.86150529067592,2.2498239900099684,0.353426491889847,-0.17777414181282897
16.334818845,0.05891400794868433,0.04780438881906624,3.023345129501583,1.9828285710823275,0.3795332004240164,0.036539212662040875
16.534833904,-0.053053313315331446,0.8053161489562393,3.2637862903696098,2.2520396136590977,0.3135940798303293,0.15377381617522132
16.734810651,-0.6329701042010146,1.0874703928949747,3.1913727168888117,2.738097926930293,0.24783255828170123,0.18194735059058995
16.934818785,-1.3880706093543203,1.2992469958729207,2.911129938150521,3.160809975648407,0.3462537651609814,0.16994722381907768
17.134905973,-1.9158880514606027,1.2723206275277186,3.0039370996078265,3.43013881601375,0.34512775260836925,0.1656005384805607
17.334814524,-2.409532192381917,0.8244018513405295,3.103878563615613,3.80864037865809,0.3047406188692959,0.17749028692971178
17.53482688,-2.6305353849948703,0.5167391775932845,2.754140517318425,4.427790118094958,0.3002092040820209,0.17482054546374498
17.734877065,-2.960673275231731,-0.32778811492581716,2.9138856083781257,4.761193818144589,0.32582155031798865,0.19726611490567045
17.934897453,-2.414199763258053,-0.8838933920292178,2.8725555958725426,5.21923516766298,0.31766611994220506,0.20039659325920575
18.134810681,-2.2803100294718868,-1.1011733314946126,2.7314105236415083,5.746486585985864,0.3571904719004052,0.206357896801656
18.334891459,-1.2574689957738454,-1.2976776123870624,2.9410380818334927,6.236320276855315,0.4179213608748127,0.208064094049127
18.53481271,-0.953628021929568,-1.29149079181826,3.046823002245842,6.7048897674786385,0.34655643076904785,0.1781368763868655
18.734817368,-0.5295378686473834,-0.9065157490629041,3.0896362981803978,7.20336758763083,0.3448175020306552,0.1911064731743719
18.934902692,-0.10523425273024209,-0.42533153930772755,2.7171384043020113,7.30041005889571,0.3605385000363187,0.1124191279976458
19.134824924,-0.05256653151504792,0.28842025556676143,3.1063005512782875,7.6197301930647,0.33990969830718254,-0.12746908600419274
19.334932846,0.15255580533101118,1.0886285665812812,2.9978232688369557,7.176964000530018,0.3114557008481753,-0.22375256865615378
19.53480881,0.6900335269427313,1.4553774223487517,3.0652157006002154,6.811283759914948,0.35720927059655466,-0.20662881456865345
19.734809252,1.2011724753145527,1.5784978024975975,3.092655491797445,6.214472284881161,0.37503201429626265,-0.21673244729304905
19.934821724,1.8390944248874843,1.3116802888543817,3.139123855519375,6.05054809503966,0.37424959500311455,-0.205743187846455
20.134860138,2.4032544445623993,1.1316959992422588,3.0232447501770605,5.580153126790987,0.3315469722848457,-0.20428710013135273
20.33480913,2.585408970624967,0.6732043599994494,3.0517680859339262,5.048116118018185,0.3078117067225077,-0.22056976127711722
20.534988683,2.637173785672474,-0.23637448178358905,2.8806368510095544,4.5711098746416745,0.3210901267804535,-0.22175256258598228
20.734932003,2.4547188154349806,-0.45474986457616273,3.259214426684432,4.143562067080438,0.3685773153079322,-0.23672815680323162
20.934813837,2.043880254161774,-1.1580011466721394,2.9796875257185476,3.5952502743961037,0.34135525149902984,-0.2358292883493454
21.134829915,1.4301743348080154,-1.1521830559228299,3.0296331126322826,3.07696876485584,0.3610900540649288,-0.23405219385427709
21.334818435,0.9665891113795245,-1.0311687305796025,3.0183739039511557,2.641656391274415,0.3262639605068301,-0.22556941108978815
21.534834255,0.25065118604104153,-0.62517955198734,2.8322303005147296,2.2616172163363095,0.31002012596718836,-0.216878421042479
21.734911749,0.03779632220744189,0.035444513043776577,3.0255512764636427,1.9785065866982239,0.3715913885989336,-0.08365163086172293
21.934818346,-0.0464344836365015,0.3641545550140247,3.2181437015111025,2.04485933633961,0.3148297668353733,0.09943477131411109
22.13484969,-0.5476344751309525,0.811234934932864,3.365243846355351,2.395807194238014,0.252782827791956,0.1909169439201171
22.334903298,-1.1576460751564623,1.3648010126540613,3.2634947791813493,2.873341618984862,0.2748159333756447,0.18940354545283872
22.534809882,-1.5636340806610964,1.3744093724387763,3.2423494388779894,-3.035051414474776,0.3402735385850052,0.1641532371483299
22.734814692,-2.1950871081144667,1.1495869981976534,3.0098340796184915,-2.3324836625109553,0.3430947179905054,0.1739084706353726
