time (sec),x position (m),y position (m),forward velocity (m/s),"heading angle (rad), from x-axis, positive is CCW",throttle (unitless; -1 to 1),steering angle (unitless; -1 to 1)
1.026845213,-1.0079348267957904,0.4653627406713646,3.4474657422983515,2.6301627932723397,0.2810573536053755,0.16527149710888056
1.126742226,-1.356921534538881,0.6591183173928826,3.2236520482889723,2.74257286249304,0.2551262912498999,0.17388150683377274
1.226744888,-1.6579465422844293,0.5596232005213735,3.2247721364012625,3.0488428395773886,0.23411817964180606,0.17319082922281087
1.326754244,-1.8687042823560782,0.7000943353523192,3.1633195226005744,3.1449551570618324,0.2463479820297964,0.17036752507758765
1.4267430110000001,-2.216782999140913,0.6305776157364562,3.1345323635566342,3.489391107329837,0.2742173598624897,0.1809294466412913
1.5267454169999999,-2.4250049707473686,0.470044369393161,2.8891608490989555,3.631376569426646,0.05096918358097964,0.25384411237704974
1.626778237,-2.6866275366931034,0.43385291854273894,2.6587942006739484,3.93582779362339,0.20857756932722088,0.23248022485935366
1.72673781,-2.8704968102730577,0.24564308361038478,2.5765944303392248,4.205470757483624,0.4013262534090804,0.17618030057915712
1.826793827,-2.807293754153589,0.06422676613082373,2.6479379789157176,4.358070139602247,0.3678832224179577,0.1865966248769646
1.926743347,-2.976553137063539,-0.22013531529356895,2.7012493991830295,4.557761422065453,0.34438849987872505,0.20985170013775736
2.026853892,-2.918786495003023,-0.4956781861395723,2.689687715866613,4.860400211821067,0.3595125776051493,0.22618828592956822
2.126755244,-2.8527440966141175,-0.8467525182516461,2.9184689156867094,4.957297049096437,0.35651579161664126,0.23625348999967424
2.226740396,-2.893944723249222,-1.1111810172735614,2.93965503598528,5.316283017012812,0.3730147744533797,0.24458889926081173
2.326746038,-2.7510821908562857,-1.1891999061141676,2.9664044903403877,5.459328035123351,0.42133316307220176,0.2315591886348931
2.426746564,-2.484540205452641,-1.4390077836841624,2.980272460338157,5.758371384112585,0.45223735242301555,0.23163899857766074
2.526846665,-2.129280736950695,-1.673816440710177,3.0222604399795063,6.011407513168968,0.4692832629699893,0.22243178568628402
2.626820906,-1.7965266309815,-1.7435468558388019,3.2122803231121266,6.256338853521749,0.48320709860843647,0.21355752731860414
2.72673896,-1.4414051772539904,-1.5109044680331587,3.150784554980767,6.520043809591777,0.4802431013391407,0.205822141523072
2.82674089,-1.1626820963659028,-1.6262480055095165,3.1304429780586522,6.648798856060211,0.4394949085446113,0.1986724902852355
2.9268137970000003,-0.9238420106902415,-1.3826171118024166,3.300675278892846,6.985264270627232,0.40899904033368567,0.19461420074782754
3.026829799,-0.7124780511502844,-1.0965830673357864,3.456727811680433,7.07888378028539,0.4075358236766427,0.18964344254295404
3.126878705,-0.42224315490492326,-0.8107105025635333,3.3292132113166835,7.393579304971246,0.38253128963088057,0.16734888986190766
3.226807396,-0.4238390263199439,-0.593913883601895,3.208135618836834,7.644187725957131,0.4159602572098836,0.07849487280538649
3.3268230450000003,-0.1397734365472431,-0.3521875930716206,3.4198306765975417,7.537823801499426,0.4485425963824759,-0.04349181225465555
3.426836809,-0.11088004206074537,0.04335843769839607,3.543801952387146,7.460208966924223,0.43238154350061214,-0.12156360649287311
3.526826331,-0.06018081201030923,0.456627724659197,3.4145025027148597,7.290588270777045,0.36128632300677,-0.1618060017523699
3.626842762,0.19366166372174132,0.5631499534248754,3.3808908590331326,7.0848100063879915,0.3458392780915812,-0.17622216619710587
3.726739227,0.388005241896679,0.8710222380343815,3.434391656841335,6.993292782641878,0.35609350194193856,-0.18436973680136517
3.826751726,0.7676548049650042,1.1388594181060323,3.501350559681896,6.751192561809915,0.358235559090741,-0.1792236475471767
3.9267804120000003,0.9844637824592588,1.1667086356152392,3.371021419917706,6.47099357580878,0.36975920655653033,-0.17539981146318273
4.026743611,1.3375072256864164,1.246788935389138,3.255125237125573,6.301659261627944,0.36856246227037154,-0.18321852459134877
4.126751197,1.7293710114067653,1.2801202686208852,3.294225865485754,6.039641046914646,0.34781058883880567,-0.18772178300402664
4.226816392,1.960983681852829,1.1091999571497264,3.1809517743338107,5.927782042995356,0.35609052042135747,-0.17559800002197637
4.326755852,2.324400484145187,0.9927878774154548,3.162889305140909,5.5488776695660915,0.34980582861389525,-0.18517497303807193
4.426745703,2.5096027058492263,0.8125395974184946,3.275851252497406,5.301025948315358,0.33084403218837,-0.18840406749896518
4.526894928,2.560803146260424,0.4418525779907484,3.1547291382202065,5.210518827453214,0.3283299360485904,-0.1849326316405874
4.62675535,2.7891873906031828,0.24862956827816207,3.242879140753953,4.920604039077309,0.33573626909217114,-0.20579961896525978
4.726738587,2.7346390308422084,-0.01823185401611096,3.1534872679967294,4.683651938573447,0.3381215341383467,-0.2105978216666028
4.826743341,2.9199547245226785,-0.22358124528326462,3.046075782998901,4.512070434050166,0.35114437671576826,-0.20581460138418334
4.9267450440000005,2.99914106486917,-0.6039690327478104,3.0577058659243366,4.315571759577812,0.37367721144005045,-0.20650127674585114
5.026738518,2.7347106269885524,-0.9187187200815878,2.9781616346403412,4.242086133638903,0.37774812759942417,-0.2096801911852461
5.126752815,2.5322678280609394,-1.211977772088287,3.067208489207642,3.885032856228146,0.3938146670225416,-0.20504044436436925
5.226761572,2.132674274743002,-1.3905701590697537,3.104469287375189,3.7134160616606744,0.4147289954927431,-0.21258074409153552
5.326853084,1.9831027085740764,-1.4109033801328406,3.1527392810383805,3.531881713222462,0.40374118565650907,-0.20882132722997826
5.426764929,1.4628246212956608,-1.5861325106676392,3.222512527911352,3.0478129255594952,0.400290269364468,-0.20107774162800282
5.526774022,1.5219288348307138,-1.5251930573308212,3.0749952834498786,2.949648459437213,0.40177659384876624,-0.20286900590731824
5.626753549,0.893094426510443,-1.4032017666498728,3.1011304353850515,2.6747992210618854,0.3807755696376755,-0.1974229615269373
5.726737213,0.7176697662362832,-1.2381948581489766,3.1396139474345786,2.55090108823884,0.35176451630319366,-0.19741311681682547
5.826757159,0.37950235076145045,-1.000285849318863,3.1290211226264777,2.3231877611959635,0.36059586629548096,-0.2040344447027908
5.926806507,0.3208161449749268,-0.7708659292941765,3.1817371267778527,2.0248923589758943,0.4117845177828831,-0.14536660362523568
6.026757782,0.10373143958446539,-0.4832118579424221,3.40502885626896,2.034470588236012,0.4277048440151847,-0.05575651136515521
6.126761996,-0.030348194978670473,-0.1845644205586872,3.4070105069173637,1.94281128521732,0.42545391952055484,0.043610171236098276
6.226739189,-0.07250874577986613,0.22550122661120905,3.5082221415074146,2.055592388773918,0.3526288041869859,0.10406303120347882
6.326750762,-0.2964134898347448,0.6178570336755349,3.3724815149095457,2.1420153186753508,0.28935092006192736,0.13786652820629822
6.426738222,-0.5597324010807497,0.7373428240577962,3.560375009180274,2.3728385744186706,0.2648079724612532,0.15576209037685163
6.526820071,-0.6467904479950808,1.0018506060255465,3.307062168733407,2.575509427905842,0.24371348002402315,0.1673698603765075
6.62675997,-1.1761562428715362,1.2136866211128272,3.311195517627477,2.964114360879454,0.25151186648703433,0.16582901868122873
6.72674078,-1.4143202341702252,1.1526225637444387,3.1806704964859236,3.0940027527399874,0.28527869790049304,0.1616217414702149
6.826762305,-1.7168518556184666,1.2223371676350685,3.2463516163718253,3.218297039038833,0.3243196554022234,0.1611051971210074
6.926785077,-2.038508018849018,1.1379610614379678,3.1022189053884044,3.477296932135601,0.3179014519399313,0.1610010533390745
7.02676288,-2.5143389872301714,0.9849163266105199,3.1414968142589963,3.731038665736079,0.3279453700946851,0.15711146343410679
7.12675806,-2.452270900838764,0.7766345010072143,3.2089746343884933,3.9324937873330175,0.32098817988674166,0.1740801981394219
7.226741327,-2.715908092936815,0.5974426440160152,3.1673999464828673,4.231625674013696,0.29860468632837495,0.18501502783693327
7.326755043,-2.7659887515434742,0.2908932867212469,3.0394071790564614,4.4263952655962795,0.30274586320978153,0.1932589691114294
7.4267579,-2.9319559397603983,0.019379861182767088,3.0583720000707038,4.5225300919618565,0.3003091072386428,0.20458732976448823
7.526762834,-3.0340178716584205,-0.39048172844527834,2.843782915703275,4.837915411239343,0.3145397860271093,0.2089314297118992
7.626802242,-2.93228210017392,-0.6737173597426922,2.914873842423816,5.099924891051537,0.3579377270128969,0.20942753709010636
7.726734121,-2.8305469013376747,-0.8071380823525032,2.84124492861453,5.407875532493251,0.38521196490006826,0.22232685712855096
7.826741699,-2.5883099584469136,-1.0418282924901527,2.865140152968859,5.404168696257064,0.41953715640498407,0.22257529859036673
7.926764785,-2.4068877626891765,-1.1817328290322455,3.10281632798278,5.752952026132208,0.44928263332792073,0.2178861877081366
8.026744448,-2.0536714153709497,-1.4286058352110211,3.113790484505579,5.990332557089886,0.45680250689551466,0.22162522461256487
8.126755166,-1.7820978986135196,-1.3175754225049348,3.149949734863771,6.234317191271035,0.4509375163884492,0.21338720805317526
8.226835561,-1.6224339249314472,-1.354052665204421,3.1928419773204935,6.498563582285674,0.4450952926652457,0.19321705754851967
8.326763235,-1.1066329788620903,-1.4550424328453238,3.294293304301806,6.712579948712586,0.42997867939321566,0.19780648060488562
8.426749127,-0.9784382196147723,-1.2066753283283993,3.192961123478448,6.936193997737991,0.40102035522773505,0.19323133380227894
8.526752765,-0.7330671838633968,-0.961020692879714,3.1809293576519355,7.235113020813173,0.38770160884735066,0.17802594383878026
8.626746641,-0.46173434793746654,-0.6629341367097148,3.2955854487457397,7.243176316438536,0.3715233306035975,0.17464891026203053
8.726738693,-0.2671283634833567,-0.4170902342785102,3.3322313112087407,7.5203617493091155,0.4012428116072374,0.08738488340932354
8.826745772,-0.0800549038240046,-0.096222551295876,3.3276812139524865,7.613554753201817,0.4764459431570679,-0.0465436540455053
8.926752734,-0.0944565446356117,0.37561498209699157,3.35738456811567,7.566554218853221,0.4132397810907482,-0.1253086632638644
9.02675957,-0.004250338875587609,0.5576827500719822,3.377624979385388,7.250559606474765,0.36425854148099257,-0.17290898343920175
9.126742676,0.14784070346433587,0.7739764367627331,3.4791761255410614,7.116519004370381,0.3609099483637373,-0.1851810376514673
9.226775725,0.5243708165032729,0.939029000269564,3.4177603143260207,7.038755498212672,0.3583453919051719,-0.19292295415061556
9.326763682,0.7283895297743757,1.257371165764584,3.306913850424377,6.764683972998003,0.3685224625844373,-0.1896903247322079
9.426749955,0.9271020808862932,1.3512538961762575,3.3658443548041213,6.280402387272818,0.38628218555476723,-0.18769601361699817
9.526755213,1.4364095003642257,1.4556738844453356,3.2698365504708145,6.319636141311338,0.38989926240932493,-0.19068104686918178
9.626753147,1.757249098908633,1.40255772376705,3.267373641516303,6.085793364848704,0.3837248614692185,-0.18607659081465633
9.726742928,1.9735129710529382,1.3829824136429936,3.347099944517665,5.868164268959933,0.381199545322909,-0.18387407465456823
9.82677739,2.2836463506930755,1.2312387336637667,3.2298966401078673,5.625624202848225,0.3642505103415184,-0.19073311454087125
9.926748083,2.529015701544625,1.0704923939186628,3.19314510086379,5.328672818035189,0.3513158635011834,-0.19312367809593076
10.026746011,2.6447733221547205,0.7419867998035106,3.126178742348477,5.114449620722329,0.35324098544638965,-0.19402322417695886
10.126762081,2.7644075635253476,0.4218996413169129,3.2810438812029012,5.003689333429091,0.3400272474104346,-0.2069373180070785
10.226778944,2.9680699447027865,0.1959868921655637,3.077957018408554,4.675634496997617,0.34279264848541696,-0.21000523830651452
10.326745272,2.979241173829274,-0.19456090288480957,3.1991749531294755,4.559390725831772,0.36680727616054465,-0.20384047360099336
10.426748379,2.808013107166085,-0.40240785245446975,3.1902967370270505,4.347227597239692,0.3780613938863969,-0.20939755032833315
10.52674733,2.7276696773851503,-0.848909198517497,3.232241650134671,4.035852730375707,0.37612741279803114,-0.21185653802166812
10.626754452,2.361789726068679,-0.9832585661780202,3.1757818751010936,3.882456540730016,0.3998026019983903,-0.2098335147466954
10.726748537,2.0083217522325945,-1.1844933818275665,3.1652742895156223,3.639513052701196,0.402651895141836,-0.2103132842895871
10.82674997,1.804459251497793,-1.2698926586642343,3.1577679851854925,3.480154120377435,0.3956625967229139,-0.2104230784094637
10.926754834,1.609491287865542,-1.4125523520890995,3.2780508749249626,3.2336633611243175,0.3958544701776091,-0.20621278250165861
11.02675386,1.3578436727905476,-1.432069285440505,3.1022953234777204,2.9022457010296967,0.37838176037976096,-0.20841081225027566
11.126744763,0.961873745679907,-1.271004508691813,3.1515600557468413,2.6577128993195482,0.3432614229206574,-0.20733502231315373
11.226734298,0.7913736432962618,-1.071806933303419,3.1272130172277572,2.391443444262042,0.338878138617991,-0.2118627492525689
11.326746271,0.47001513310603965,-1.0631953390901754,3.070570085639377,2.35506087364181,0.34925065950571843,-0.20700529890671138
11.426753629,0.3720213677073164,-0.5025430993716156,3.0970225470138932,2.0588703562190434,0.41140079302755006,-0.14876762358240903
11.526752629,0.13656366037377415,-0.42852394757968737,3.2095251655305037,1.9809113773715734,0.43808350752875086,-0.060467546263677
11.626790127,0.059902429696307144,-0.14897272206281587,3.568029302332212,1.9496736266019659,0.43015695841286855,0.03756010216090604
11.72673992,-0.20497671063873527,0.2602651828444361,3.543521146158507,2.052867528498246,0.35909825336419043,0.09863372333667834
11.826744593,-0.39958158044526676,0.5505681801353614,3.6495249633086115,2.288614974509646,0.29837180576616096,0.13627302293069718
11.926750471,-0.7308694432864608,0.8158526193331026,3.5172822465293745,2.317918958879095,0.2622941493813387,0.16788369847457174
12.026750747,-0.618507807456161,1.0566253666030976,3.463970771720846,2.611532402534616,0.24046538874543844,0.17642902892178877
12.126744401,-1.1652328773483547,1.2659602327726307,3.2307941121511234,2.8534736262953744,0.24881648399131778,0.17884068395030384
12.226799655,-1.4055230041366489,1.2802333824911647,3.280017457427597,3.133744573197524,0.2947982618079005,0.15376664054763853
12.326758486,-1.8034316608463534,1.2700051931761243,3.19687757348137,3.354087714389353,0.3320123238016097,0.16764822854568442
12.426759101,-2.1108177003154482,1.2194197157318525,3.0346379639035814,3.5459910741839646,0.3250532247468925,0.17517697292360349
12.526763481,-2.31021030929889,0.9870435819534826,3.1178147802599283,3.671577432727856,0.32401786033316543,0.1834333018043506
12.626752729,-2.5168081742912234,0.969484757691728,3.0025556542801835,3.889321281866952,0.32672299852889225,0.18541407619524958
12.726805544,-2.842548938045918,0.6205484571952616,3.1168451903263206,4.209252511477069,0.3153726064447337,0.18748962539396202
12.826772967,-3.029939022073859,0.37440636891213397,2.9766650217930493,4.344967432885386,0.3138876551965038,0.19459665060586873
12.926757897,-2.9716100256438467,0.07768567718490627,3.0464486398065103,4.579730024392851,0.3281165914608744,0.20348062810672027
13.026749119,-2.9481981551835386,-0.2126254098847271,2.978844674469687,4.911100925616108,0.31808040916443886,0.21287501515154328
13.126747541,-2.9568034862047776,-0.5530719342144867,2.824660439890397,5.045026453543552,0.3529901291163108,0.20423098848283885
13.226745089,-2.8475150936883384,-0.7920335772082158,2.93443971731882,5.365715292353849,0.3972931887187721,0.2212313937420796
13.326754956,-2.401837581851756,-0.9388489797070854,3.092970265873116,5.498939690493855,0.4184457027277366,0.22404706945595884
13.426835134,-2.456790975157865,-1.0893396503654191,2.9804851204366187,5.756151437940207,0.4365302087769235,0.21920665738864678
13.526820078,-1.909877258137797,-1.2631052678108725,3.146924497042735,6.096904577228967,0.4540122466972498,0.22038889346367743
13.626747462,-1.795526017371125,-1.3214962535964823,3.169342493863947,6.2497207785789595,0.44779112114691433,0.2181094206207147
13.726739087,-1.3026507707343078,-1.2346103757071785,3.171638713108384,6.401053879218691,0.4347085867682316,0.20449891655504926
13.8267524,-1.2659116072283196,-1.4077422930057009,3.140409985726508,6.739059744076638,0.4281701107068854,0.19577277941786778
13.926758996,-0.7984013324476227,-0.9217537116052648,3.119562355067431,6.811261634724501,0.4136342352104419,0.18707769483772488
14.026754646,-0.6641748299308778,-0.7856983496277528,3.163518574683485,7.227940946189399,0.37867107140671075,0.1794052786999177
14.126755516,-0.39054939976319236,-0.5797972507334723,3.178686677740165,7.41575781731069,0.3877998998870066,0.16249621070092315
14.226748484,-0.30811020948088264,-0.4686920904769688,3.350366974231529,7.430455578558695,0.4250793890454419,0.07694477584783876
14.326756086,-0.1859255587523641,0.1286221333200324,3.331569190154661,7.459746829382219,0.42727324898248553,-0.03428080536802563
14.426747024,-0.09449158664778197,0.36942762855630634,3.3744873751302293,7.5340146836516935,0.4003568768122719,-0.10926815972592564
14.52676043,-0.07363384300797707,0.6643450891063193,3.4683998069106194,7.326555264653328,0.3734690307096969,-0.15741118214827296
14.62675536,0.19556866783172774,0.7068489887156213,3.4562067197869877,7.102040636253559,0.3396776804766251,-0.18023696510856715
14.726793105,0.6395728723739874,1.2552723623712827,3.3515595859355565,6.9611884337010785,0.3455085910277057,-0.18499846846233298
14.826746599,0.6686239176441984,1.2896851290791302,3.2942898303652695,6.703802377872784,0.36788972188810376,-0.19222846622409065
14.92674386,1.0214036364226053,1.3708048145271772,3.202912042369114,6.521154196209523,0.3780710343707037,-0.19466724969722213
15.02675577,1.2992368540155244,1.4292677769947029,3.250079083924728,6.324598190000184,0.3761549118033595,-0.18953028698116742
15.126759098,1.6934797739716267,1.4066736499713974,3.3008425657809575,6.159558047235053,0.3759904301424503,-0.1951702889794648
15.226763197,1.9475288019399657,1.3694715835842317,3.1727520645537126,5.831251226238933,0.37934638642929736,-0.1938036584697657
15.326760365,2.2682929332774155,1.1905455302244354,3.309516646948806,5.775838301654237,0.3587364554035066,-0.18653051431041892
15.426750591,2.548659052722185,1.050724363927111,3.307502207396858,5.491453628957526,0.35341183581977287,-0.18648297755279433
15.526761609,2.6976126234735878,0.816437147652482,3.2112617794369207,5.2525826041019785,0.35076952437215214,-0.20369509763053714
15.626798333,3.0291867656681823,0.42217180473054505,3.256429914680233,5.088931925039737,0.33592303724472916,-0.21128842758466077
15.726733804,3.0006967092390666,0.1444138489352346,3.1261806592668377,4.778549966329373,0.3484029808581123,-0.2119243125698773
15.826760082,2.9557743044053524,-0.15288593171684017,3.243288186371354,4.605208285304936,0.37098630512061825,-0.2141720394145444
15.926755026,2.9245538890952956,-0.42628348658914184,3.174580636931168,4.294345364481873,0.3727286263909647,-0.21479094692433096
16.026747726,2.7722804750467955,-0.7486176351583245,3.1591134354300414,4.110772955563852,0.3841526558223126,-0.21185653624062006
16.126754819,2.556993565660729,-0.8015844186278259,3.244842401045497,3.9063776542351802,0.40408099398751535,-0.2161539973118897
16.226767913,2.260932154067974,-1.178275500439082,3.124593474185905,3.6260167853151724,0.40286510163255523,-0.21107488152042553
16.326748941,1.9229824369226056,-1.2932367480171578,3.136325317774699,3.379841855198098,0.40133773722500277,-0.21326319197242985
16.426755015,1.7484330675998736,-1.261243215287878,3.263504956520722,3.1644317158742123,0.4039837162569462,-0.21367723393571136
