time (sec),x position (m),y position (m),forward velocity (m/s),"heading angle (rad), from x-axis, positive is CCW",throttle (unitless; -1 to 1),steering angle (unitless; -1 to 1)
1.034478027,-0.9278014816111695,-1.1698239488485707,3.403802103754769,0.8125263299329833,0.44087613175241097,0.19199517675226638
1.134478233,-0.7084673637047144,-0.8751939375404666,3.2579078236318155,1.042988350062462,0.4334306081350438,0.16081386640487985
1.234479946,-0.5697723946093791,-0.48094774254983674,3.4402086322377206,1.196259986420464,0.4807484003410168,0.05231688309289368
1.334479607,-0.4096001125353663,-0.14502842495755552,3.555576409727286,1.2390340868224372,0.49592608536572763,-0.04904925671431717
1.43447829,-0.24310205145326297,0.14265853001422257,3.66072979775571,1.135461516365354,0.466758933336406,-0.112919779496463
1.534476425,-0.010880823973176787,0.3550390282162476,3.681658699019376,0.9363365010583393,0.3940919868329039,-0.145343004410812
1.6344851930000002,0.18377240287546495,0.6083876781982694,3.615049395641283,0.6848446434655957,0.36941495569787514,-0.1509011573063309
1.734481636,0.44054727036522995,0.9329229615283244,3.590043944856987,0.3644585647296835,0.38461332201124154,-0.1544008415432576
1.8344702380000002,0.6573412355642536,1.0429656974103845,3.4303526505896667,0.23608639058181663,0.36541962407275375,-0.1543367778820611
1.934475476,1.0155338317103317,1.2026433905362974,3.568041325621453,0.1706796843577978,0.35570751842304704,-0.1539798587429598
2.034480825,1.40681294385463,1.1447076707657775,3.4744461036225474,-0.02763341665625539,0.37865898196432746,-0.1639844864893847
2.134491298,1.7358871442954822,1.1008906325009749,3.321561140701018,-0.229101272564659,0.3403076405754395,-0.1695753439059257
2.234476789,2.0245213028247737,0.8865298666477693,3.4665984957843436,-0.4800675974280429,0.3393735109509772,-0.17388456412619385
2.334502493,2.381622970712135,0.6436238962980452,3.2793359162251283,-0.7767474223384679,0.35000559002358395,-0.17054544772860006
2.434483111,2.562066396796255,0.6174393774654261,3.2218483002935288,-0.9687978339753256,0.3578004781193185,-0.1801409698237137
2.5344804930000002,2.728551672451541,0.10020960855670591,3.2789267538592717,-1.2660054903289741,0.3588070446818826,-0.17845752186770644
2.634478154,2.7788897704647764,0.0026766306556855954,3.2451747490941956,-1.4463457738628813,0.3907766463322239,-0.19033535811617128
2.734484609,2.7910846767567503,-0.29685214893694384,3.2129329615533955,-1.8559854482366325,0.3678871109656073,-0.19324857454864913
2.834473897,2.827264941585434,-0.6625790927110233,3.180058687252406,-1.9841036896197193,0.3747306058665884,-0.19349234453222394
2.934475543,2.7206344779666023,-0.8967995794394926,3.0835916824097525,-2.1649031462311856,0.41616209685817496,-0.1965493324518438
3.034477274,2.432659590716284,-1.226586797996251,3.0599684144888126,-2.4156792558183837,0.41374247003628534,-0.1900067082150238
3.134476454,2.4033853485632646,-1.3943774009763148,3.0350973065566826,-2.570866834752578,0.4215937905233529,-0.1908747459497836
3.234477459,1.9775887983372864,-1.4114134840405992,3.1777050368532658,-2.9412401782400446,0.43281939908874645,-0.19045786201113868
3.334482853,1.6065156503524856,-1.633174668718098,3.2384635305220786,-2.93177393205885,0.4153086854170062,-0.1880254170877194
3.434469202,1.3307556848721245,-1.5360178765584096,3.3843373770493903,-3.284663481710815,0.3940500031691224,-0.17856306357481982
3.534485178,0.9333987229186271,-1.4683854277399397,3.207700274486306,-3.5175341512413,0.27121603249686127,-0.2122665150650214
3.634475137,0.7836370101348805,-1.2764438062495669,3.1098890524168454,-3.705150266418234,0.14772132319155004,-0.27571362337932726
3.7344837980000003,0.38292854335297977,-1.330210306022378,2.9217469435208336,-4.086840574023922,0.3867141268237983,-0.2055411029035935
3.834534801,0.34618505191544396,-1.0356127912445714,3.0587628358423444,-4.275514680195456,0.5273297884144061,-0.14607568792512582
3.93447218,0.32386626173823274,-0.8303056612754988,3.2669681917677535,-4.30222486697894,0.5568921576261381,-0.08008466652269086
4.034474832,0.1411274028256975,-0.40912566099837383,3.5196204387691283,-4.452062879780107,0.5046846655046611,0.006915836436225302
4.134473726,-0.046250347686147976,-0.05701242301430507,3.611139923067271,-4.2781049981271035,0.43542210887290983,0.07710301987867893
4.23447852,-0.08962599559538136,0.16415915186736985,3.6017533443591665,-4.304285592153073,0.3660580705803836,0.12809907470475757
4.334477459,-0.20757432252293678,0.46705543837963887,3.762296628809577,-4.201039109233473,0.2696553921321327,0.16007319717269786
4.434504516,-0.560621762529107,0.8365258168525893,3.582139026503185,-3.915123559654389,0.2372648528237304,0.17321545345996378
4.534485463,-0.6968642236973949,1.0306058436650378,3.5830903173447353,-3.752357241097588,0.2371048101189124,0.1844925505261819
4.634477871,-1.0555288827256515,1.196693154898618,3.238869182293801,-3.505737849652606,0.24853838268307082,0.18120985636890474
4.734479766,-1.4579435105519263,1.361079633011014,3.3139508948609606,-3.264168042854836,0.2934485500905246,0.17345096732085794
4.834488298,-1.678180182223495,1.3612108620042236,3.129954481242329,-3.0317521631773703,0.3388854906384112,0.17982569407225785
4.934486891,-2.008943543401653,1.176094035508418,3.0186049190012985,-2.718645373436378,0.3400296805318508,0.1836945979474165
5.034478738,-2.3387557657946,1.2205404579936494,3.077513584579385,-2.612741296763978,0.34106609242979424,0.19412821310765097
5.134478905,-2.6186017958748775,0.9167416484434269,3.1590826675807837,-2.3853026716810675,0.3606088593364624,0.19869541811016123
5.234475184,-2.7285666090377902,0.6296239878213886,3.047282229063525,-2.0671112471533566,0.3508057419616294,0.20269364670311005
5.3344857900000004,-2.912253675104395,0.3143262199712343,3.170507005087613,-1.840105653625258,0.3557263050024185,0.19855286520388457
5.434480382,-2.9767088448007715,0.019035365607713406,3.104536248514032,-1.665078663979696,0.38151960741708607,0.20805689359096674
5.53448431,-2.9969340447237274,-0.12136861565884631,3.0346549216174323,-1.405913906564178,0.3443216219192289,0.2123633151648511
5.634478055,-2.9108734060397436,-0.49154156701221413,3.0677071128878155,-1.2687955892220864,0.39248988890570347,0.22044452013849944
5.734481875,-2.794566323094494,-0.8390880744893052,3.1139091561470527,-1.0002606307572168,0.4208014882801674,0.22251566621284025
5.834480752,-2.5390499978363965,-1.0710973649679532,3.0665369641769833,-0.7619072960473169,0.4476196142616145,0.22190727584240424
5.934471618,-2.4091042800782834,-1.3084970896559989,3.1636677225009064,-0.5952548048869619,0.45087389506578374,0.2227049020857875
6.034478934,-1.9834293348436622,-1.38030614916575,3.158079068694404,-0.22648720056441976,0.4560504734548669,0.22193757256264873
6.134472047,-1.673994863686687,-1.3180692063285508,3.278726850666671,0.018194826959117446,0.4658140591158492,0.22123035994405085
6.234506952,-1.4089643893211763,-1.422246418660112,3.2462583580394897,0.22569531039764523,0.4352277358672491,0.2122723462922958
6.33447686,-1.0752605406665459,-1.2468416419750388,3.265216430211432,0.38726841808644236,0.4290522239147108,0.20440587180500647
6.4344767560000005,-0.6050948401029863,-1.149852555272949,3.119988293439059,0.5961821432567784,0.4168823388987458,0.19731116989440378
6.53447727,-0.5974129920871064,-0.9767257239659412,3.2908918980133417,0.9098726168302972,0.3939989742597494,0.19072077014988245
6.634484599,-0.30574548345523933,-0.5867767485365454,3.2643979835329766,1.0916211983465456,0.4250192143229777,0.1515554189242869
6.734477787,-0.24280903567732703,-0.3149565053820407,3.3492471949751814,1.166598488498309,0.5031055080116658,0.04026252322157642
6.834478334,-0.16356067198105737,0.028148079647479035,3.420818909049882,1.2374422967815746,0.48812337356517865,-0.06211972738315287
6.934483623,0.1522792029811789,0.4283484027075467,3.440884689467913,1.1162342563124958,0.4310611106756522,-0.12123116174062312
7.034484567,0.2725370427019712,0.6136107398114493,3.472721719441411,0.9426922940296566,0.38077075205172156,-0.15584905326367735
7.13448004,0.4442250951680581,0.8957373154561995,3.4991343977014986,0.8041734484745391,0.3617412123554633,-0.1679787766248376
7.234474982,0.6524988000914335,1.139203613355774,3.317502814391073,0.48369126304796645,0.3512595128054241,-0.16864267761288507
7.334477931,0.9973208706687853,1.3419947567365382,3.295123754512255,0.3167419794915199,0.3712146431727189,-0.1657535354934653
7.43447322,1.3488583305481048,1.3225694185148766,3.4392658550380646,0.15176282531623608,0.3774323178621396,-0.17092347702116198
7.534476575,1.5258827192296094,1.444652256357238,3.4437105155430925,-0.09239922674607949,0.36510646972943245,-0.17581686243023736
7.634478202,1.935365117157116,1.372248920818947,3.313084974166777,-0.32460264765441754,0.41148685000011126,-0.18082849010211352
7.73452169,2.292491437002159,1.2603869080140075,3.2459634582118317,-0.5923318588836253,0.39721498924089044,-0.18899192975280316
7.834483253,2.5109701166086515,0.9802736184271654,3.2071254608875006,-0.7376401486632972,0.3714919807663365,-0.18863063067609662
7.934475946,2.716827906635064,0.7475952498300978,3.3189219134035675,-1.053421648443619,0.38638366796577345,-0.1790560474880193
8.034483307,2.9049797655237914,0.508878614634006,3.2164152851713985,-1.0796565672593588,0.40339405764700376,-0.1917399474668719
8.134480675,2.939389424576796,0.18409963677304628,3.2150951196519872,-1.4697914917355668,0.38830611199058535,-0.19459195118652542
8.23447719,2.9992680996124963,-0.1741272606878665,3.182421804533461,-1.754233857383817,0.39878478052335564,-0.18624603544718402
8.334487294,2.9284712839824847,-0.5348105108431761,3.310691742469083,-1.8557820903065334,0.4255745333898077,-0.19377805169209297
8.434520455,2.84147625951676,-0.8566557370704824,3.1256543398457635,-2.14870485874682,0.41992646669341654,-0.1935408752194058
8.534478677,2.702361378687578,-0.9935156371675115,3.414255032411606,-2.348489180559125,0.41664179246673,-0.19441484472313048
8.634523181,2.431727011859964,-1.2202654278998142,3.236415792990195,-2.591104348510802,0.43569772097968484,-0.18280375886854575
8.734490785,2.1282525715340745,-1.387132669105184,3.303050034887807,-2.7755346666418204,0.4194085877937471,-0.18640119505865554
8.834493881,1.7808110181022012,-1.4140406080732284,3.1465913198449496,-2.910080228485822,0.3959414495160279,-0.18527586085210707
8.934525429,1.43254997287463,-1.602662612795729,3.1994481117822504,-3.3354205812288233,0.38889626659069937,-0.18985728283586772
9.034482251,1.1548901235770153,-1.4644411891727387,3.4110119654287283,-3.3189265359649287,0.3706016691676825,-0.18791189483299206
9.134477949,0.8404373125161088,-1.261306748316605,3.240302735898274,-3.561393210053063,0.3633699834734078,-0.1845634932294703
9.234473675,0.5601032648204952,-1.242068662515449,3.207341110417068,-3.9914130636165432,0.36495488819185695,-0.1913668009297119
9.334472548,0.3633447749684957,-0.8686260532779948,3.1198820137130694,-4.074608946698595,0.37360454337852694,-0.19356867861661778
9.434481943,0.2696981115798214,-0.7695556065934297,3.232601988141529,-4.394639013080598,0.4551472848472163,-0.11348984591420326
9.534474563,0.029458803467358963,-0.2762282186738731,3.445132229252635,-4.462640855106861,0.49391125587253,-0.006211812172838701
9.634473135,-0.079283014730325,-0.05107253761094605,3.557643832975027,-4.291093275321203,0.46140558546541965,0.07588692715555284
9.734480534,-0.19360938344799028,0.3921970667461251,3.6989377958613865,-4.106406536836415,0.34040571927761865,0.11731709067787363
9.834477328,-0.45336164299932713,0.5599976327947617,3.6479076342795222,-4.076319533251807,0.28913724701679916,0.1479979386790798
9.934475588,-0.6238696277472406,0.8235874743620384,3.6773807630063127,-3.885316138945638,0.25378513584165185,0.1772247178356364
10.034483415,-0.8015867055633606,1.1353879453706464,3.5516974402405213,-3.7579874148445542,0.22648997517919567,0.18594274930683002
10.134538746,-1.176116639417309,1.2767881330406667,3.3329855745498818,-3.428932073696195,0.24169834606040652,0.18147050989740354
10.23448037,-1.435850472257266,1.4365805936519578,3.3091255458541253,-3.2487996613378116,0.2951402599580189,0.17899978255293322
10.334483686,-1.9080351841857872,1.3064229722093155,3.0881172863233037,-3.1023578732960546,0.32608975553563807,0.17394763689667536
10.434476608,-2.225162144945323,1.2611251076024987,3.036042357794368,-2.7789953867671544,0.16524187517236624,0.22502900875677764
10.534478162,-2.3901105812903456,1.1474187040659378,2.8265881491007168,-2.4656476059255708,0.11305003292016076,0.3131494147002356
10.634482588000001,-2.665987925838327,0.9908308385272699,2.8816179465629146,-2.225179626320609,0.3957727373719257,0.20393599617833605
10.734476474000001,-2.8348642692724444,0.7435635390306509,2.8380741220065464,-1.9424665676927884,0.4710454238884474,0.1656258837792193
10.834472171,-2.815686719885673,0.3306419885797507,3.073338509674417,-1.819116930385633,0.46864197784594136,0.17138384318217587
10.934480776000001,-2.9403622739586837,0.09804879529423755,3.1543843871836015,-1.7561129164859857,0.3963409553195502,0.18592865566189962
11.034471899,-2.824523868302738,-0.21203014425225905,3.133350969845954,-1.4273955000814984,0.3592058152560359,0.20097236224799286
11.134478265,-2.7401833013815757,-0.47849714860085446,3.1920171941409983,-1.1568632993125099,0.36464629936242526,0.21778336271734028
11.234484703,-2.6279301868647753,-0.6652543043485015,3.1066248503696334,-0.949874819932651,0.356410006870373,0.21988028089792286
11.334485168,-2.3204654613084883,-1.0368944753831084,3.1189231128158044,-0.6389379652532983,0.38813088124192835,0.21804797151642236
11.434473249,-2.2243273765892018,-1.2562318428069887,3.029437760701169,-0.42595570280718986,0.4623408720450788,0.2187160071176903
11.534476502,-1.9070323768347475,-1.1487412658944554,3.191083416576494,-0.2663556078460319,0.44405554353095256,0.22068854994526718
11.634475083,-1.4333714189581195,-1.4096155004749522,3.2423840099628074,-0.08441552857477064,0.43873710778074954,0.2237466196946363
11.734545349,-1.260116447929398,-1.4569065693027576,3.1606182287669036,0.15279742602329052,0.43394431944012035,0.2139608213994956
11.834519975,-1.0036293133704237,-1.3123030372282967,3.219961664685477,0.5292421635341752,0.42566167305585884,0.20793699953964276
11.934514243,-0.6790058470304501,-1.0356916037925614,3.2866871355001734,0.6732317178747411,0.4038423789134344,0.20192874073941489
12.034471953,-0.5512368013130943,-0.864823270574464,3.266146752806269,0.8843511782062825,0.43357291955022703,0.19866565940751202
12.134472996,-0.18494896295139063,-0.6829133340046855,3.450106986534739,1.0455236845982665,0.43014803627645526,0.15517056568286133
12.234474702,-0.13454677163092316,-0.25832005121868706,3.2303215754100325,1.3229608714979844,0.45550975399970245,0.05865877398266535
12.334480204,-0.11693658138355642,0.06131500694661908,3.4412266759296113,1.257315613810847,0.4679604546131549,-0.04590601158463427
12.434481004,0.04667414976941964,0.31930388667510906,3.5715507325221405,1.086263100474228,0.4254254766835094,-0.11376208745271295
12.534483336000001,0.3229451939396926,0.6790533518259666,3.487124383200675,0.959704627284429,0.363159615888079,-0.14560467551579276
12.634489378,0.44752633144042,0.9035342352311404,3.6399104231475463,0.9069579939523043,0.3368601139182253,-0.16263946603184942
12.734464667,0.8132676085602664,1.2055136140562939,3.2905949432056127,0.5742421212420734,0.33093558512558674,-0.174800801655963
12.834478723,1.1760511193994387,1.3881066094437446,3.316821499487418,0.20634521363688668,0.3298117783063814,-0.1671987725218649
12.934474438,1.4439283497161342,1.5493813084230905,3.252542377170205,0.055147228042479374,0.3494862040072689,-0.17579997539844078
13.034476505,1.707132136431764,1.2219919160880157,3.314940362065932,-0.06259776975249579,0.3697059878812417,-0.18205777623527794
13.134478373,1.9630300639148885,1.3024405294549324,3.291504129001857,-0.27269382646379275,0.3592859621325835,-0.18559241303279103
13.234470919,2.414102791852831,1.264013769228367,3.242801841942526,-0.5428989709562541,0.3738432775277913,-0.1926806316271995
13.334472586,2.6199034850086647,1.013390372368473,3.249378140299094,-0.7865206516694478,0.3989182835863199,-0.19532954064140373
13.434490623,2.889972839955347,0.8521090794168291,3.226826328052431,-0.8960474895973313,0.39476392214367917,-0.19469548560897845
13.534474661,3.030983150093357,0.5809124051704984,3.1539626489029544,-1.2610423651677085,0.3972155615761954,-0.1986019594223619
13.634480094,3.0969532430519098,0.2166875316442161,3.3438882461488664,-1.4292069740856927,0.42664732749112066,-0.19890944985280043
13.734478713,2.9890998943418947,-0.13473893346134985,3.206442192517315,-1.7076765702418633,0.4213539558812363,-0.18460465140099247
13.834475583,3.111389207024332,-0.43244043257322645,3.2040785525413416,-1.91924657703185,0.41709532379887354,-0.19364828192639785
13.93448216,2.992689838896665,-0.858041212159872,3.199355907834747,-2.1718450820651256,0.43233680770820837,-0.20142590593521204
14.034502681,2.8354376249180557,-1.0381016077525933,3.260570764333282,-2.264184416538184,0.4189570765049604,-0.19868893348893887
14.134472667,2.511293605950542,-1.2135270778253429,3.2515916397270814,-2.5031700747223473,0.4222928674568084,-0.19109282699996832
14.234480408,2.1757938373828045,-1.3251623399328525,3.388821041008746,-2.6983468708102487,0.44725141542138014,-0.1913222236325688
14.334487961,1.8895114504369064,-1.428162946290434,3.352983039348168,-3.0000735921229946,0.40807892554128533,-0.18762737138349606
14.434485411,1.562167818706748,-1.540157881718632,3.2525155917438195,-3.261567602744906,0.396889068128848,-0.18552445758775316
14.534478846,1.2762592245976938,-1.4095417323326007,3.334736259796957,-3.536837913804101,0.39344557025148885,-0.18845471322706514
14.634481064,1.081991231059016,-1.3919278586940182,3.022152137616975,-3.7122263916572,0.1314540418837361,-0.2640369803257593
14.734482311,0.8404407619079829,-1.1644216760291952,2.788790249742525,-3.8718759756257595,0.3161820269864351,-0.22647227887964427
14.834478859,0.5034255748987744,-0.9715440225720962,2.8183841522930155,-4.299314127096229,0.4993164558025704,-0.16457701640738254
14.934482462,0.5247514078204775,-0.7483859273967959,2.8459738360779956,-4.530133102972945,0.6509046070899552,-0.05944622053195882
15.034482213,0.4176867347255673,-0.4172149202179957,3.268397120663325,-4.564242259857184,0.6317927386339834,0.050316567402645354
15.134488897,0.41761646996218194,0.09970683096218885,3.483090150005038,-4.667927876479615,0.5475921080644657,0.1476179302147116
15.234476822,0.4064203062358943,0.27319926754697255,3.876221212225063,-4.619482753225066,0.3998482242223076,0.22090796028590204
15.334478697,0.33623551375176164,0.6586814209954215,3.6414011280146035,-4.5106808656344946,0.2588124805752605,0.26992698482983446
15.43447635,0.15833324987564376,0.9595870006742029,3.696408065181136,-4.209977204554131,0.213368926672887,0.27904945934677305
15.534484325,-0.17397343945113558,1.1761961874879592,3.581636021923251,-3.8538926676505905,0.2292129394814095,0.2659611237125875
15.634474358,-0.3114063995695025,1.5346344472996385,3.2480475025786943,-3.595474433536235,0.31900340367779534,0.23742054393022088
15.734482664,-0.6977723218335143,1.6053505657676226,2.938793412160496,-3.2816597278383606,0.4652982645469606,0.2047333744469969
15.834494483,-0.9608406185830106,1.6108282655037802,2.8418564551482786,-3.0553130915943876,0.5562538803352285,0.2090230951279966
15.934484558,-1.205574553010079,1.7104743102353204,3.0778748306757624,-3.0011348170354117,0.5483187373546965,0.20987443797498576
16.034538276,-1.3749882648236222,1.5419860752876293,3.2970681739770034,-2.9219522130354156,0.5033991668883208,0.2178341734889114
16.134484812,-1.728313227248679,1.1476236855661968,3.2758478729084706,-2.484945147077015,0.41096868164546346,0.22486253050324845
16.23447336,-2.0228747739931747,1.0649942993802672,3.3145995378619464,-2.274887828062459,0.36043284882757753,0.21649472241320258
