time (sec),x position (m),y position (m),forward velocity (m/s),"heading angle (rad), from x-axis, positive is CCW",throttle (unitless; -1 to 1),steering angle (unitless; -1 to 1)
0.136878845,-1.6016674173291927,-1.7657654002418148,0.029802395588040383,0.010060530529437235,0.75,0.5160742793357436
0.23689732900000002,-1.5898494351725636,-1.7263953714042024,0.005560809096264091,-0.07099065609763974,0.75,0.13880083622258169
0.336873914,-1.5878549624824554,-1.787276982272162,0.06534016234316485,-0.03650192093003255,0.75,0.1685847011608632
0.436954877,-1.4905083149592069,-1.7536497433397358,0.7803555194523466,-0.05298361413807023,0.75,0.2510069976128436
0.536880759,-1.4368583896407654,-1.7776967189187296,1.553350830595357,0.1697748466758507,0.75,0.3165614584489661
0.6368928300000001,-1.2814889793090793,-1.6305299703280167,2.2471266722073557,0.42091605897039097,0.75,0.33246145747434436
0.736861995,-1.0022813476453063,-1.5341851021303408,2.773631098555773,0.8063726702397378,0.75,0.2889351536721197
0.83687568,-0.8243484979433346,-1.2580024824334608,2.9400410545739537,1.023335801207768,0.5955917221876738,0.24266276214183305
0.9368817150000001,-0.7427146188976796,-1.0390446818378845,3.1161337655189882,1.165674450745231,0.541392577509029,0.09234264223927999
1.036872434,-0.5811973266208303,-0.6945695096523877,3.401047570961378,1.2687873087747348,0.5906928233319911,-0.040417852805582216
1.136884484,-0.4655902180550952,-0.3723733477505343,3.483425809615644,1.2089144736572934,0.47030482957274866,-0.12329015072842282
1.236873717,-0.36036465505494797,-0.07185956684667477,3.51213507179357,0.9896481643975805,0.39090719109106253,-0.17305901980782637
1.336871365,-0.13682127882855505,0.25028788976402133,3.4672044980065357,0.7804415214897762,0.3600111303153357,-0.1791379394716279
1.436878602,0.1406330079212565,0.47747247087717765,3.4879193520712373,0.5729983066311495,0.35961572195362107,-0.18678976896605773
1.53687344,0.40624460666321965,0.6591556533668592,3.3581046053692942,0.35722544684242447,0.3499324782274692,-0.18031543260831787
1.636877728,0.6814966268428287,0.7370092367798907,3.41958933855414,0.18960019352867646,0.3497134410220364,-0.17055066623636808
1.736872345,1.0613444507553584,0.7311019342108798,3.3253063899909425,0.04227318193107724,0.3398886673492725,-0.16716512724303667
1.8368686840000001,1.4248721397752142,0.7410234740823078,3.247364518586247,-0.19503689915565692,0.30195760109790754,-0.18106782306342184
1.936895408,1.6830161365798988,0.6768219167467914,3.224801948772425,-0.39186089360578863,0.2849276772777908,-0.18142742877432
2.036869422,1.9489296400661296,0.49305262186472437,3.146406821495084,-0.6465717991912621,0.2934529864622845,-0.19161041517106886
2.136868259,2.201293516708691,0.26403351227442934,3.06449163584481,-0.9061997454351911,0.2589391642125765,-0.19508898167012467
2.236869504,2.35110964309981,-0.0035639292335791356,2.9969643281784872,-1.1541926291801052,0.2522387704753689,-0.19985340739300722
2.336868715,2.492318535365774,-0.2094661785366322,2.9760460999523883,-1.2813710151934823,0.28348715278815834,-0.21602043909646068
2.436871437,2.483692148105334,-0.48036050236389055,2.820207153247839,-1.5435825363612588,0.26779417638261127,-0.22624489478444468
2.5368696660000003,2.5104804737841593,-0.7958731314655438,2.7859950361876775,-1.7454492974356521,0.29568639052783624,-0.23019007047915854
2.636888214,2.3748680722268,-1.0375351775540524,2.759059518309298,-2.0216187063771516,0.341123971004844,-0.23817191259846698
2.736887854,2.287554053333641,-1.2794747020521582,2.829139219458896,-2.2836703072547397,0.3546139442784282,-0.23375475772592377
2.836890166,2.076168403956982,-1.455444791565934,2.893302336616878,-2.529444299410667,0.3722881142532982,-0.23898281487458115
2.936872039,1.779234074446345,-1.5551985198777427,2.92169911620333,-2.6661511481107354,0.3823056199154361,-0.2374819729738155
3.036877382,1.5034540155280691,-1.6428267630620812,2.934951764149392,-2.9982894465378447,0.39724667748415693,-0.23348674746242046
3.136870645,1.2191665115634558,-1.7330534697952742,2.951610698287288,-3.2424935129473607,0.39871180917143095,-0.22678050416648896
3.236871895,0.9481086349652977,-1.6097609128845607,3.0053036094167362,-3.48166415872229,0.4060613205047289,-0.21148981719272297
3.336902125,0.6521871841086956,-1.5153642263081706,3.0215084143344053,-3.6869214784563877,0.40453237049880886,-0.21030548219527792
3.436880545,0.4202797511379713,-1.2961379742541745,3.071832228105408,-3.9877776647097463,0.38063357627238764,-0.20934202867957408
3.5368589850000003,0.18816454220588086,-1.043006418416642,3.0877281335870768,-4.142122996475626,0.3907978141052433,-0.19682461455968508
3.63687851,0.09890447432821695,-0.8710698791129615,3.190018716919706,-4.2593004429528705,0.4051083506030992,-0.13811585870299778
3.7368363870000003,-0.03938073537829334,-0.495423278912043,3.30086578127341,-4.406900970195752,0.4184813145077633,-0.02175306645932661
3.836889053,-0.13538193791904166,-0.2130359894817705,3.4265278421863403,-4.354179179544198,0.3630096421515041,0.07785287270934564
3.936887737,-0.24266184223814424,0.10214046626559954,3.5311989713714462,-4.272878200939831,0.3237727439478914,0.14001434014973824
4.036885863,-0.4679043641906459,0.42330858342588157,3.445960106041118,-4.05483857136737,0.26307654858114066,0.173895387051451
4.136870875,-0.6322931192557024,0.706677866369247,3.3053698951436195,-3.81525673564294,0.22406868385355794,0.18561225598925035
4.236868928,-0.8899987379056752,0.8728179366217822,3.1391621102635177,-3.558283292066764,0.27070187018513814,0.16884095962532014
4.336871762,-1.202614460248322,0.9806233486082482,3.114014633328883,-3.328283921511055,0.2933330563982769,0.17060777829765345
4.436869261,-1.518055370196471,1.0260813570319065,3.056688347222281,-3.1596034421769885,0.31527520357797456,0.16984394836298816
4.536869246,-1.8706338224454004,1.013856311751078,3.0758620740482168,-2.9222664848476385,0.3480886454761938,0.1782404622758287
4.636871024,-2.1317837645274125,0.9030148857751806,3.0861327718425584,-2.766016311830097,0.3094415535255374,0.17985281118771654
4.736872373,-2.3309833858439646,0.8284497417101524,2.9744052210877334,-2.462267407564966,0.28739007806244526,0.17993600971126722
4.836886818,-2.6587331492105,0.5622676359329949,2.9177333465182325,-2.2396026539650884,0.2932709578034989,0.18099639328479247
4.936876615,-2.773916504908518,0.32333262875501506,2.910387494185698,-2.1032201716596335,0.28931692275658666,0.1970643924255681
5.036868766,-2.930680923520335,0.08395753329110545,2.9376754083037877,-1.8337716334135672,0.28806512319873084,0.20310817876480802
5.136871863,-2.9724403895241998,-0.24146079108178123,2.827272435184242,-1.565866328729321,0.33484487304104027,0.20938679172535085
5.236873698,-2.905784393779665,-0.4984796726285528,2.853855734666342,-1.3258007826270375,0.3131218707954956,0.2073169905429246
5.336884967,-2.822585655195031,-0.7257236911072301,2.810771994780264,-1.097300732296116,0.33154529475247946,0.21174534845970386
5.436893407,-2.6644636056364672,-1.0144476949328778,2.8219658442787066,-0.9250134865997233,0.3604469784427421,0.20380240537567318
5.536875369,-2.469086268280668,-1.2025270369275778,2.8303220498045665,-0.6662573443767533,0.39835448654309463,0.21613896705601218
5.636875504,-2.2163122924489826,-1.3023998376469414,2.933629968457114,-0.44152619230749146,0.3971849160651274,0.21816718922259165
5.736872637,-1.933800238927879,-1.4305189790061215,3.0339359751265786,-0.1112182139630569,0.42022969143560224,0.2017167960305211
5.836891092,-1.6508673056565693,-1.480698143814422,3.036550938924548,0.0686774664080769,0.4160987061211576,0.20648621569041847
5.936876771,-1.2810727330255784,-1.3958094983127567,3.06079408496355,0.3022713835295335,0.4031632158242597,0.2028640327695948
6.036873629,-1.0717022822017819,-1.2895532013434008,3.101085535351417,0.5410645127259122,0.39160392825127843,0.19286197982400957
6.136871612,-0.7848501669013044,-1.0777838954542887,3.099593393427026,0.7517219237410464,0.3890687605376412,0.18939846666032117
6.236892743,-0.6056105273035953,-0.9154594560110029,3.1262348683071473,1.0193652485408706,0.36369154511355256,0.1815996190310491
6.336879672,-0.40864209476318736,-0.6215027757217138,3.120087719837793,1.1782120240455054,0.3758243163105923,0.146181462713024
6.436877679,-0.3149533646657421,-0.3557325484321344,3.1345121931862856,1.3064503663983262,0.4021947271279543,0.05025108487762471
6.53687957,-0.18453597848580672,-0.01020538744796523,3.2797425584160576,1.3030370300817395,0.3884416499807728,-0.062479876292024346
6.6368786029999995,-0.13030002787988976,0.36438087917309137,3.364706744248701,1.205714738021548,0.3573519734160012,-0.13346470705408925
6.736881549,0.0026709786676739535,0.5748022857004288,3.3147606891155266,1.0823651619402903,0.3377448175750852,-0.18269157991644322
6.836921257,0.14853674433010422,0.828109436049168,3.263675043969569,0.7969738179649718,0.31720789418479883,-0.19857833035671857
6.936873221,0.5021367203930995,1.1208075049143964,3.2049105937452675,0.6104104095655629,0.3399444905015106,-0.19446625068803894
7.036898935,0.7194013086962313,1.2797884151607017,3.1903482855506207,0.37425720660816997,0.36701140070021343,-0.20152139634863084
7.136870699,1.062305931827801,1.3174738111714182,3.2012959721769247,0.17441880473330612,0.36443754645708637,-0.19731066119614268
7.236934152,1.3613230592184697,1.3554865529384954,3.1528400937915766,-0.05970517429705242,0.3679833377119254,-0.1941638169969389
7.336872952,1.7213830349742738,1.3340969647940262,3.18953360947004,-0.28180362993841546,0.3767948013260515,-0.19439947592916604
7.436874474,1.9653706585902488,1.2059756262981525,3.247914848364389,-0.46014855731983173,0.34490998553448987,-0.1964365133877792
7.536872387,2.203761979785085,1.0741519737151959,3.15626341065726,-0.6273343072512941,0.33080426925476686,-0.1958019228042393
7.636873543,2.4622154539814605,0.8797426416070779,3.171433174965005,-0.8766978599566588,0.34350612697783656,-0.20542810831113512
7.736870454,2.614800530411177,0.5937819554150374,3.1614256398119824,-1.1053545073230835,0.317720301771452,-0.20937163759031852
7.836869746,2.7420138693792366,0.2686892814435492,3.0928173445364826,-1.345946846526311,0.3003028704468596,-0.20882952014584763
7.936873,2.780158750798158,0.04419206744221533,3.0267416404848277,-1.5702285231443303,0.3175354270209561,-0.22118908741444274
8.036874169,2.779957280699767,-0.26986819648584254,2.999678215555616,-1.7973020992957638,0.3352119607642566,-0.2216625376740037
8.136891492,2.6985894518375866,-0.5976851558957644,2.9741537910672387,-1.9938681898727628,0.33628185492279145,-0.22470553728101325
8.236876926,2.533485576496237,-0.8311994025048058,2.9658911026941306,-2.272679230461127,0.40684865065717235,-0.22663024996766784
8.336923994,2.3112665976018243,-1.0104670665980944,3.003408090193567,-2.470407375744283,0.3885855842684767,-0.22543905722133623
8.436886889,2.1076107545059766,-1.1385933591920199,3.0768331669832665,-2.7000115645454557,0.37123759271355594,-0.22185005696297388
8.536871046,1.7945850892493702,-1.2972691119353652,3.0393835253808534,-2.8802751384886385,0.36144390997631587,-0.22944152195810505
8.636898492,1.4780498339029264,-1.3564336508793802,3.0168175142850973,-3.1288853650695563,0.3746217247523319,-0.22890177729351033
8.736874411,1.1915941118949371,-1.346050543062522,3.0608181861053048,-3.4493205859113067,0.3467905760040866,-0.22110687292813003
8.836873713,0.9017761595664411,-1.2486610799316091,3.0684384278706536,-3.662736737753295,0.3464039333955614,-0.22183712712899428
8.93687444,0.6737509228134034,-1.0592270846047138,3.045949107589898,-3.878959022378032,0.34561260822390016,-0.2240660456611092
9.036874782,0.45988519905898884,-0.8034326049636504,3.0000966894236902,-4.058066555988366,0.3548946380521656,-0.21089469164421998
9.136889796,0.2651557274998303,-0.5673397698051605,3.0262518951310766,-4.2979474076129245,0.3726701342102625,-0.1583258280288393
9.236892241,0.16986741934423885,-0.2689612314957518,3.170910951143961,-4.40437274638857,0.4464242820580001,-0.01855128014737107
9.336875737,0.05852255073720573,0.05817520418354875,3.4036471720638697,-4.33626519279705,0.3926316945201086,0.08568677178350637
9.436875467,-0.051592927430389506,0.3060896379892185,3.3837262211812864,-4.1844636014152545,0.3517811208364695,0.14498173944192452
9.536940075,-0.2584337060740443,0.6710068643824951,3.367632426465198,-4.032259483680677,0.2794618928363846,0.16826033309121433
9.636886716,-0.48974656651355497,0.917766036177822,3.331584623631243,-3.8020878270664142,0.2582191829600672,0.16659433932977588
9.736882843,-0.8234361969756318,1.0043154503463314,3.252929334059025,-3.584196345215754,0.2863237755158463,0.17289362509124398
9.836885454,-1.0162577655415646,1.151914067617053,3.1562695955350897,-3.357117621268362,0.3232704765997618,0.1696571261272689
9.93687268,-1.395546043862913,1.173298831900417,3.0465295229965568,-3.064173952414131,0.33514969670552475,0.16358909768941934
10.036896296,-1.7199059703246684,1.1333974447457944,3.042875563028514,-2.8958685403217053,0.3305531466259466,0.1689869577782371
10.136887281,-1.958067315024563,1.0269553726436222,3.07336020363954,-2.712300742516188,0.34221566103813483,0.17166346477290767
10.236880773,-2.249268634254836,0.8532287461383217,3.0292210757560216,-2.463279026605775,0.3018975106883144,0.1682130978884051
10.336874402,-2.482615238512343,0.7134706950246453,3.0644578453809626,-2.292910916542027,0.3017732278217717,0.17355525350993148
10.436876314,-2.6480239208980114,0.47570325290720805,3.0247373329673493,-2.053798375107517,0.30574994750628126,0.18299228531333978
10.536895842,-2.7236614852582224,0.17751073213340812,2.9920717237932606,-1.7832268783854723,0.28939732730975226,0.18695124111604486
10.63686873,-2.7885132773623016,-0.11030521517024743,2.9642485760637576,-1.594173176592346,0.28337628984921875,0.19230103666353118
10.736884598,-2.7298966683785992,-0.40410654629560655,2.9241202276914673,-1.3810412153772422,0.3095775908595137,0.20414529931821368
10.836869453,-2.6856014284062697,-0.7333512969944849,2.8177583405665656,-1.0869717229853817,0.3217987095946605,0.20815268000662746
10.936890497,-2.4787620089915947,-0.9063882423554562,2.7549082388334374,-0.9210335461050027,0.34660794039112724,0.21292162966883418
11.036873397,-2.3533436287630747,-1.0767075327198674,2.8459344390625643,-0.731780437981046,0.3703086002023986,0.2079431245282933
11.13686995,-2.1067719358466532,-1.2383471917400302,2.933321810929756,-0.372067272273649,0.3963366147220474,0.21622724426772372
11.236879109,-1.8224198277814208,-1.405983503558105,2.923640192497922,-0.2266199330955579,0.3938095174123913,0.2123668084283598
11.336884367,-1.5286437811519014,-1.3899745825761813,3.032826822678861,0.042601281942300874,0.4064879406067039,0.19918183117080063
11.436892701,-1.205129469787277,-1.3911938172430507,3.0569588730037522,0.3248836547653943,0.4029380024078953,0.20118448929450106
11.536874334,-0.9440963596373364,-1.2144301471467576,3.038885187530285,0.5162101412794705,0.38311730494436796,0.19386879578441837
11.636876767,-0.7469124163512709,-1.0306588269216919,3.056038648376699,0.7008090123606531,0.37679203714057896,0.18770504216206796
11.73688026,-0.5044831809423951,-0.8090452524179099,3.073408274707039,0.9354795556741063,0.37597852312185354,0.1865481498896745
11.836873481,-0.3391022044606099,-0.5476297279657351,3.0501323887890157,1.1503113592382002,0.37122326105868403,0.15261208532844306
11.936872228,-0.22886865241221946,-0.25971596109924683,3.1534191385541472,1.3631648219787273,0.3756181083517192,0.054449888112766465
12.036899734,-0.1591368277343732,0.04826359773201624,3.239358758876726,1.3287160022056914,0.41777222857192026,-0.07544297066297195
12.136880064,-0.0894161390269306,0.3764066743142094,3.275125954708484,1.3016030069590507,0.3552383209893414,-0.14731189274992923
12.236874537,0.03778004912322273,0.6530799495228273,3.2838628411892503,1.0982758436812197,0.3276142391503005,-0.21204211818337235
12.336881374,0.22124509877836762,0.9340218368971434,3.1781383293921093,0.8756682288042001,0.3447904903933532,-0.20731653911572367
12.43687603,0.43428286733121885,1.11308727943277,3.1477687216873456,0.6270896841656882,0.3597210729616514,-0.20553170834080678
12.536889256,0.6802837765643254,1.3068271869940546,3.1729838604229754,0.3887704617794192,0.37532631911287484,-0.1882106289888334
12.636886957,1.0169239058667963,1.4024413334271746,3.1704512447476905,0.21773908702731085,0.39012833306256517,-0.18677406978319322
12.736888209,1.3696574796070657,1.4417669946860805,3.2115828688726706,0.01799224958582852,0.39727930426188934,-0.1942794081634031
12.836870197,1.661374023688079,1.424767894280122,3.2191269892737018,-0.2721209499375612,0.36678545526838496,-0.19382099889792742
12.936871445,1.982995598522549,1.3179701176550378,3.178688496870307,-0.46159602437343406,0.4023578620809857,-0.1995153497024749
13.036886178,2.2121729211946226,1.0824331235581819,3.1318472037720384,-0.7068039174608862,0.3470395726113987,-0.19972735416476414
13.136871917,2.4457008293070603,0.9087592481585917,3.1982454160693936,-0.8757151876217707,0.3128907382899804,-0.19881706754013695
13.236869925,2.6511014230394316,0.6380159600301778,3.165149033560704,-1.1355407927160117,0.3133626037554895,-0.20348666838844043
13.336873828,2.740891518929604,0.3810619042626508,3.0532160511593687,-1.373889519971279,0.32138884327364003,-0.21014301622253642
13.436868528,2.7848176239791833,-0.010526909506679755,3.0378721526875876,-1.55668825293203,0.31134673391782663,-0.21314238731389498
13.536872831,2.7344412334207613,-0.2506933932148917,2.9916657056467333,-1.7235146927582168,0.33117162455825944,-0.20693005190790037
13.636874941,2.641413093284291,-0.49741743627392343,2.994160057172891,-2.0167308547244667,0.36259092627670964,-0.21888231928395288
13.736868893,2.558476758136532,-0.7996614189550643,2.970903656852099,-2.296815763883067,0.3640446455607122,-0.2215514288766422
13.836893117,2.324120632804303,-0.9453606537111757,3.0436809368319544,-2.469514955950633,0.4226133005517792,-0.2197718005825465
13.93687206,2.016237651443023,-1.1823810442559817,3.0705744212398205,-2.744395731453195,0.39996302376050874,-0.2209318662245899
14.036871473,1.747451256530459,-1.269995166796879,3.007667349328571,-2.9503264580796897,0.3629207385149466,-0.21981323599172817
14.136869532,1.4148232902242328,-1.2742870999352853,3.0204479516684497,-3.1843603741776407,0.3457996803367733,-0.21288820048348508
14.23687014,1.1368382575222675,-1.261451701547268,3.0308617554709527,-3.3776729152138736,0.3698344919284624,-1.0
14.336885168,0.981901991487565,-1.1054519745256988,2.9541278889979474,-3.7118223743973306,0.34885097666623205,-0.21192753253447214
14.436871555,0.6678750384401458,-0.9186252064412094,2.991258276977679,-3.9290313101450574,0.34503813588879356,-0.19017418928434116
14.536871746,0.546742319000019,-0.671578635233942,2.9511053214904215,-4.099638490658149,0.37263693344498233,-0.20196394557240385
14.636858651,0.29643914572855584,-0.4118975201032684,3.120734000379866,-4.279172400028167,0.383846828627791,-0.1205534963887417
14.736896232,0.16236044427045704,-0.18120452665561054,3.213665107812544,-4.312591513870159,0.3929884431268259,-0.018103765871913476
14.836886497,0.022000329163908976,0.19946314394686276,3.404552078174719,-4.263809994264606,0.3923020214167618,0.07304554527038076
14.936881091,-0.10230829998614822,0.440057066092494,3.390713097349062,-4.160998216402864,0.313601587883008,0.12456149182840906
15.036875111,-0.2866666671798138,0.6683194358336974,3.4374921440103288,-4.072464959694976,0.2677217006439083,0.1615760004877122
15.136870495,-0.549314399327115,0.9506316501814297,3.423439725674295,-3.778196543706808,0.24731568197843576,0.17424949455580008
15.236878504,-0.6913745080719098,1.169880587844848,3.341522613492835,-3.572714735128556,0.2614504426898217,0.18881207377112078
15.336870623,-1.1423882615440792,1.2733181093219623,3.1388378146872022,-3.3447938186715898,0.283629840453993,0.17493680128912611
15.436869065,-1.4314625476634544,1.2409476501974226,3.1213861574699666,-3.106155899807012,0.35512476386623965,0.16998467671417436
