time (sec),x position (m),y position (m),forward velocity (m/s),"heading angle (rad), from x-axis, positive is CCW",throttle (unitless; -1 to 1),steering angle (unitless; -1 to 1)
0.13976707800000002,2.9627912862440504,-0.036802369665066136,0.12133601468876601,-2.1254524030484316,0.65,-0.05693353831521894
0.17975211100000002,2.9574422239415576,-0.04513636794185851,0.31254576753581437,-2.1295009252883186,0.47438033067251273,0.10285396903470437
0.21972153400000002,2.9482194238167483,-0.06116470763180045,0.5345656783037275,-2.1198679008930736,0.65,0.09226705366647606
0.25972352400000004,2.934767832486241,-0.08372924955743262,0.7268607388948591,-2.112606477566588,0.65,0.08855297295463843
0.299678596,2.9168591025386372,-0.11416826171195375,0.9136536477435028,-2.103824881716753,0.65,0.0666990554877475
0.33979557200000005,2.911860384552158,-0.12305260679404527,1.019405557401148,-2.0997327360189146,0.65,0.03421205227090896
0.379667115,2.8688204707970995,-0.19813047348851726,1.404075790100265,-2.0819949701542777,0.65,0.002770082710562989
0.419667579,2.838249319309412,-0.2512673963694865,1.6298191677747964,-2.0813864044919494,0.65,-0.028596132796630397
0.459669855,2.8025766512340473,-0.3128742091298388,1.8754060124925158,-2.085126681971131,0.65,-0.05742532863167192
0.49966958200000006,2.762020053326075,-0.3813942610592133,2.0789391528398795,-2.0992963546113255,0.65,-0.08625230671725867
0.5396697930000001,2.715125396097264,-0.4564252988928949,2.2798145841126436,-2.13002428642792,0.65,-0.11538269675248206
0.579671064,2.6615606868044526,-0.5365405400927213,2.4933715889007866,-2.1662265626890167,0.65,-0.13851924281885097
0.6197402000000001,2.5997053236522643,-0.6193367221274524,2.6320497729668624,-2.211870314339839,0.65,-0.15960959984439244
0.659666812,2.5291000883865427,-0.7037306447781867,2.8070094961042926,-2.2621726206339843,0.65,-0.17535050438747649
0.699720164,2.4508284230211186,-0.7884177640181961,2.933487326217269,-2.3143485407401965,0.6184737049070267,-0.18922772916430133
0.7396706820000001,2.364768620427222,-0.8710264560226129,3.0024272921778845,-2.3733476933096798,0.5725215032137866,-0.1908993104659774
0.779664718,2.2720542332336335,-0.9504566103082671,3.086935075482668,-2.434622394875173,0.49247706548348374,-0.2034805661156066
0.8196661660000001,2.1730107983393054,-1.025141180702297,3.1151355168998034,-2.5058691251338465,0.44162470838971146,-0.21626200246913765
0.8596650920000001,2.06837567974908,-1.093375990457897,3.127692186945047,-2.5853585676927366,0.42396443685440094,-0.22691356594952264
0.899670422,1.95858327861431,-1.1538073394372586,3.134623329129691,-2.6688839483655764,0.3745012065516592,-0.23313362264808596
0.939666777,1.8441738709098598,-1.2053021292993447,3.1381947055591564,-2.7606713887335212,0.35089383752161185,-0.24070449966857532
0.979662883,1.7265233805038442,-1.2469285365438516,3.1230082795816765,-2.857031617967848,0.34562426727947193,-0.24606418854299975
1.019664513,1.606293668378243,-1.27761024483345,3.1007551665569704,-2.9552017552498135,0.35529814032236323,-0.2500969298990785
1.059667166,1.4839028091716089,-1.2967255635969057,3.084379943218009,-3.0480673105247433,0.33893157586797684,-0.24898116677068677
1.099682262,1.361162741559211,-1.3048285944523537,3.0593586385046065,-3.1410217314250195,0.34611981536054587,-0.25194694611833723
1.139668729,1.2382958651131712,-1.3008626140157191,3.0772080512109468,3.04920396593288,0.37142153013470386,-0.2541891613214943
1.179671175,1.1166225571584492,-1.2856808085312728,3.0633854101607465,2.954715997623058,0.3942488421971415,-0.2518170342000845
1.219667444,0.9973206043871123,-1.2591376961733882,3.0528285607026366,2.8585315020692983,0.4118802164593271,-0.2556281418702796
1.259666246,0.8811405878670983,-1.2214592609643047,3.0585510617619662,2.7612940660869776,0.4289339295722486,-0.259042118456549
1.299683106,0.7686312348171599,-1.172874721529559,3.066736695444516,2.6613760116510963,0.4724788808592754,-0.2609310297307701
1.339671127,0.6605322564622226,-1.114144422420336,3.085133886811348,2.5623583897179367,0.48099210547379095,-0.252640262664561
1.379666631,0.5581720158402564,-1.0448480088539178,3.0894951318847506,2.466278808937356,0.4881465535660278,-0.25121109240958656
1.419666415,0.46195050131141085,-0.9661239878383493,3.114377606892866,2.371939392304919,0.5066240319411275,-0.24862474927794287
1.459668304,0.37326451025666135,-0.8780108486681109,3.132286461166335,2.2762120562810035,0.5335426424012464,-0.24560096740802104
1.49966725,0.29232844960587673,-0.7815701362239115,3.1441989085289466,2.182426426679193,0.5434576214644358,-0.21885784888189458
1.5396680520000001,0.2185846282410747,-0.6772375023389875,3.212075268629502,2.097886860594698,0.5644255665023837,-0.1799563457724693
1.579667241,0.15106802912652756,-0.5652447275967429,3.3207457173075547,2.031314719418728,0.5878106503449299,-0.14037421712228987
1.6196740630000002,0.103998022880195,-0.47702964420410165,3.3612796271156116,1.9995491871333835,0.6135525863289022,-0.1012421885275167
1.659684689,0.03071874925500893,-0.3214466313060958,3.483815300524575,1.9797734604295438,0.5654976248192753,-0.06201657730069336
1.699667554,-0.02559092187185395,-0.19142892581387244,3.5731513286632404,1.9851060607393585,0.534339713653176,-0.01951130028295131
1.7396713890000002,-0.08260803948038237,-0.058409025599103395,3.6425908029147185,1.9974509234642226,0.537622229614917,0.011783509016917866
1.779701765,-0.1417444473905032,0.07614893511187862,3.6891607501245796,2.0111935488886683,0.5080203741779036,0.03946817130759365
1.819676204,-0.2043361566437699,0.2109148843212109,3.7251661727183905,2.036848722421393,0.4236359384283172,0.052514592177601016
1.859666542,-0.27138458376920227,0.3447694139830934,3.7647022787104296,2.0712288671059698,0.3874440551372491,0.07162259009214844
1.89968792,-0.3436887069352036,0.47682251291059,3.7726080471669303,2.1097151946817254,0.36655126786037534,0.09101952758095651
1.939664038,-0.4213090852914864,0.605737513097222,3.741708581676392,2.155090605873595,0.32440106568111826,0.10263251276615865
1.97966711,-0.5049530714458372,0.7311200631233532,3.7557663692713676,2.2068989339073375,0.2855234135767695,0.11707969519379846
2.019684689,-0.5940847935245033,0.8517377456607755,3.742201293711991,2.264167527202867,0.2664111431922065,0.13131911029447133
2.059682479,-0.6889388155512485,0.9666390107556654,3.7163970270291737,2.330026875258808,0.27024397904997044,0.1440588807281667
2.099691945,-0.7902037396253546,1.074231945719981,3.6812558155920954,2.4049320030344687,0.23402759769040793,0.14951046345992375
2.13971614,-0.8430041516634297,1.1250190198521963,3.66444943459883,2.4470923653253998,0.21196487696098051,0.1601438741269284
2.179686857,-1.00987454306464,1.262918570946346,3.5683857172862528,2.581698183597666,0.2055472906204626,0.16917314167879083
2.21966979,-1.1273915416702236,1.3420889976545956,3.51302950473701,2.676822817289958,0.2144530072456694,0.17596447166574827
2.259773628,-1.2181812594965222,1.393636027366217,3.4608539872575195,2.750823586844816,0.19691894468876875,0.18988310338119482
2.299669355,-1.3732555753934854,1.4642680318559373,3.3789502505325157,2.8704582745354252,0.20085880979612156,0.17793977657246238
2.339664079,-1.4995479389114799,1.5069939432157224,3.310757529383204,2.9649719697294965,0.211754118511777,0.178613996551062
2.379666845,-1.6268679118294802,1.5368517282443062,3.2425097130292913,3.057611543819562,0.23825222423361425,0.18604435086873727
2.419687552,-1.7541548147890207,1.5541166611769868,3.1928735292232817,-3.1320709588737605,0.23901574050619548,0.18264253114805867
2.459666737,-1.8800853740247165,1.558613751173481,3.1253937405714454,-3.042355468446575,0.25609000511140023,0.18453499644645857
2.499668213,-2.0037678904265763,1.5508989653135943,3.066660140995469,-2.953671158698861,0.28648120355128687,0.18734821086148332
2.539668333,-2.1243960073675137,1.531357095866998,3.059532127800366,-2.862621146498164,0.31026449718704374,0.18808530596455886
2.579680644,-2.241318297524744,1.500680316630097,2.991085729989618,-2.7793586874706517,0.3238255559580195,0.19260225963336886
2.619734315,-2.354428526963992,1.4589684526345554,2.998738996925254,-2.7006097299900174,0.3487384754351743,0.1979755313819353
2.659691346,-2.436401847579005,1.421698771472932,2.987867544866384,-2.6371558371190877,0.3699505871551312,0.20233786296500836
2.699734825,-2.566568709868363,1.3466756052000128,3.0087773720322093,-2.5296278119216558,0.4039797303548632,0.2080623812925255
2.7396669080000002,-2.664156191339072,1.2763941745863698,2.99684343766566,-2.442244357119845,0.4049428923396262,0.21468752961868487
2.7796676380000003,-2.7559409080908672,1.1975201220192713,3.0203942028114366,-2.3554462192271792,0.4298008421078026,0.22560284974664868
2.819668661,-2.8399403500407985,1.1102177935929767,3.031787471288475,-2.2602452896920044,0.4487296957387376,0.2224073513103911
2.8596730480000003,-2.916681523113344,1.0157706561215314,3.028925817105176,-2.1643960608876114,0.45090187163002465,0.22160683097551157
2.899668889,-2.9848303931351396,0.914150132081213,3.0478879672005594,-2.0701371633391608,0.4503454878687004,0.22401031242066
2.939671719,-3.0435125695038097,0.8061106302295601,3.070362539376504,-1.9667304647088772,0.46687039832305116,0.22331138291618197
2.979668036,-3.0913063270486565,0.6926605292566684,3.076936248493076,-1.869976247837478,0.4919721079900003,0.22283981408670192
3.019671669,-3.129180712397122,0.5751057452648165,3.098225245747152,-1.7754309508156267,0.48953944100137287,0.22015648217070372
3.059679759,-3.1555610070848,0.4538661989205247,3.106939176793578,-1.6805827532078168,0.49662970819021385,0.21430960829106724
3.099661075,-3.1714073765817816,0.32977683309383937,3.139552929251275,-1.5927292595422877,0.5206095779956575,0.2101853126226235
3.139683589,-3.1763432688771465,0.20351115086118257,3.171406871141279,-1.5081615597882345,0.5246834812646805,0.20288294409521965
3.1796746320000002,-3.170925910020914,0.07625888851815052,3.1766763272782557,-1.4185380922517798,0.5264539867612048,0.2014223429308274
3.219721673,-3.1542332642147803,-0.05111830572730111,3.202412829780571,-1.3272783063305849,0.5317210084446762,0.20219418623129745
3.259672522,-3.1266277510631664,-0.17758593378659238,3.243740575581886,-1.2383201941559587,0.5336402581138034,0.20328503738280074
3.299665589,-3.0878052033016226,-0.3016348429489134,3.2646555193349855,-1.1497461346627487,0.5227476669597841,0.200444613462368
3.339664484,-3.0386536177103114,-0.42257068827010746,3.2626101334999387,-1.0665698245223219,0.5140080517909988,0.19744042663567288
3.37966826,-2.978587725646677,-0.5398339994522879,3.310191241791677,-0.9807986040341324,0.5096255813953303,0.19517528924042582
3.419666662,-2.9089622360781053,-0.6519937549241562,3.3030551368968846,-0.8912912287978382,0.49105204917079004,0.19181208186239435
3.459669628,-2.8297806378730592,-0.7573352541794831,3.3040947938349965,-0.8019641001714424,0.48102899559984913,0.19157371979447033
3.4996657300000003,-2.741443122015125,-0.8553488978818039,3.3043328463419654,-0.7143297369024374,0.4618642860375586,0.1908816224089088
3.53966898,-2.645341388724192,-0.9454489367281291,3.2922360405964985,-0.6315640258917216,0.4755184754400273,0.18901329042192228
3.579709561,-2.541664502804423,-1.026846272629771,3.3039036990881496,-0.5520288231926304,0.4412785963813358,0.18330215731570854
3.61967168,-2.431543331517526,-1.0993288889123853,3.294147176801206,-0.4732407287180268,0.42600428779611077,0.18323100577262252
3.659686324,-2.3161280941947995,-1.1619011933089103,3.2790593102263523,-0.39571407440466133,0.4276695784884777,0.1853282027354626
3.699669166,-2.1958498104538333,-1.2148203717380113,3.286932211963377,-0.31377677241757246,0.40513456523099617,0.1878692813074647
3.739665541,-2.072003926810267,-1.2570301139811502,3.2769792915753597,-0.23040018521079972,0.38676846126541703,0.19017779769997198
3.779669604,-1.9452623553389283,-1.2882781673295065,3.264878086429867,-0.1416679272538327,0.3817177867753181,0.1937332279284755
3.819673435,-1.8167311154241716,-1.3083363758490825,3.245317679156388,-0.053760837899205875,0.3793874933130241,0.19626761144227253
3.859689521,-1.6877459478739505,-1.317171424305528,3.2308986312620394,0.03599041565005468,0.3519963471048993,0.19792203116105558
3.899665399,-1.559401898056012,-1.3145452537136424,3.2150241853929584,0.12939209457375922,0.33886894740285856,0.19847755656033958
3.939667288,-1.4324599843032535,-1.3004157075685783,3.1772946749528863,0.2209557354309122,0.34061341163834397,0.20001910740801776
3.9796674110000003,-1.3087138199750372,-1.2750752185732572,3.149469551069933,0.31466989130173606,0.34408520486159266,0.19689244959170396
4.019687822,-1.1891035917854302,-1.238920989629405,3.1060096641571784,0.40765347491897025,0.3282862213229356,0.1982999389006539
4.059670603,-1.074117821385343,-1.1923460092715157,3.095794239708815,0.49588912974186716,0.33471030828563975,0.2013099328378924
4.099687351,-0.991742756008947,-1.150842531716286,3.0702789767509278,0.5638431528719808,0.3519567639351583,0.20399732771310586
4.13967163,-0.861605462567273,-1.0699141717864875,3.0630661445239133,0.6692565601143076,0.3693342558149262,0.20716833679142907
4.17975466,-0.7648150939949062,-0.9953038123498535,3.0580344138272215,0.7517478623413775,0.37449781748674477,0.20821885553122313
4.219666513,-0.675431551144159,-0.9122651011829314,3.059007938999281,0.8385134767521822,0.40090848634798415,0.21515115939064228
4.259765111,-0.5934052842862916,-0.821755187968657,3.069552828844988,0.9247595524096306,0.42407418014999704,0.21090868686598857
4.2997807869999995,-0.5191623123713165,-0.7244134722350986,3.071065857285598,1.015308994227899,0.46985037061496765,0.17790677829136062
4.339668816,-0.45168557249375746,-0.6200962631449644,3.1196773762944314,1.0890325666999359,0.5184706020715817,0.13008147637192707
4.379669962,-0.3897077931409021,-0.5091582215413449,3.1986077154212,1.1398511201188883,0.5694648385266085,0.0827841961133669
4.419670179,-0.3316460896127486,-0.39226064226478013,3.302110210951099,1.1648444530870448,0.5872598157795795,0.04128597955671481
4.459668604,-0.27588094325501444,-0.27046448882320234,3.384106075513837,1.170269780691024,0.5860854538950494,-0.0007635087245080885
4.499669072,-0.21955823681184453,-0.14448830478914187,3.4762528813272047,1.1689172085751824,0.5789932309696848,-0.03559524669515071
4.539669713,-0.161810138782994,-0.015544396487270446,3.553701967604149,1.1642744295495429,0.5681709054542639,-0.062036814316047025
4.579671747,-0.10159182670856706,0.11551636589253574,3.637185129203524,1.1546994343413104,0.507741489141823,-0.07534598330458822
4.619666961,-0.03885115803846126,0.2475629924122604,3.666032136948278,1.1367278801618554,0.46488444076226487,-0.09633609727919298
4.659761396,0.026803975602774328,0.3796594761180302,3.7018888942122716,1.1081749456560714,0.43370768604818993,-0.11692813878671271
4.699668931,0.0964956749150524,0.5108878930573113,3.725015474269447,1.07312285900757,0.40747372800413506,-0.13637547604123526
4.739671793,0.17094234318539,0.6395776394118734,3.7051448813837884,1.0258655380364397,0.3575905291128991,-0.14441782744719123
4.77971623,0.25124594537591544,0.7644461788817493,3.703110780282955,0.9696698474600147,0.31752778956457156,-0.16195376993085087
4.8196785470000005,0.33780172956106413,0.8841754800478228,3.6896920860550413,0.9030577892408459,0.29217509372256506,-0.17853344529593973
4.859681604,0.43057421119239914,0.9973697562806663,3.639854018087491,0.8295485824497509,0.2927684425431407,-0.19207008175790674
4.899737529,0.529915460502344,1.1027623428212536,3.584564895058869,0.7493377276896762,0.25316281431006626,-0.19868816599142272
4.939714761,0.6352463681488967,1.1991248963213583,3.5687584673509574,0.6618572893870381,0.23179370523952586,-0.20578744381488595
4.979684293,0.7463649375087452,1.2849220948839655,3.4888593865908475,0.5675790063801385,0.2341812557586031,-0.21181628590951698
5.019689113,0.8627336179079065,1.3592265128644452,3.4253064021300106,0.4748592014327856,0.2503184666381741,-0.21639479461932584
5.059668027,0.9832493910819916,1.4215768015632195,3.3629546354855635,0.38422119442334857,0.23772273435732721,-0.21704970161148285
5.099672236,1.1069385845577637,1.4708902239423138,3.3097325202426773,0.2930788536444763,0.2492593025939391,-0.2206563004742445
5.139673252,1.2323881280207585,1.5080562351831814,3.2523406514402433,0.20348605244834658,0.270574118247544,-0.22564266057717297
5.179671497,1.3591501249463356,1.532396011348159,3.228412839553836,0.11500070698274645,0.30883041575241055,-0.23909458982201878
5.219669845,1.485880191118248,1.544623525423136,3.177805063682228,0.018998544661784966,0.32244095467478784,-0.2422793603540117
5.259763527,1.612200023048261,1.5444918160768821,3.156201345233322,-0.07504654532907885,0.35179258756481874,-0.24623520828890574
5.299757809,1.736708198181368,1.5324398996564852,3.125102251977513,-0.1685362718047448,0.38332260403755714,-0.25017303637762967
5.33969209,1.8587059610850933,1.5084798914139572,3.116230081709271,-0.2661757976331301,0.4119667462880587,-0.2552739253923537
5.379667369,1.977792820458113,1.4728999556759053,3.0970343432717145,-0.3604997508904697,0.42690381793104104,-0.25584368917992323
5.419677603,2.093069906939359,1.4260218387144823,3.125776638415609,-0.4541656132880315,0.45837430077359537,-0.2562666680133324
5.459675984,2.2031886321040153,1.3684373734727238,3.1291308572109173,-0.5499399698709772,0.4944845615534516,-0.2544933904701319
5.499666902,2.308486559454847,1.3003251619964447,3.12926041634229,-0.6399076864019393,0.4975831698250036,-0.25152322667098237
5.539670742,2.407144354203904,1.2224148750579797,3.162612026520615,-0.7326859673974906,0.49704194847054656,-0.2522152771706469
5.579766704,2.498195616064137,1.135299326137953,3.168172752967597,-0.8293259551731021,0.5198280731096991,-0.25182035891437143
5.619754351,2.581903783583313,1.039446105310608,3.1912579855592975,-0.9260166338404406,0.5290463988463245,-0.25055459971479804
5.659667555,2.6570872809948334,0.9354676857823429,3.2193475809711636,-1.017112794779094,0.5110551104746144,-0.2485320503322514
5.699666874,2.7230069748939996,0.8250467849893736,3.2065913107516195,-1.109731046501552,0.5151366470229491,-0.2454713479005717
5.739765019,2.7790127093125294,0.7081907437645062,3.2380935289827173,-1.2049523853243889,0.5241421659579377,-0.24216785350048003
5.7796685750000005,2.824255882897904,0.5864341175194245,3.255336067607911,-1.3018910794465055,0.5005377082926428,-0.24043389673438145
5.819669775,2.858385269425897,0.46115303514910333,3.2722672990054136,-1.3990517858035612,0.4991664769318413,-0.23782428878154438
5.859699498,2.8708332524942497,0.39741573974253175,3.2670165096976542,-1.4463290274177936,0.4917868074690916,-0.23462501922710208
5.899715245,2.8904253288193527,0.2039420657028437,3.2460272789505975,-1.5892034830237378,0.501083398693065,-0.23055544411484505
5.939666475,2.8882664195423238,0.07393992976801009,3.2517812571420737,-1.6799148661929701,0.46408081100640186,-0.22341633864113394
5.979666246,2.874266012056461,-0.05524512602815992,3.2495708547450843,-1.7659066631340337,0.46441643933920473,-0.23642189067946012
6.019666166,2.848448933182395,-0.18274842039380937,3.251083526205721,-1.8480736506365234,0.46663747346165285,-0.22017261402833724
6.059665808,2.811485372019636,-0.3078047089513066,3.262004160842058,-1.9285590466478106,0.44614245556187015,-0.2212237769185296
6.099667338,2.7634442409982363,-0.42890286408740075,3.2678111994728782,-2.0129933466723746,0.42895742116036967,-0.2211195792524608
6.139664662,2.705169730915609,-0.5454774331192029,3.248834072050643,-2.0966567070568183,0.42127536325321774,-0.22290118157381475
6.179684517,2.6375166288389047,-0.6567175286610121,3.2500440609164754,-2.180144668830224,0.4214216111187922,-0.2254725917921288
6.219672392,2.560003566376764,-0.7609456119192856,3.26185181361617,-2.2693728957532815,0.38755864002956286,-0.22378778749501851
6.25966367,2.474265459454708,-0.8577376986741468,3.2357530944513524,-2.3566609587995533,0.3745880765936722,-0.22666534495241483
