time (sec),x position (m),y position (m),forward velocity (m/s),"heading angle (rad), from x-axis, positive is CCW",throttle (unitless; -1 to 1),steering angle (unitless; -1 to 1)
1.012275874,1.2022679977262756,0.9548282762678979,2.6978136842304465,-0.027752903474912296,0.4196082361530023,-0.26459323910329596
1.032218594,1.235878332449,0.9670011929955876,2.6896393859550476,-0.07510888117883012,0.40943205775339364,-0.2616647070606155
1.052219083,1.316289231896058,0.9701846820842354,2.7166083019308584,-0.14305958723635384,0.40698207735357894,-0.2575779716274115
1.072220045,1.3508811508481438,0.9560790769355333,2.700009301450465,-0.16605397147077247,0.40462263629475875,-0.25494168868813555
1.092208252,1.4057134570465215,0.9420951204464396,2.7112289997395473,-0.2479205853093872,0.4087708980725602,-0.25285066594585165
1.112285346,1.4428963831598525,0.9298244740041387,2.6750556845366384,-0.2860816130759869,0.41087491558398315,-0.2505129546116088
1.132221046,1.5060408540408223,0.9193743868561792,2.703728752187875,-0.3550670341880602,0.4227044119670413,-0.24819194540568693
1.152217435,1.5585619122708956,0.914602026844557,2.7104602813616343,-0.38178511580822105,0.40618916881480055,-0.24588989717191687
1.172258378,1.631620161554498,0.8445709837748941,2.723123774141181,-0.44049539732084714,0.3977993690014973,-0.24320253583213589
1.19226315,1.6679647754632698,0.8643552009024901,2.699999529039269,-0.47715104133551844,0.39430531373599054,-0.24011262687436355
1.212212748,1.7031264350165916,0.8210432059266468,2.6813200864383786,-0.5413697724712419,0.38640729679006536,-0.23823856884753
1.232270011,1.7381926063169495,0.7690478569720159,2.6858262146222156,-0.5863021094524815,0.3955785092242848,-0.23689423169742008
1.252232201,1.7796253691513673,0.7590383492710376,2.6840025282456077,-0.6345926094925306,0.3943149830120928,-0.23492310926870166
1.2722680180000001,1.8353276754917103,0.7364920502739463,2.6782756944585766,-0.6985499220757527,0.39588628127131853,-0.2336685729006797
1.292255909,1.8772454002775991,0.701851195338883,2.699702244577239,-0.754787856034625,0.3861699989689571,-0.22458138084081186
1.312208505,1.9178678438085903,0.6341912470204558,2.689570071516644,-0.7813982264988835,0.3771216384000077,-0.22418400267799504
1.332211641,1.945944495772071,0.6130401401658042,2.6934426146181214,-0.8120794479949949,0.37377676298688417,-0.22401122546517946
1.3522481800000001,1.9928562092869762,0.5666105930546597,2.6937810131220785,-0.8807969413449822,0.36449792011335735,-0.2246125683000681
1.372269122,2.0031284320535288,0.5099040307055265,2.707479599919195,-0.9374856033739173,0.37357658686793027,-0.22453559383158292
1.392261287,2.043087573049716,0.47569827289038064,2.6977852365362116,-0.9769023823183489,0.3731006460735132,-0.22362721310715247
1.4122876450000001,2.068334578037806,0.4299207208456537,2.685160900046864,-1.0380823600815727,0.3720265362581423,-0.22387677103900452
1.432275392,2.1160014040058868,0.3760551871669174,2.7049182581074027,-1.0748480316789115,0.3738276397811625,-0.21434548008285892
1.452207244,2.120448995167385,0.32367801504811217,2.7100123873753548,-1.1435165382025743,0.3581820891787266,-0.21412480153724037
1.472284304,2.144345572474595,0.3113311635510262,2.666238067212849,-1.1797704920301277,0.35192799169623623,-0.21476154763002073
1.492265876,2.1434274771400457,0.24822010727267835,2.683344693959107,-1.2114484950139404,0.34471740502430903,-0.21531664364645178
1.512284523,2.184670910670605,0.18342035833502768,2.6392182864690685,-1.2773351535705986,0.345091009585428,-0.21586319619893876
1.532211562,2.190591533918637,0.13889118959203683,2.6518993215142386,-1.3280306807527058,0.34338542895269664,-0.21675234851833552
1.5522187440000002,2.2322894712952746,0.08910362151209643,2.6673065759998207,-1.365099192402953,0.3430825795817172,-0.21772821068433074
1.572282066,2.2121469387446355,0.029460113167824334,2.6769990641368877,-1.40247826791871,0.34516527041872797,-0.21484493869731874
1.592238026,2.21764492309049,-0.022604773850923146,2.629343748154149,-1.4449474418852775,0.3430436656820596,-0.21481492228490656
1.612259598,2.2387406807641423,-0.062292745874926815,2.64721300216232,-1.4948512816704813,0.33558209081630497,-0.21530102598959724
1.632215626,2.2341199839079398,-0.12057866058263167,2.6343910256739727,-1.5433095245566486,0.33871663368763977,-0.2167396778863484
1.6522251300000002,2.237090494378506,-0.18240413521719026,2.660916601865718,-1.5985312041164288,0.3324068684489983,-0.21775676883009892
1.672213352,2.20305594775412,-0.24559418197441932,2.6285829652666717,-1.6251115983190474,0.3337518278550161,-0.21834960931847283
1.6922307870000002,2.218007240395823,-0.28494816220129043,2.610455278268858,-1.6906018176385889,0.33882670948404386,-0.21976270212922863
1.7122958129999999,2.208382988007004,-0.35735697000768407,2.6043186769707622,-1.7322033746774241,0.351218600620915,-0.2213126461116193
1.732232516,2.1997460987826485,-0.39172418989672947,2.6295048183080394,-1.7680446906325975,0.360550620425084,-0.2217788058192038
1.752210824,2.2027731756184004,-0.42139856733533454,2.622416789261972,-1.7904408865219061,0.3362159132903886,-0.2137570233079018
1.772213823,2.167709603537662,-0.48569717070632185,2.594360102767968,-1.8607237506908603,0.331196976498432,-0.21643607256835865
1.792208064,2.1535213998828615,-0.5226274164450548,2.590299921192874,-1.8932391129118409,0.33255716024321064,-0.21940233241489496
1.812210128,2.125507155204577,-0.580593171831693,2.5920928953616453,-1.9606201140105095,0.3351851561876615,-0.221512946094676
1.832211943,2.1365641758339837,-0.6418683434974186,2.579585116902673,-1.9917255454963407,0.33846948283301026,-0.22422633634691655
1.85223825,2.0885341172157363,-0.6876075314695878,2.558153158989319,-2.0404847561915225,0.34677886820476495,-0.22728298188169027
1.872213453,2.0656862075221754,-0.711133628156574,2.5860550558781576,-2.07449802010686,0.34871456756196323,-0.22014847937121132
1.892297594,2.0444495985467226,-0.7587711417141185,2.558258141798971,-2.1096419859805398,0.34384223937456226,-0.22145247607755414
1.9122218210000002,2.0095170136646665,-0.8158141841714187,2.571452886443962,-2.1776882746184736,0.33890281767061003,-0.2238840972542466
1.932220641,1.9925224685104526,-0.8476762707719039,2.583802400990453,-2.213661081052024,0.3345820070665635,-0.22708226212905203
1.952221452,1.9468701677153293,-0.8765796685399696,2.559076467540513,-2.264429751069019,0.3375472990744745,-0.22903849359595882
1.972239943,1.9063615409533672,-0.9269596589323488,2.589237983878881,-2.307643474351851,0.34440702077348856,-0.23078528288082265
1.9922081290000002,1.8610495851320399,-0.9801084544768353,2.562485666630131,-2.3564038647449372,0.34462455779350865,-0.23380163754625977
2.012253814,1.8413641743757911,-0.9943002984622201,2.578562949180099,-2.413851367722613,0.36172081026158576,-0.23599929361606078
2.032217939,1.8034142748104134,-1.0417375641515993,2.5839991139213745,-2.4533265893250773,0.3522270262975211,-0.22740049011507243
2.052213837,1.7594566114519536,-1.0606030357940364,2.574391052612293,-2.5052398511694216,0.34674720008138615,-0.2296311729831469
2.072266453,1.71689261523158,-1.0967097080940358,2.5637731913775994,-2.550443486057777,0.3443708955030619,-0.23220230926551863
2.092236876,1.674397933384212,-1.1067787997602272,2.5505154533014736,-2.6030987478982266,0.3418925575483387,-0.23490661981265312
2.112267037,1.6132247899949668,-1.1277795143430234,2.5228732862842294,-2.645297550894436,0.3519294897513918,-0.23538174117681732
2.132212314,1.573093399155706,-1.1651383897559064,2.578467884296853,-2.6916070471325075,0.3513924298105096,-0.23762021456215351
2.152216895,1.528838388309685,-1.190492867480507,2.5486615898149956,-2.718584956353906,0.3579893218297997,-0.23979033780113476
2.172222736,1.486651206325908,-1.2147100353410742,2.5494090130819704,-2.7660679741615932,0.36236922146099826,-0.22993267603558623
2.192212668,1.4288563939831083,-1.2066323793843128,2.564439872757433,-2.8255611934620033,0.3563057185044137,-0.23177346901014517
2.212245136,1.396819710716967,-1.221923348888646,2.552552063644546,-2.8718128739422224,0.35423380135056604,-0.23350170800941344
2.23222144,1.3366479232420163,-1.2353418291998866,2.56869005024158,-2.919635992994413,0.3564216649656742,-0.23498213355327988
2.252233449,1.2868367178216193,-1.2477106339996997,2.5506308578236516,-2.951380417778449,0.35099327722280527,-0.23639460998425751
2.272243281,1.2424536078702322,-1.2619241083600299,2.561136990270243,-3.0039834081435774,0.36658125679940246,-0.2385469253819855
2.292292348,1.1765626148811636,-1.2716735725804396,2.552068423406136,-3.0412373235439576,0.3732687897725568,-0.24024018449505996
2.3123154120000002,1.1330537023503677,-1.2506218823577921,2.550730242479851,-3.1207831967204362,0.38246632406682984,-0.2413715963869318
2.3322107340000002,1.0836300527467844,-1.2647398738463516,2.5836262872578453,-3.141147063428268,0.3758621469517351,-0.23237047840440758
2.352214945,1.0261522410652582,-1.2841468024023337,2.5807601926435892,-3.202706365142931,0.36694192966412587,-0.23471941749619693
2.372213424,0.9910959831295317,-1.24201753674242,2.5822786281741794,-3.254631631071134,0.3668400458188929,-0.23561401173137728
2.392214772,0.9327103625739801,-1.2311965936895295,2.602846140119794,-3.306139116193091,0.36430962707361364,-0.23686182840160733
2.412212396,0.8852739944899446,-1.222184094326996,2.584520634819744,-3.3695619219100332,0.3745741944977644,-0.23835704147356124
2.432239886,0.8182754948258143,-1.240566665884481,2.5877200511952947,-3.413990835187446,0.3776987677618792,-0.2397504082959183
2.452224298,0.7575653978380575,-1.1988050723128394,2.60006523075173,-3.4616390545700715,0.38326325271875117,-0.24047637130826285
2.472254905,0.7362008212885303,-1.1883162635176348,2.5955158626804034,-3.509786850950976,0.3963570177138129,-0.24065568991372735
2.492211547,0.6782109978335621,-1.1677164912704177,2.5959881716051774,-3.5546128907081918,0.38287683165381314,-0.2300956477606626
2.51224581,0.6224243249436018,-1.1247377914976495,2.604500925512998,-3.5960160744556378,0.373777235287991,-0.23142468433908706
2.53222229,0.5989067871868727,-1.118090545611172,2.620141373815528,-3.63455477844249,0.3761103564699075,-0.23164814662122407
2.55221771,0.5527016949867516,-1.1012596659617473,2.6154981721077384,-3.6937502915695406,0.375756204502224,-0.2327020804602776
2.572313711,0.4897870880846987,-1.0653463633152365,2.597730255827748,-3.747640007706273,0.384608386938858,-0.234022660297314
2.592210566,0.4603852133222721,-1.0403479640287385,2.5933692837459414,-3.7876130716969723,0.3874478516345429,-0.23440759472471054
2.612233551,0.4323508726463483,-0.9978538760759716,2.6232793918043384,-3.833269617556851,0.40215234739215544,-0.2344344308246858
2.6322133770000002,0.3947544559834963,-0.970693228103436,2.61938194391187,-3.8716077938334967,0.3931660012075885,-0.2323666112265079
2.652226284,0.3297319699732658,-0.9502620686079573,2.6113831895101796,-3.937767412474367,0.39202172098775523,-0.23200745864168826
2.672238193,0.3202998357863358,-0.8980216481955381,2.630255704246287,-3.979501452803135,0.3855849654817885,-0.23115485139443542
2.692207726,0.2629514207959888,-0.8533286503582734,2.6129114378233864,-4.015008257218764,0.3916842174233026,-0.23075638694557163
2.712266582,0.2514673217143449,-0.8108831340895571,2.658523677279116,-4.075853167662934,0.4003014421948413,-0.23055927798989156
2.73221338,0.2147644148967414,-0.7553934162304481,2.651180327368289,-4.1287529351994445,0.402301376889327,-0.22989475245427854
2.752228162,0.19614486434575773,-0.7109702828778871,2.6357149389436163,-4.175056820945974,0.40808593220196254,-0.2291595240706709
2.772272531,0.15682471290887057,-0.6579499903558965,2.621891217257265,-4.218575323680283,0.4285962593570915,-0.2283876085334048
2.79227089,0.12803069908030404,-0.6338996968798895,2.66144097856096,-4.252592830745066,0.4092975705441395,-0.19462613094045916
2.812227031,0.10299529271560519,-0.5924075052324033,2.71717942024144,-4.293999870139533,0.4213899279699788,-0.17736336985531687
2.8322216620000003,0.07411940143864972,-0.5350037116095394,2.7254687571062246,-4.325956435734071,0.4157135987070113,-0.16074098861778796
2.852239054,0.06504427285328168,-0.4640420105179699,2.7465276717122045,-4.345998889889039,0.4215364774751353,-0.14415900612953975
2.872218712,0.04316168642115858,-0.42842432229852034,2.7672505604391024,-4.38523782616212,0.4237002272251032,-0.12760376893576167
2.89220601,0.04351395523261991,-0.35420010565453247,2.7739486563410582,-4.403450613849806,0.4244064431010253,-0.10974286991895943
2.9122031880000003,0.013259815232704149,-0.3211223260505154,2.809808234010163,-4.4329369135966346,0.41700545523393856,-0.09341928492602174
2.932212658,0.011795157555797919,-0.2629136827103965,2.8345015576321906,-4.4661776927328525,0.3992086954700691,-0.06906579566815285
2.952228744,-0.01896365072080456,-0.2024035684805888,2.8367265366439884,-4.4671110132119525,0.3889820268339438,-0.041741632089758604
2.972213795,-0.03304860722963299,-0.1468296898884792,2.8855440244664985,-4.442831504670409,0.3803536250273296,-0.015307590829883677
2.9923035550000003,-0.046641468698901865,-0.11557723509788187,2.899218388798104,-4.450068614046018,0.37489177991389355,0.010963605065641846
3.012234029,-0.04803481349581623,-0.04907381586422446,2.934796188878829,-4.46947771473295,0.3812599927478902,0.03794296476421555
3.032220031,-0.06268939009784959,0.012923149422657466,2.9518783755036853,-4.456116071077816,0.36614771175795924,0.06280307180900793
3.052216847,-0.08293390704465986,0.060177344536990834,2.9450205536238765,-4.450805148424488,0.3707889574856013,0.08407227848226806
3.072214313,-0.10371136189435254,0.1372533161938451,2.9716137276104155,-4.431423253643902,0.3480448711106747,0.10707322964402749
3.092207864,-0.12105847075552911,0.19352332274747858,2.97845091743845,-4.391955371033238,0.3337396614810572,0.12165765416001725
3.112220722,-0.14622279699242405,0.23368804392841636,2.9825715491918015,-4.373026672218627,0.3308147607528133,0.13539377922925344
3.132244605,-0.16585811819780827,0.28649501274831185,3.002412001964663,-4.359381864701398,0.31780378093128653,0.14828362255643474
3.152225388,-0.188486564130376,0.34555903963278917,3.0042691974211,-4.299792026929293,0.31684126623989783,0.15984735705104447
3.172284327,-0.22285493549271673,0.4135669629322112,3.0115010144366745,-4.292762882808053,0.3180735914078405,0.170338561495333
3.192284379,-0.24270111154619095,0.4628030800030862,3.0059248381987174,-4.254613731876751,0.32049200203279815,0.17953315835106773
3.212215507,-0.28279512556922093,0.5111479890599476,3.002005634093811,-4.241604448604783,0.3054230749560268,0.18487564147072644
3.232218645,-0.2938258893915713,0.5587224692530539,2.9938615425625947,-4.1863678344911515,0.29594103322897797,0.19275002843605193
3.252221849,-0.36169436635800845,0.6172142851069803,3.014754608346537,-4.159871840080045,0.2897932537371684,0.1999314833360643
3.272212925,-0.38626608402431445,0.6820967625507834,2.997284008810712,-4.101473668743531,0.28823386154639224,0.20641687586323415
3.292215489,-0.41607316267000005,0.7383284691594938,2.972542368938672,-4.070433076854308,0.29012498617217264,0.2125599156409581
3.312237352,-0.44908811654391617,0.7669445822098427,2.9974322646937304,-4.023841151138226,0.29502517943004175,0.2180293540353051
3.332212259,-0.5022572919864914,0.7938166450947269,2.9937872921829918,-3.9818814723027725,0.30529309837536234,0.22272285604298017
3.352215541,-0.5114380394863568,0.8403912352624631,2.977241845568298,-3.9391721902415515,0.2975533232628145,0.22437264378211003
3.372265639,-0.5752932220514669,0.8892032224211747,2.9689872984114762,-3.8841550296476566,0.2848320197115542,0.22658228355700663
3.392240433,-0.616192151760957,0.9306129781643495,2.961230363058138,-3.8454719308912395,0.28291139287876527,0.22778352187636877
3.412260036,-0.6552631364705407,0.9467964783645645,2.9436872276437915,-3.79482590228445,0.29192955737191106,0.22807687771863228
3.432218946,-0.7091390616509703,0.9975893233578638,2.9546960047651436,-3.7295290837802595,0.2872868789241999,0.22915490136977099
3.452229705,-0.7465943385415927,1.0528623801680053,2.9480139504978924,-3.6925219762846035,0.3009382562369768,0.2303337767062099
3.472215864,-0.8027997730442004,1.050638178640096,2.911837277317276,-3.6440556134285673,0.3046270567480336,0.2303237673487143
3.492209643,-0.8575055403838813,1.1019322857365876,2.8886872690821956,-3.6168745898791275,0.30033681638263987,0.22644737431228135
3.512296387,-0.908404838707402,1.1257518763712262,2.923200596160912,-3.5643999058335205,0.2966452176512868,0.22676629200846607
3.532219334,-0.9577834273204218,1.133811354358374,2.9017674655228305,-3.4884832918758613,0.2973690612214972,0.22656412697224368
3.552232395,-1.0156774517197764,1.1516375486973671,2.899742289160495,-3.4455926607341496,0.2987735826296753,0.2257592700127373
3.572282078,-1.0697460721828715,1.1712139496148308,2.8819945089693055,-3.391600269658095,0.3051274920996409,0.2259150838268238
3.592257197,-1.1117750947001896,1.179175804906644,2.8631340822562037,-3.358947128617232,0.31452728732820084,0.22485408682502667
3.6122698140000002,-1.185297341681644,1.1865876756559832,2.8523373893512165,-3.286298937259882,0.32613979482064004,0.22359996987336558
3.632214342,-1.2353660774765909,1.2023459843532547,2.8494534718918425,-3.2215862156930632,0.340244572994287,0.22256504421564008
3.6522166890000003,-1.2936030380512655,1.206219966985101,2.8403957936687974,-3.1896571381463574,0.3166282645831089,0.21468018715692738
3.672229859,-1.3680517920128854,1.207022185344755,2.847881818938901,-3.1413239946156284,0.31628459145667626,0.21314883220381975
3.692282082,-1.4336279498147624,1.2188569872588328,2.8371712723886975,-3.0913873754074377,0.3178201437849235,0.21187998003150044
3.7122485960000002,-1.4587417226640196,1.2305814680656186,2.8294184296686877,-3.048875615398393,0.32565150350241756,0.21140722678746776
3.732268613,-1.5317697001683428,1.2035469472064046,2.8018779185842098,-3.0050384270513586,0.3322845717494069,0.20990043941029835
3.752251013,-1.5908095566468134,1.1975230156206602,2.809613910146173,-2.9425378108451365,0.34356705175223945,0.20905500721307896
3.772240227,-1.6372898638668323,1.1892692166461512,2.805700804365641,-2.9149101844075527,0.35487801103479927,0.20816286964923944
3.792271674,-1.6975989901994264,1.1630399631448947,2.824625941025575,-2.8593871839660223,0.3384270546075264,0.1984068885210711
3.8122548160000003,-1.7489368007598738,1.1422038337800837,2.8167540379433214,-2.7935987016381403,0.3318921479818224,0.19751333475117078
3.832222138,-1.7894200020263462,1.1299064800622205,2.793920386304072,-2.76954176314718,0.33293299554478173,0.19782591216964848
3.8522271850000003,-1.8493469501037811,1.1071187926486559,2.7971400109585196,-2.7177059089814435,0.3374604135027237,0.19818514692185446
3.872212192,-1.8920028159965447,1.0828603996961008,2.8158699801448495,-2.6657350312685177,0.3374068636351107,0.19886133026989822
3.892205936,-1.9607003653473922,1.0785555864277565,2.826988681314047,-2.6393867281772523,0.34977370851904255,0.19936325012702494
3.912235231,-1.9870921828853496,1.0262965888786826,2.822942797744893,-2.5798546406910625,0.3559444134485894,0.20064949443416982
3.932212515,-2.0336079958495747,0.9929753731293793,2.8156619889084444,-2.5719775361374713,0.3453992570746317,0.19236187661761395
3.952220723,-2.089396228489269,0.9687634073623241,2.825105138528542,-2.5251172347424062,0.34248564797703357,0.19337386057464467
3.972212411,-2.141855722831311,0.9249157584778585,2.828409720480749,-2.473930156064405,0.3366834601992722,0.1950153880512302
3.992270581,-2.1955408059985184,0.8815797985325796,2.8396172941383155,-2.4398871431421054,0.3296777674303083,0.1970578171589965
4.012214351,-2.2236897825820074,0.8523735524118874,2.8304125298824694,-2.400313338571616,0.3300046044911373,0.19931482523357938
4.032219982,-2.251545461219265,0.796830668255956,2.83610757170816,-2.3508901017017503,0.33358323676070745,0.20195443716028302
