time (sec),x position (m),y position (m),forward velocity (m/s),"heading angle (rad), from x-axis, positive is CCW",throttle (unitless; -1 to 1),steering angle (unitless; -1 to 1)
1.012691189,-1.1792607021830037,1.075919189151694,2.921477349234467,3.125609639059085,0.41994588270466576,0.25992853334486904
1.032726904,-1.2381001890997707,1.078716418894299,2.929771672549497,3.1766290996392454,0.4100906407462303,0.2511544524311198
1.052719991,-1.2837604452965694,1.073286742626844,2.9414959987867553,3.2325325861755005,0.4042374777003999,0.2486990982979377
1.072647021,-1.3451406468015366,1.0736484351309592,2.9485926974970686,3.2776687251891863,0.39605914817575955,0.2460693473936365
1.092650811,-1.399476615817384,1.0582551997462015,2.9485425611460654,3.3198166833148934,0.3976812029722189,0.24375086266504697
1.112649002,-1.4477375209154713,1.0615684618056778,2.9364132842266364,3.358118683543065,0.39997546565214287,0.24201304608251228
1.13268601,-1.5264159465226652,1.0339931638024327,2.9633291549398253,3.401289308528386,0.40344772567436016,0.24034730319272518
1.152638235,-1.5685576521511093,1.033279886355472,2.958729399362463,3.464560755234759,0.41061145046987974,0.23884435487866015
1.172655741,-1.6246765877226066,1.0132628587619337,2.9515346851740962,3.5092769745192576,0.4150860447703632,0.2376540575243362
1.192650523,-1.683042509111914,0.9781903389846566,2.964421731687198,3.5628099962941016,0.39718007708694664,0.224650118406964
1.212680689,-1.746254537073482,0.9472668539644984,2.974816218877055,3.602626671767881,0.38294683222675086,0.22450706750498878
1.232650204,-1.7925892961394154,0.9318026320216958,2.9619575004873004,3.644521209503419,0.38181123022527946,0.2248316757101262
1.252705076,-1.8313955066502938,0.9055942843279922,2.9617352357317945,3.7096568704837907,0.37430511121600063,0.22521096948794597
1.272646828,-1.8845452311329158,0.8740412320687467,2.9641897349029676,3.740814397318531,0.37280978979123114,0.22571525771344686
1.292646184,-1.9351759078400934,0.8454959709216285,2.965796250547944,3.7832712320898443,0.37691561042433686,0.22621445495029668
1.31267984,-1.9919493962013628,0.7929103065470221,2.9752366535101875,3.8269744828354,0.38329115149250065,0.2275691873634758
1.332681341,-2.0328060968099466,0.7659838677973917,2.956221357090677,3.88123271683543,0.3855900766066723,0.22871597044898342
1.352645636,-2.088649508906575,0.7197882952125813,2.93839953263051,3.935476407116085,0.359855859190998,0.22105901285578083
1.372694145,-2.1260918875947827,0.684207823655084,2.9600080888255493,3.950749021140069,0.3503749468647648,0.22200815182768455
1.392647927,-2.139638804178718,0.6508055713933988,2.966031000854134,4.009768619656726,0.3427850900335707,0.2231037350737554
1.412666733,-2.2032296483663227,0.5927658776390778,2.971063466472331,4.063313979295488,0.33870099024306694,0.22437383487112955
1.4326464840000002,-2.2331939346277765,0.5423825257064963,2.9623424239721663,4.096263720837655,0.3359598430610037,0.22560396450799516
1.45263683,-2.2708219328397994,0.4973764488607963,2.9605411255501766,4.159010051172359,0.3409130406835921,0.2279738386907584
1.472636167,-2.323513100145368,0.4413563099131967,2.945247219581306,4.190313401874405,0.3544961995171312,0.22926468179207146
1.492643219,-2.3383868414046205,0.3921339733639379,2.944292932880699,4.249780148998338,0.3305546300432459,0.2228917914534479
1.512706911,-2.3698941029708935,0.34764221213921515,2.9571388177172997,4.284822118735024,0.31554438283824976,0.22407120284531212
1.5326490270000002,-2.3940112982725577,0.28377412964257565,2.945330387310053,4.3388650591431865,0.30636104977467726,0.22546571982166594
1.552653506,-2.3956032958576943,0.2295766450861263,2.937025145029914,4.37825063636555,0.30124818011425797,0.22731553999013185
1.572652983,-2.4277382362156796,0.18686706642415374,2.9191515295722814,4.429852675905645,0.2981487987895054,0.2292055345832477
1.5926475180000002,-2.435191274747503,0.13333394313638683,2.8938720854731415,4.459447318023101,0.30641861955185545,0.2293536620961888
1.6126443080000001,-2.4485017198423633,0.07639854771777024,2.8961237929522468,4.4920191215459475,0.30685823082734875,0.23101921745961568
1.6326441200000001,-2.465956539988905,0.013619504420939484,2.88364327734342,4.556078272555215,0.2976744983802139,0.22717811147880634
1.652640861,-2.4677241522671456,-0.02741482364357376,2.8880366416868144,4.611821850700804,0.28681174902651513,0.2282886852474289
1.6726518380000002,-2.466885783395154,-0.07958507458288847,2.8670139339549228,4.637058411783691,0.2815494739920628,0.22958151302774113
1.692647181,-2.4850018422366014,-0.16277558166153394,2.863668850043337,4.682689072037125,0.2774948615259308,0.2315665627837112
1.712646115,-2.4901908900805916,-0.2157227020856363,2.856906441124896,4.748176314218669,0.2834110975582364,0.2332979445311617
1.732645604,-2.474820691162453,-0.2499720339173711,2.845043190387561,4.792656090525065,0.2832056126587513,0.23485755881762865
1.752645888,-2.4897999152128856,-0.3133788126733166,2.820252788634755,4.814533180355406,0.2908622457363652,0.2367407093033742
1.772643833,-2.4593832684499923,-0.38072910328147314,2.8180346111438994,4.883249449740713,0.298837384766478,0.23935324193396784
1.792646066,-2.4471081104549683,-0.4455524375335665,2.8202675567159994,4.9254512675648785,0.27864121352637533,0.2379789237288571
1.8126423950000001,-2.427736165271073,-0.49254945690707913,2.7831171415026823,4.958411166221246,0.2771399423738282,0.23977846903267458
1.832646659,-2.438913227683849,-0.5479577065865392,2.795305386666679,5.023048913655861,0.2728953437998135,0.2414512314159856
1.852654832,-2.40789084684703,-0.5944885604318204,2.7698328316926575,5.0760502541041035,0.2754558096363344,0.24370641777049432
1.8726473590000001,-2.390927768697654,-0.6583070325560535,2.7901924151221795,5.110252608811119,0.2771617717270257,0.24613307228829231
1.8926461300000001,-2.368642020120826,-0.7055671952372895,2.7834430121552516,5.17225793744612,0.2874089617270082,0.2481080323891992
1.9126464040000002,-2.3456350633155436,-0.7525047570434663,2.7530067131352083,5.19226642964488,0.2931827022654141,0.24994766691337478
1.932643948,-2.317518157786406,-0.802855576109126,2.740618885802011,5.2860460129833005,0.3156804563646283,0.2510679124175278
1.9526459360000001,-2.300224076443131,-0.8359892413997488,2.7558274176604733,5.306524476415547,0.2873430232018513,0.24700662071009963
1.972644341,-2.2570792089217675,-0.8823945067627506,2.730683446459653,5.361671323584298,0.2902945214322787,0.24815702946791898
1.9926463550000002,-2.210572578044686,-0.9232502723004453,2.752090091453624,5.414084878687435,0.2865983981115794,0.2508630952936665
2.012714498,-2.175272980594112,-0.986539404465828,2.7339363752756403,5.456430978205056,0.2943193409071538,0.2529187460166042
2.032651911,-2.1544615770329867,-1.0209258624913613,2.7083796307062284,5.497445432593373,0.3028058273715982,0.25501337021089215
2.052700659,-2.10373011212778,-1.0471217283121785,2.7269505489081287,5.552737354655733,0.3191381704186294,0.25670826887820863
2.072712761,-2.075847260586389,-1.0908763697539012,2.719052412406886,5.60590120887846,0.32177160449292674,0.24962708910970338
2.092650576,-2.046695466740369,-1.125131349349696,2.713381830571701,5.6254389120092085,0.3176579879216248,0.25161659523035723
2.112682657,-1.9748830001310507,-1.157240942572884,2.7173931624157577,5.690878886225314,0.31249798055465206,0.25347452407175475
2.132713159,-1.9316351681823114,-1.1743877934317102,2.7271097725045736,5.719334612040959,0.31788696808294625,0.2558044869252255
2.152700093,-1.8846733498479913,-1.1873343400459049,2.738117234093054,5.7565029549169395,0.32043354154815684,0.2576583171931257
2.172686728,-1.8482435986370258,-1.249520057441141,2.7195004246672942,5.831410898968426,0.32934698689150255,0.2600038878125724
2.192655286,-1.7972074223751044,-1.2653645934218307,2.756681245294681,5.868431930925077,0.3394411717027335,0.26307967204760047
2.212706835,-1.7421801937341632,-1.2972885660671514,2.7267680630676487,5.911950200935219,0.35721692624393214,0.26511728260067235
2.232642752,-1.6819906292940452,-1.2994111678207017,2.7318712837638577,5.957471700940542,0.3515649849737918,0.25986522730941075
2.252660255,-1.6398309774308846,-1.305214073012877,2.7137041387067646,6.034960091602654,0.3539866984188099,0.2620134199098709
2.272642897,-1.5809444297124342,-1.3217344289922695,2.746919795033467,6.087196780130922,0.34743290005198396,0.2629432650742746
2.292650508,-1.5205914318670983,-1.3253591265609785,2.752683885523032,6.1212490523545195,0.35816059883590357,0.2634737173691775
2.312733015,-1.463843530060921,-1.3475749215868402,2.7543524460255018,6.188865426047118,0.3566337444476497,0.2638141544066401
2.332708063,-1.4083427286897403,-1.3386810890612886,2.7399353755386193,6.24016658974125,0.37719233877135316,0.2634618333789207
2.352702908,-1.3648533275987014,-1.3596145827395898,2.7623898574801333,6.282131470914114,0.388562900280459,0.26235808207107186
2.372655615,-1.3099567043285265,-1.359598389255102,2.7700450390003533,6.3368150917844215,0.38476196717206657,0.2593186087498243
2.392648191,-1.2451940511398185,-1.3435643879724686,2.791417330473511,6.384354865108542,0.3811937363047116,0.25747252326400777
2.412651898,-1.1875743086085382,-1.3242405004650037,2.769974547690798,6.410803563942762,0.3856721528277967,0.25628377841533995
2.43265257,-1.1419177856065486,-1.3353434235525214,2.8034522189210405,6.464031909143963,0.383922883627833,0.254974869093794
2.452678494,-1.0964381067462194,-1.3107232972803688,2.8109711188361652,6.521166610936384,0.398560990103737,0.2532799268308387
2.47264021,-1.030174191245918,-1.3078646467465955,2.790247678336724,6.58185221173575,0.39630168707827573,0.2523311199199486
2.492662977,-0.9827039971221294,-1.3058572903951344,2.797814553413628,6.616495582526423,0.4072552444466135,0.2508512072596682
2.512646453,-0.9180653907520169,-1.2828288491213637,2.8098642362296555,6.641389119449716,0.4021048322009615,0.24911956782853964
2.532690498,-0.8763757119592247,-1.2600079955157137,2.81472472190089,6.725811475732867,0.4038006087104244,0.2469931154282987
2.552667983,-0.8142180015712603,-1.2278766006253685,2.834910000735276,6.772830921000981,0.4003820835886374,0.24542128154614795
2.572651493,-0.7807726386324562,-1.1841764380012247,2.8406891593691714,6.803461513793713,0.39611700921538673,0.24353321475313436
2.5926482010000003,-0.7234379311504312,-1.1559719881326227,2.861900792629233,6.86840470664043,0.40710543119562825,0.24217425913794394
2.612658762,-0.6822374500545231,-1.1215373226616516,2.864573342224334,6.8883495600419185,0.4080914494757754,0.2407186341126038
2.632740674,-0.6299353169362557,-1.1137436390377482,2.865388756509382,6.949910427786876,0.41855313861403337,0.23900747934690902
2.652653822,-0.5940933978830915,-1.0654447015504975,2.89221698773992,6.974834513728043,0.4297080445262425,0.23731565530087825
2.672653069,-0.557078357768154,-1.0101079608672467,2.8862687853032356,7.029488955765287,0.40078319330134643,0.22999458790583605
2.692646689,-0.5014101429609801,-0.9933825188546862,2.916277177494778,7.078524684558916,0.39756228222753737,0.2292505144583614
2.712644686,-0.4572290020750719,-0.9230679477521937,2.9180365705547677,7.143081434773545,0.39050847343117856,0.22988611374077048
2.73264161,-0.4282046571639043,-0.8814493846211875,2.9272033325298294,7.1642870204621385,0.3920319220079134,0.23068404598759795
2.752655343,-0.38679201243579575,-0.8608249084185084,2.903599543357724,7.210857903241013,0.39326026015557847,0.23113840335343339
2.7726453710000003,-0.37066498946423776,-0.8086981570214034,2.9269663838282955,7.2526604439791935,0.39925002621200595,0.23204904312689176
2.792663639,-0.3189818662168665,-0.7582348244042012,2.9645751264705864,7.3007815053214244,0.40105102111418184,0.22347658822234215
2.812644176,-0.27951897144829624,-0.7136020165120883,2.95500778384833,7.350225265302524,0.39955672538295733,0.2020057066583406
2.832639878,-0.2634451941849783,-0.6471691635961139,2.9607949301715353,7.385099134627217,0.409580624886252,0.18066580865076837
2.852682195,-0.2215028837210741,-0.584615048357216,2.9817763299597764,7.414776024599558,0.4094142044252997,0.15928986522592692
2.872646832,-0.2177081584881995,-0.555563322233122,2.986438131013885,7.429430908844778,0.4181668241469425,0.13778231822569795
2.892661064,-0.19763261797378945,-0.49477699996784064,3.0415984965906104,7.479392516577378,0.41889053034837553,0.11581841208122705
2.912700928,-0.16303046773391167,-0.44330440019315903,3.045976894199119,7.489342611123744,0.42005905691128514,0.09367364716129929
2.932702009,-0.1388700922664981,-0.3679640621294935,3.0660053479804112,7.492842799300022,0.43138860861020234,0.07223244403951098
2.952649231,-0.12324796843403417,-0.3076725759695238,3.0753826492799328,7.494227753387292,0.41823948576014747,0.05097763648368381
2.97265075,-0.09450786832996672,-0.25763782285002046,3.128727501388376,7.513189936325835,0.4115806306616363,0.025577041787041142
2.992690657,-0.07404323308668413,-0.18940314732486765,3.1223880878434653,7.524221839553138,0.410266809663667,0.0021431324430496277
3.01269072,-0.04761480462854829,-0.14327582310699083,3.1291524693162955,7.498379200231197,0.4003266167734716,-0.01910390584182041
3.032689478,-0.02864744155757979,-0.09132215231181348,3.1549520728423976,7.492220462940647,0.39960112126681274,-0.03877324220010257
3.052708365,-0.00922147576637529,-0.02518028364965003,3.186395731147899,7.469951006010034,0.4014427470839224,-0.056298226873343
3.072650762,0.02559575015209782,0.0374748916008748,3.1850106985149833,7.446600962723306,0.40531558268840157,-0.07243334018040844
3.092646313,0.04089125854196226,0.08417714072967615,3.2046440981202107,7.444839647111997,0.38525569439637947,-0.08278281285354054
3.112662218,0.07957196236462914,0.15103263131650754,3.201843254514994,7.400310121351135,0.37379229512561757,-0.09698494054703605
3.132715927,0.09575021104596683,0.20806453902643074,3.1921236927478165,7.3592584441719495,0.36686000023828086,-0.10923405754204185
3.152647883,0.12639897671705883,0.2603673241966661,3.2127979594861147,7.333349593614049,0.35563689070737897,-0.12015330728372882
3.172700898,0.16390597769561702,0.30697206171807195,3.1997065643895275,7.296035017895728,0.3504231192373667,-0.12976680773929658
3.19265053,0.18089495084102883,0.3846324463457779,3.2120380428061774,7.258415754982109,0.35409740612748847,-0.13748465042766894
3.212646886,0.23304917870489703,0.4199234332824081,3.2025933876189647,7.251459040311711,0.3558248276500253,-0.14384948012004153
3.232645481,0.268889954657479,0.47646358892798263,3.1828936012113975,7.212956590187191,0.3501396740923364,-0.14658995436613068
3.252695196,0.3131055172829741,0.5202656931668141,3.1888878142461636,7.151881835775272,0.3429857418907057,-0.14976503554243192
3.272653744,0.36004530478843993,0.5901068340446222,3.1994799758239254,7.119152164267636,0.3359046291436582,-0.15325615143582305
3.292647069,0.3922511801995056,0.617676111535899,3.1549507276125826,7.083011757555711,0.3344009469926972,-0.15660868437605097
3.312666413,0.43204196165109177,0.673251739743652,3.1268592219139038,7.03496867333152,0.33245068596567623,-0.15879229552835764
3.332690826,0.46662759230117623,0.7244950687604095,3.126248178685571,6.99959980771904,0.3351504592854548,-0.16086325664697615
3.352652196,0.529158374648078,0.7255896552488326,3.108300039783331,6.93544931313236,0.3504446849721898,-0.16235466170733004
3.372648987,0.575807755843544,0.7973824510076274,3.115538312486346,6.913299097717325,0.3576520474404691,-0.16283766900912733
3.392646416,0.6220393271339987,0.8386764117348124,3.116004180007837,6.852406143280586,0.34017540458614154,-0.15621488140412534
3.412644676,0.6829934923485429,0.8386745680449208,3.095958383872627,6.8340291779688105,0.34103547947736784,-0.15822073934281078
3.432643783,0.7391573759988279,0.912832584114853,3.0719948918915154,6.779476271236708,0.3454008328640319,-0.1591573320216188
3.452645319,0.7838647182752493,0.9184304864732288,3.0699282098982237,6.732805680126647,0.34302480696673643,-0.1603096439355602
3.472649961,0.8560834063441549,0.9538351803713668,3.051935973851303,6.679431675257343,0.34743660467202087,-0.16125620850502193
3.492647475,0.8885132467332951,0.9849752087333478,3.0535128218673484,6.635718033840847,0.35180247609752546,-0.16235031035598096
3.5126947299999998,0.9670620452390692,0.9941647326518585,3.0456175980692297,6.593316799876851,0.3630850891749722,-0.16400204152294548
3.532691543,1.0149574951383178,1.010575859162951,3.026113912077067,6.558247143621005,0.35536249983127444,-0.1578196077299535
3.5527133539999998,1.0706663061069832,1.0417988553479602,2.991809457290312,6.537681701855249,0.3490460323950551,-0.15891479907562556
3.5726458660000002,1.1314783059912648,1.0595117769772895,3.0196374814197613,6.468574462729857,0.3429658101281046,-0.16019990360052996
3.592647248,1.1661740254833024,1.0558458777575757,3.0069377015075185,6.4397731276443775,0.3418746784563006,-0.1619650511498814
3.612684028,1.2473024353717417,1.0645624023709348,3.0138626035623868,6.396550852421681,0.3457396021287299,-0.16235866734885596
3.632698848,1.3024992133918079,1.0720939317995124,2.9967125818612437,6.353893209744531,0.3471042565829015,-0.16402395371917386
3.652651013,1.3317429735229407,1.0873788252641825,2.988677318158238,6.301905025144575,0.35793335423091155,-0.16631394053000353
3.672699442,1.442642663031536,1.079272944388933,2.971274325393982,6.273715015861328,0.36296891052238406,-0.1624086429017287
3.692645733,1.4974458133452169,1.0990380868527212,2.963160125263808,6.2474076463936,0.3475701042319385,-0.16295275752924163
3.712681254,1.5431830991509738,1.0810856324922036,2.9568083334315305,6.17799447252252,0.33749787456776154,-0.16467939616202537
3.732725756,1.612869778775575,1.0684629389567666,2.9279061701709206,6.144082917112172,0.33734028488136564,-0.16681832502566296
3.7526426500000003,1.6602109008761758,1.053283785216877,2.916763976487589,6.1161637510753755,0.34057962109031625,-0.16906628875362784
3.772651168,1.7138103011373516,1.037141014626716,2.9145001256120926,6.0673775028802535,0.3426804556039683,-0.17155350179371096
3.792644822,1.7747090900177491,1.0321684710833252,2.9236137254561854,6.018761605392534,0.3449363099753957,-0.17373161947923366
3.812710727,1.8163104439574265,1.0060562051564177,2.9198664482582317,5.985275065699409,0.3545959679423588,-0.17529557191575532
3.832685547,1.8823962090376367,1.0095866548941053,2.8914806388780887,5.936667211661603,0.3416035613310303,-0.17211429989349172
3.852651551,1.9402382262939954,0.9840806459594228,2.8904108594262823,5.896506361874568,0.3407112131798908,-0.17386733212507757
3.872707868,1.9918337002794124,0.9604834306630671,2.90062097696768,5.844894367333528,0.333407277844149,-0.17540264037487296
3.892650347,2.072132946384687,0.934933183676039,2.8468246965317197,5.805779562610124,0.32946624163032595,-0.1775568739412162
3.912649698,2.087205148892694,0.9051427684395248,2.849675272832985,5.780066442518605,0.3273506880138985,-0.17940520621587286
3.9326459060000003,2.129322506973437,0.8785684862335778,2.861941737885632,5.695017913723111,0.3321145181060846,-0.181536080820626
3.9526466090000003,2.1948415844481426,0.841776224029064,2.8279224191630927,5.687168885023214,0.34023624837217914,-0.1834940453738132
3.972652318,2.2470037504009555,0.7974253941060718,2.828530847899882,5.629395948328888,0.3544754949811443,-0.18475677497177076
3.9926666500000003,2.282326797460262,0.7709421830893136,2.813387139346055,5.583127901447473,0.3301446391337937,-0.1799431279510015
4.012701597,2.3236988068677755,0.7282907686739178,2.795828389105981,5.529386807363935,0.33007904278117234,-0.18179914397645577
4.032670511,2.353577872034,0.694043337140284,2.806734175243756,5.491737218837367,0.3329326073412056,-0.18418522148845562
4.052656272,2.4019047665246562,0.6851475893252928,2.7943555436478005,5.458490947282247,0.3276424326116519,-0.18571069320587252
4.072644457,2.451452110979724,0.6222944561858943,2.7861492876737484,5.424523200960225,0.3343035662833534,-0.1867823431669281
