time (sec),x position (m),y position (m),forward velocity (m/s),"heading angle (rad), from x-axis, positive is CCW",throttle (unitless; -1 to 1),steering angle (unitless; -1 to 1)
1.009614504,-1.5759867577546713,-1.209429507961745,2.783653688068918,-0.10931721116744908,0.36738333614863705,0.27365471796317287
1.029617135,-1.5378569297255305,-1.2192415151108467,2.7635185223327965,-0.05037381054548038,0.3758027776922937,0.27097411164667984
1.049608817,-1.4788847733617219,-1.2395749663479319,2.7734363803495827,-0.014526085665238051,0.3773966420871399,0.268714819852687
1.069680459,-1.4173913138718461,-1.2311814750267744,2.749408195326254,0.029767962261793103,0.37682701937796553,0.2660275330359439
1.089661347,-1.3782236422474974,-1.2344372318416048,2.77327697858225,0.08263554671944147,0.38793849216429843,0.2642422078624138
1.1096207040000001,-1.3272959705538536,-1.2273877564086264,2.7953896089219734,0.1341504178597774,0.39809947611332736,0.26197969185750203
1.12961248,-1.249888233092782,-1.228565390786101,2.7804428062109565,0.19287932821586015,0.4046175690698098,0.25892855456193203
1.149607057,-1.2138992735361784,-1.1816913495413452,2.8031276583574676,0.24179698275084563,0.42251369164764707,0.25649314851540767
1.169608658,-1.1817660122766682,-1.2124443529703106,2.7913809829716336,0.2736554391645266,0.4239809598007526,0.24912103089507753
1.189613605,-1.0967748043470094,-1.1807627929834374,2.7868405956299136,0.3400517353114446,0.424139050497147,0.24804050026145807
1.209604213,-1.0437379794037773,-1.1460759407922438,2.842359247621923,0.35568327410440276,0.4212076208293455,0.2466455642284448
1.229649139,-1.001074328308407,-1.1161852870551527,2.8306411132290816,0.415494118248677,0.42704339205732705,0.2465416359014921
1.249652708,-0.9250327071960632,-1.097586948237258,2.8441921058510964,0.4527505902596791,0.4299389329844352,0.24467073328755792
1.269682547,-0.8855359065332595,-1.0726302414879385,2.8783400035564335,0.5128455587119868,0.4291117659292997,0.24346368822285827
1.289614402,-0.8205270308375345,-1.058243108974524,2.880898157808309,0.5465405902858819,0.43786457704731097,0.24318278948110392
1.309674787,-0.7862420490805251,-1.0208968462482237,2.878049829367511,0.5981196189176213,0.4591886770660746,0.24292333871796828
1.32961457,-0.7580048786914345,-0.9816673256425101,2.9276684777416464,0.637140294035457,0.4278621514879011,0.23589012738337337
1.349605225,-0.6822070870449752,-0.9507149618079878,2.9250463123533037,0.6953774186863573,0.42754079912280807,0.23595024596679565
1.369610149,-0.6556346374862906,-0.9152525994728622,2.901652847775739,0.7511013814026701,0.4165827091380662,0.2361471734939748
1.389611513,-0.6011287730552319,-0.8825919442899285,2.9322676549079425,0.8016062782995546,0.41331214649586,0.23587913345168443
1.409613751,-0.5642780097466202,-0.8217004156735155,2.9775265552515586,0.8015642764842634,0.4160235286729239,0.23686833753653644
1.429614482,-0.5252032497514924,-0.7852349326038317,2.998484429457994,0.855135000433155,0.415755486887506,0.23735713487178528
1.449605668,-0.4827685662131696,-0.7302221790224744,2.968543271538176,0.9131200267309325,0.42180041206612184,0.23816462681696848
1.469749286,-0.4517209518244961,-0.6917936006531736,3.0218461103148,0.9682758428710238,0.4215280351696281,0.22241915184034605
1.489608356,-0.42509106018785475,-0.6349100815104036,2.989310467579488,1.0084496503093434,0.43173801331815165,0.20369419120353147
1.5096832930000001,-0.38214374981451793,-0.5888786974327013,3.0241120244850332,1.0573930646905232,0.4335750780956372,0.1851079572291953
1.529623536,-0.3449562849325757,-0.5393135598997638,3.0355336609509544,1.0732140415697875,0.4312317088764842,0.16574725275426125
1.549605268,-0.3203294827727589,-0.48494218603256145,3.0420082936495936,1.0962067397723743,0.441608524113572,0.14648205890215266
1.569689372,-0.29450673187624155,-0.43931099908382676,3.078643134896915,1.1322707371384648,0.44456473172626626,0.1269005797853329
1.5896203990000002,-0.256798490357162,-0.3719857933450157,3.0875608346124355,1.1431605218480376,0.44321446052827923,0.10681456236787959
1.609622333,-0.25629387888286376,-0.30914044523446943,3.126212126873636,1.174391780161501,0.45323621006556963,0.0885033470208726
1.629613296,-0.22117079725765398,-0.2562187982666074,3.133862994129233,1.1802553841282917,0.43823925071745373,0.07049301617569151
1.649672668,-0.18299408266673356,-0.2062218196399958,3.146761899879005,1.1765393674224942,0.43262098476522703,0.04392647880800717
1.669669094,-0.17598374293739233,-0.14257325369851007,3.177094654646908,1.1783376927465001,0.4296806594296671,0.01950148873546284
1.689618365,-0.13964933112177122,-0.06915568960738074,3.175549502447518,1.1630719914372427,0.4267153547214825,-0.0031935713682652352
1.7096299890000002,-0.1321721651748053,-0.02431536657343629,3.2347464943514317,1.1824821465864812,0.4299324221791358,-0.02419972190989973
1.729661796,-0.08399537970059139,0.024254555501800116,3.2410096002538533,1.1732926747449528,0.4297639965283559,-0.043590852567979455
1.749662717,-0.08755139135993031,0.0949827205853506,3.2654346886949925,1.1500057953304625,0.43567868812586075,-0.06082064771827955
1.7696912930000002,-0.047666117260829574,0.16784492315922997,3.309968410303842,1.1413821911912954,0.4477059363052494,-0.0765744661422528
1.789611951,-0.007762595921953946,0.1967517843780287,3.292071905990719,1.119981055377126,0.4067518615508944,-0.08683492548725727
1.809612951,0.004662001313083577,0.2899588425013142,3.299615640374998,1.103582686112186,0.4006342212243438,-0.09915438712259396
1.8296171860000001,0.029465288167201974,0.3259569181495617,3.307262400074755,1.0559938750367215,0.38357414440628834,-0.1105232986481345
1.849657176,0.07237507282575895,0.4033695231862175,3.3187190667874793,1.049077788487105,0.3790937337941806,-0.12143543829551631
1.869718318,0.10539849331345923,0.45754148579975096,3.3239416373637414,1.001517987558602,0.3823426608376116,-0.1310033615775211
1.889609509,0.14318450913844738,0.4999637914349453,3.3365757813236763,0.9844690265048497,0.3747356200048491,-0.13874114075443802
1.909659733,0.18389144670514176,0.577027514100707,3.331441007799262,0.940206794943021,0.38547882818346135,-0.14535495305475435
1.929619411,0.20975177727931896,0.617402394316647,3.3169242682215963,0.8809903058845066,0.392367601147178,-0.15021889598893312
1.9496058770000002,0.2734924752408895,0.6697514890416147,3.321824276643263,0.8551532769445473,0.3524644706966422,-0.14815803773066455
1.9696887140000001,0.3231331543035685,0.7007666212641301,3.2875013297356883,0.8065590202614327,0.3431237581588022,-0.1527673991654435
1.989618404,0.34051645925793045,0.7820827744096757,3.275122491212466,0.7973207982806578,0.34358758574521225,-0.15614969957783803
2.009692695,0.39822955280158595,0.8098481452414302,3.2640696290876576,0.735446801227035,0.34517606314538646,-0.1591477022714133
2.029669215,0.43332505735075083,0.854160101318033,3.267039664742572,0.6835434281763331,0.34954580684953307,-0.16208612834724243
2.049627841,0.5124005910867183,0.8965435504998981,3.242414321304752,0.6560388573773652,0.3549326584909726,-0.16284940711043888
2.069633186,0.5276076583392177,0.9332663153994973,3.2353031587794936,0.5936601671774511,0.37265122724582,-0.164256397464829
2.089610855,0.616854362951599,0.9640959331385057,3.2099494814597187,0.5824379483348606,0.34717970049349317,-0.15888621554638993
2.109619453,0.660114998849223,0.9973850713114008,3.2025618128971014,0.5270178635773495,0.3447916000102381,-0.15943234507682186
2.129630387,0.7004862797672512,1.0374372393181786,3.194191734154219,0.47511545035267944,0.343355162725469,-0.16104580449428968
2.149636045,0.746357241324173,1.0767484437132047,3.189293600581421,0.4630264603965327,0.3514799676547611,-0.16115301595944628
2.16969748,0.8151556781882442,1.095042411651291,3.178936083046371,0.3940851303378184,0.35449656191976353,-0.1621051470332881
2.189601064,0.8771950861773715,1.128151209535622,3.146641950286119,0.34210321966049273,0.3637080697618577,-0.16307061267491565
2.209616785,0.9221451175985854,1.148764210329529,3.166841796302911,0.3227679568227426,0.37906403306414893,-0.16389864752267827
2.229634518,0.9817750004877377,1.1617257096313163,3.143733541869774,0.27288225992327597,0.39446804695840787,-0.16416720943351615
2.249606159,1.0633093778051084,1.1784159863981214,3.1247263652980513,0.22343986535480115,0.35045713251780874,-0.1536602907048238
2.269661536,1.1092305261057254,1.1803807812296458,3.097705550877889,0.19508146510784002,0.34505238980533626,-0.15515137840438992
2.289650167,1.1735885104202717,1.2162147513389467,3.0806357923349434,0.1449444819440999,0.351725722736206,-0.15671344900056147
2.309614897,1.2384767545939384,1.2210272794308654,3.120259673875549,0.11812359882751149,0.3542442080796754,-0.15823805505750255
2.329619624,1.2822381624740922,1.240475703207446,3.0727130790516046,0.07006010263724691,0.3553825914695317,-0.16001646382849727
2.349664554,1.3667224183432485,1.2461213951668262,3.062029214239332,0.0362907990385618,0.3654273320727021,-0.16284368987899867
2.369665301,1.4274253858180987,1.236746540157257,3.077472749318326,-0.016577387825065647,0.35876462403071196,-0.16191166246304445
2.38961461,1.4930069668892576,1.2373297819633573,3.069373255217781,-0.0647022197149734,0.35058269141149645,-0.16348410881291472
2.409615365,1.5300019680309789,1.2318026816375782,3.024449050435218,-0.07826028390527229,0.34780261875930385,-0.1649474934504588
2.429611396,1.5930800883133858,1.2198657673443403,3.0262435978659235,-0.13172287427272783,0.3310665533161136,-0.16633083631462353
2.449648228,1.6612932433877763,1.2053726884179798,3.023590447522335,-0.19196952142112875,0.3365929127855329,-0.1688677166748068
2.469660256,1.7285912887886812,1.1897064713054888,3.002282605366315,-0.23432042099139277,0.3404125796710181,-0.17079270615798553
2.4896156080000003,1.7834235892496062,1.2161866700823412,2.977480837914043,-0.27146786383199506,0.3406232427332347,-0.1726683272473543
2.50964136,1.8291095373445672,1.1544132472187656,2.960942187038455,-0.3088267201522953,0.3507034621544131,-0.17427169079203392
2.529619811,1.8955983087871733,1.1543119358762999,2.986079123531642,-0.35451081929869777,0.3388085442780385,-0.17463275145815205
2.549607908,1.943471246078476,1.1369829001678273,2.9753560087256328,-0.401640346047288,0.33189073508112493,-0.17522720981911466
2.569604478,2.0042464304354235,1.1056734729677302,2.952948189022223,-0.4568156400625157,0.3223635286429086,-0.17669348867574403
2.589616307,2.0532804240197016,1.098507906662804,2.9366433882030183,-0.49113947622798204,0.330792800144159,-0.17804379792693598
2.609627162,2.1183374375851938,1.0611548565032027,2.9088512979366916,-0.5310474872334662,0.332289613370285,-0.17929487652761616
2.629618243,2.171757620448986,1.0300623064422003,2.9126586735747475,-0.5859616865502729,0.3395982002830378,-0.18072634818253092
2.649635107,2.19390728376258,0.9861287743332428,2.9124376803323266,-0.6075284376691656,0.3469565688849423,-0.1821894945497789
2.669723347,2.2682681271196143,0.9460139176302663,2.9032644358349144,-0.6525622513105385,0.3284513070644603,-0.18141788306144396
2.689680735,2.3089358660483317,0.9186001467176191,2.9005669203901485,-0.7149653258874912,0.33009395385470397,-0.18311828816963927
2.709618974,2.321001603565629,0.8924606844609693,2.8681492088407796,-0.7431080468430769,0.32584262814546044,-0.18528788889307912
2.729614989,2.3833486887054196,0.8459624048422987,2.8696708678730496,-0.7767765530864136,0.3306930701767589,-0.18751117612901133
2.749674455,2.4149896630479595,0.7869134956556983,2.871318501840792,-0.8310090181475747,0.3329364177708159,-0.1898101807206668
2.769697356,2.453790712120507,0.752118295968926,2.8569493153184364,-0.8814536495485872,0.33699886485566605,-0.1911805398521858
2.789623019,2.483395970227007,0.7342733220968823,2.8447748035941953,-0.920108314026038,0.34577327809273284,-0.1934534138441908
2.809632439,2.5343998159972307,0.6802361690162713,2.831690956847629,-0.9691971487735052,0.3325181786389046,-0.19722088276610195
2.8296146220000002,2.557821422545301,0.6227951526846492,2.841807826652878,-1.0093705731904725,0.333204276875247,-0.1986665939247823
2.849667481,2.6000818763939164,0.5772035333104504,2.807307205628977,-1.0415581854943985,0.33310201502814357,-0.19990423600058163
2.869695524,2.6209468014068227,0.5413924180154367,2.8071892245251506,-1.103069411587029,0.3365674618643651,-0.20089164265719675
2.889614879,2.629885298240208,0.4656538531868462,2.8162483793161583,-1.146278799391281,0.3355229456197009,-0.2026722312007274
2.909622765,2.6663730701122565,0.42501809860197165,2.803822261049569,-1.1782968806960772,0.34597400107673915,-0.2038468726656063
2.929635023,2.70082959240715,0.3647247425354918,2.7898091251458106,-1.2423549515605348,0.3581319643697969,-0.20415490809904843
2.949605717,2.6872123143055893,0.32535018302498725,2.7899649473667054,-1.2925921752414944,0.34714095531377137,-0.20545841243485258
2.9696977,2.6997128130016965,0.2581214131589206,2.780671597300727,-1.349295882175928,0.3577744884964765,-0.20563473161264686
2.9896116690000003,2.72912655397712,0.2158251745092843,2.781146023483698,-1.388890507714331,0.3477192108605298,-0.2059288463209195
3.009662113,2.736978808888567,0.14621906239405155,2.7521815883498606,-1.4609462215724864,0.3540192301448296,-0.20635284508438706
3.029615932,2.7458548904311,0.10818801942018669,2.7452994507510695,-1.4790130755618827,0.3531419801296884,-0.20721925850681075
3.049644553,2.742667522261156,0.03438144209899113,2.7903105477497534,-1.5350676493310453,0.36439976679534625,-0.20804745491548524
3.069688253,2.7632217105405847,-0.006100167961220045,2.7452981214566186,-1.5604208189505127,0.37472937070934814,-0.20890797970332203
3.089611063,2.749575141328976,-0.06608088866811261,2.7563861709779847,-1.6349743508565358,0.3704172759355149,-0.20817571957547665
3.109616522,2.7355930633070065,-0.11759739617610802,2.7622847953623615,-1.669045579244721,0.3668371032425457,-0.20827143613517443
3.129612871,2.7373569338171704,-0.16581121599748938,2.7646811206075284,-1.7166606573696244,0.3716575915165158,-0.20768841294851267
3.149612862,2.718970980013093,-0.23439917514779224,2.7712373668863326,-1.7726392159153117,0.37506672234680133,-0.20709541065822715
3.16966362,2.696088176410448,-0.2966089956244819,2.7604692826601585,-1.8157523426901128,0.3722587898022887,-0.20845480407591405
3.189606757,2.7055371403803252,-0.346614741074405,2.762242114606036,-1.839886907274883,0.3820117732989532,-0.20872716289745916
3.209668745,2.6711480368031566,-0.3818005840766695,2.782894043048505,-1.9199635364997947,0.3981183078147053,-0.20852632249820408
3.229611979,2.656909282952049,-0.43914846435669225,2.7562210025733127,-1.9689779137354186,0.38755124002005,-0.2057515728255943
3.249641542,2.640540457436545,-0.4921506299326657,2.7413246826280107,-2.0037061042824895,0.3818397641952103,-0.2065598003516001
3.26968727,2.6149022767417214,-0.5409068146665639,2.764488050670138,-2.045559083069832,0.3831631049227635,-0.20668302772215022
3.289650713,2.5914199863720433,-0.5980006844973894,2.7482913443859425,-2.0752796903354516,0.38534665592498213,-0.20763407195637626
3.3096205960000002,2.5630383631841216,-0.6264742458373644,2.7662050422733455,-2.1412626682420477,0.38461016350958815,-0.20849819048844426
3.329617002,2.5227080117491383,-0.6516479990421062,2.7645283419581044,-2.1780037392969773,0.3960717508827956,-0.20860418989265947
3.349605285,2.493979768822587,-0.7352251631311185,2.765953633627017,-2.2360673963546955,0.4099322799419436,-0.20862699606105445
3.369708115,2.4590166370135136,-0.7565997916522469,2.7861317095857445,-2.307876083126322,0.41047075910287395,-0.20404815979942792
3.389618297,2.410898241543625,-0.8133456063014746,2.775402085082958,-2.3469921234182527,0.39849965432892726,-0.20445537861379648
3.409620592,2.3633920988302686,-0.8518345046056764,2.774326065912897,-2.3769460118719543,0.3951110816272789,-0.20437493803200316
3.429616185,2.336715030457381,-0.8934102379351186,2.765878947956414,-2.4266987422005672,0.3974986145027615,-0.20394759792317022
3.449609245,2.307052753757231,-0.9299915971387366,2.7682755904642615,-2.4700585218793525,0.4061285814170247,-0.203541478701312
3.469613045,2.2617301060334327,-0.9521864717361634,2.8016684869914963,-2.51254054911775,0.4117509106650126,-0.20310229228190577
3.489609107,2.208807622408069,-0.9773736294087358,2.7894113133152154,-2.5625877712119656,0.41528102342540074,-0.20368680531746394
3.509615243,2.1522492940282563,-1.0216036977384004,2.804006455606662,-2.592750629238208,0.43461247266971964,-0.20342409549677182
3.529609396,2.11395226979488,-1.0573315013347417,2.7966913010887913,-2.66091027152658,0.40967116869914744,-0.1987628190943847
3.549606517,2.0626862456767974,-1.075052938178115,2.8236029813326033,-2.6900756099323493,0.4103547481074011,-0.19919400601463194
3.569612654,2.0158960356253894,-1.0997821233974563,2.854412597348762,-2.743838029498132,0.40587922691805844,-0.19983271808539557
3.589661346,1.9688236339151262,-1.0925398406592788,2.810221725432695,-2.769089834544971,0.4044956521944569,-0.2003228556348123
3.609621206,1.910938092129896,-1.1357053392540595,2.825978490108976,-2.8202607691801957,0.41478033863029057,-0.2005858091795551
3.6296877260000002,1.8491205290923958,-1.1461027951554348,2.813677302334183,-2.879565909574488,0.41274121546006937,-0.20094389170532267
3.649659877,1.7925633255341415,-1.1424162855400095,2.8222773133189145,-2.931867202774156,0.42172785620377196,-0.20191363355590772
3.669668429,1.7480570052865247,-1.1706115579454184,2.825654420003167,-2.9750145000565427,0.4059023895081614,-0.19438843581817794
3.6896099810000003,1.6812110221991348,-1.1831468441331623,2.8359760860985364,-3.011878980127122,0.39330885476243443,-0.19501018622076152
3.70960759,1.6255638311280447,-1.1802466280056734,2.8476525795506737,-3.0679585866252475,0.39697685695604,-0.19629953628604516
3.729610384,1.5845579205474898,-1.1934272419572307,2.834159484326693,-3.1127907747061982,0.38898089668906394,-0.19633572206056127
3.749653327,1.5251417462797658,-1.1849538656074545,2.8274870060002524,-3.153305486672241,0.3955764372067593,-0.1969247449794833
3.7696420760000002,1.4589603724356446,-1.1945137332888243,2.8472430443444567,-3.1909792264512733,0.3943923702943612,-0.19772437442194685
3.789607918,1.4020142577712411,-1.1841285121019445,2.8718210257800556,-3.232637742517336,0.4083779540453767,-0.19774536718013885
3.80961336,1.3366169300360171,-1.189924742670171,2.8494838162042337,-3.3003550895466747,0.40171841700844346,-0.189931582593872
3.829607907,1.3044831950344933,-1.1815759563551698,2.826210778869697,-3.334637220635733,0.38837188421584407,-0.1905614322177798
3.849664473,1.2353571731928306,-1.1495228322877213,2.858417395200089,-3.3700196068281536,0.38492478978403877,-0.1914443832041176
3.869647289,1.1864852439210662,-1.1447750109590824,2.834476547028113,-3.425055997262961,0.3903222598588532,-0.19221604113847396
3.889612005,1.1294052830367194,-1.141475435692852,2.8422085956982674,-3.4773620562113563,0.3793726961846778,-0.192458444849357
3.909611451,1.0432589748934564,-1.1020270960299696,2.8374138955281305,-3.508671700171466,0.3754682565524582,-0.19449986570681352
3.929607451,1.0164092324868592,-1.1176485622762427,2.833496751934372,-3.5428645515498887,0.38803810176755626,-0.1954325541030921
3.949615345,0.9845752961731138,-1.0616811503172408,2.817326912969065,-3.604716555370351,0.3881573758162933,-0.19454868163692168
3.9696111810000003,0.9087223192419444,-1.0450860376515547,2.818433683210298,-3.652019965600242,0.3752657857263089,-0.19529803495887227
3.989617714,0.8806969479730128,-1.007352247575167,2.819083404146279,-3.6970229590117767,0.3703977217132341,-0.19573621125076282
4.009609909,0.8084118177011181,-0.970097721125573,2.823402877672941,-3.7453362815747573,0.37189425512579555,-0.19628924673144482
4.029609745,0.7607134268481249,-0.9627375924110968,2.821885150460018,-3.796477012181295,0.3698378682915209,-0.19668567393101846
4.049607648,0.7254331405492107,-0.9092252753199899,2.7951570106950903,-3.842298716714528,0.37185703658647745,-0.19788989427839868
