time (sec),x position (m),y position (m),forward velocity (m/s),"heading angle (rad), from x-axis, positive is CCW",throttle (unitless; -1 to 1),steering angle (unitless; -1 to 1)
1.013228642,1.618465339586237,1.3791182172029803,3.0178897449526074,-0.09462350155800832,0.414119357333489,-0.18874371028866194
1.033261097,1.6735449431837375,1.3914726433121742,2.9836513892517056,-0.12017782458702911,0.3916685369884172,-0.18499501234944188
1.053299043,1.7266409281062938,1.3922190638580614,3.023855697804687,-0.16460698081215971,0.38369773324711454,-0.18654357301244617
1.073247663,1.7966157648672434,1.3725374913461472,3.0100312100903954,-0.21153439446854586,0.3735929031485477,-0.18841402380673697
1.093225892,1.853590886314156,1.3494868520447798,3.006373212221505,-0.24880740237750493,0.3621285882866395,-0.19049817041822711
1.113226545,1.913211552708625,1.3452490547301044,2.9898201937908553,-0.29320361477678153,0.36558071036487966,-0.1925354068216836
1.133225299,1.9579443816544384,1.3185731038824706,2.963107319893831,-0.32359700495439003,0.3719790627937864,-0.1935420836891338
1.1533055,2.0206328148788195,1.2957871578243605,2.9716468482456455,-0.385800156486126,0.37968430558460925,-0.19592854137078786
1.173284366,2.069490388200274,1.2776579826172667,2.9735967059017754,-0.4193196154705886,0.36780856949446955,-0.19253558665369092
1.193279894,2.1402453962184627,1.247866338315607,2.9731155374446954,-0.4868080707751673,0.3597361142556732,-0.19384328695096595
1.213230833,2.1679905285223304,1.2392541317556016,2.9403727206199983,-0.5168873737083959,0.347962354552937,-0.196776827191329
1.233238594,2.2246872731689877,1.2026763554298212,2.9336436598135465,-0.5609434286771326,0.3466001656988908,-0.19863572089374212
1.253223443,2.2692608335835875,1.154527460662125,2.906599821042199,-0.6202245986730421,0.35118430843896664,-0.19993363235681147
1.273318149,2.3283123421081657,1.1211582372134783,2.914978351421192,-0.6551026514092397,0.346927921122499,-0.20236658400537985
1.293273041,2.376823379331798,1.0901613545099362,2.9204108388234866,-0.7107170534453637,0.34985805749134613,-0.20500586887831193
1.31323184,2.4256739820332864,1.067506679864371,2.8913157357333334,-0.7560712939722797,0.361184867051316,-0.20756081373310292
1.333294903,2.4559251918244667,1.011368760637808,2.893587118787637,-0.8147298375635252,0.3563661901431086,-0.204371856412829
1.35322261,2.4951113440639343,0.9727323300142451,2.871666934779948,-0.8334427543594609,0.35142184172690244,-0.2057602164295704
1.37328873,2.54142137548819,0.9473638313176524,2.8670607543594615,-0.888408612606846,0.35361899562768906,-0.20688894002781663
1.3932244630000001,2.5704551197798207,0.8841556439306265,2.8661153424281984,-0.9450781665278245,0.3530299367371521,-0.20868502546469236
1.4132313650000001,2.6047426668328137,0.8327734600758612,2.8713304090797074,-0.9782150551683064,0.3549418294525478,-0.21046894504340677
1.433275439,2.6245565552216936,0.7830880027449636,2.8509626970041193,-1.021396034943361,0.36271499093408466,-0.21257355319067797
1.453226086,2.67219776196929,0.7482319477585161,2.852186149256204,-1.0537308346033774,0.37410153918526784,-0.21421678712569206
1.473269757,2.707085659477915,0.6925442545983905,2.811699999175989,-1.0910914927310227,0.37577327475160516,-0.21491599725468932
1.493225743,2.7159011107499005,0.6388252224186525,2.842169139881758,-1.1381997889383235,0.3727333914100674,-0.2162499307327961
1.513227262,2.73506519756196,0.6038594877282,2.8367694699231785,-1.2086196676425158,0.36601582785963066,-0.21718418533921657
1.533309521,2.7848397078331586,0.5444140223406552,2.8175550882102973,-1.2504907208475964,0.3673249019895845,-0.218377268090628
1.553281584,2.768998694129238,0.4818135555893528,2.8233543380130555,-1.3090728615130853,0.37246844448714017,-0.21966456174752022
1.573270467,2.7797039046553014,0.43450052535414985,2.7745836945351354,-1.3700474877733844,0.3838913463234847,-0.2203618404393759
1.593213561,2.8007246552597547,0.37692008872595795,2.817160373266113,-1.4036020244575609,0.40090549923517077,-0.22100216272928544
1.6132172960000002,2.816971356331066,0.3177779123693553,2.8155532345848684,-1.437857169350052,0.39409848766207545,-0.21759673709302096
1.633217899,2.8198461085518876,0.28366565941107436,2.796006742060182,-1.4864655194430891,0.3912362228131457,-0.21823104419757322
1.6533146109999999,2.8160070571826226,0.21547863674392576,2.8029675114719796,-1.5281574125904889,0.39025491946185953,-0.2185162020250736
1.673280648,2.808093043941476,0.14187546254504957,2.8168766256560667,-1.5731468379389026,0.39089097154545777,-0.2191380522880201
1.693226031,2.8199844323054735,0.10398713911148418,2.8034675391913817,-1.651456910034768,0.40462527062691717,-0.21925365911026393
1.713222827,2.800710053493081,0.01879934182555194,2.8000883230616465,-1.6850344911368227,0.4024855507648786,-0.219850703457785
1.73322211,2.7826622518402484,-0.005880890209794008,2.7866652490795207,-1.7245486826254408,0.4136063482813957,-0.22109872426565202
1.753224984,2.8166147743728964,-0.08145683054004128,2.829661467941261,-1.7736069443784304,0.42688714773913466,-0.22125894080710568
1.773275146,2.793070662629208,-0.12160435938760565,2.8219801861706157,-1.820084583568888,0.44260213246906305,-0.22116866575150362
1.793231797,2.7594881833276133,-0.17985959136908197,2.799188785153003,-1.8695104700626382,0.41306672273780676,-0.2167618001345399
1.8132240670000002,2.7427478238760674,-0.24409371305987237,2.8267109415425624,-1.9090345163774556,0.40855978532166126,-0.21810810801198866
1.833226948,2.7475254998950978,-0.28951389841428377,2.819371619331595,-1.9564472088226341,0.41466080983456144,-0.2188417186574624
1.853285378,2.7120093373639125,-0.3316017139161195,2.827509145395001,-1.9809766609451849,0.41923633227752966,-0.2197295778288639
1.873256883,2.682712916239941,-0.38689230169075906,2.8180271607301437,-2.042791672011963,0.4211246349711123,-0.22120458509217034
1.8932239970000002,2.6530158250226687,-0.45900305353105103,2.8437286521581853,-2.0877538985003015,0.4317722490820876,-0.221860430635541
1.9132247480000002,2.6175811282122385,-0.4801562926910739,2.8307024938608425,-2.1383430083237758,0.4506375092566561,-0.22203777886019987
1.933226762,2.60230332339362,-0.5296676357662609,2.8072115950474466,-2.191294491458556,0.4662981773891273,-0.22299314390634734
1.953223112,2.566728798414078,-0.5912708592230925,2.83400455508622,-2.242733709761862,0.4879019587216974,-0.22271272251339835
1.973227461,2.5180808620371273,-0.6285646514133824,2.8371146597681403,-2.2820058866035433,0.5073086209411297,-0.22138803464380394
1.99322511,2.509643695360154,-0.6649048465094458,2.8648431891701396,-2.3293243418455107,0.4347081702440616,-0.2205352637329977
2.013225717,2.4415835342919654,-0.7070223507454704,2.852771021326089,-2.3685697900756333,0.44223716186456613,-0.22019466176819133
2.033226877,2.3998455932118845,-0.7480979275735157,2.8877465272838014,-2.435838117505746,0.45725807845198446,-0.21918030199331126
2.053267176,2.3707077059457515,-0.7839125873498917,2.8683657533572573,-2.479482639923893,0.4690190838629247,-0.21809570967622996
2.073231103,2.2938494986981386,-0.8109722805757777,2.9131559074486657,-2.4861964309125004,0.4421419528757201,-0.21238044946608858
2.093275999,2.2604540067509906,-0.8452505361644511,2.909076527641646,-2.5520345975324004,0.4341777585781823,-0.21205743588220421
2.113222746,2.2069903782895177,-0.8826060374182073,2.89699920530859,-2.6180631732559028,0.42709047306285824,-0.21185710592612045
2.133292672,2.1735777693295386,-0.9138766711609446,2.891533433272435,-2.6560862469571793,0.43059670462850647,-0.21226900267223933
2.153267488,2.1202152977851587,-0.9656694895818347,2.8973637036940625,-2.7002486506361065,0.42696744067358655,-0.21276808397578198
2.173251136,2.0713537559831816,-0.9670198127137533,2.8934839924054043,-2.75197542988506,0.4354883818805097,-0.21246142482077768
2.193223437,2.0188699824168066,-0.9877217643850829,2.8969321702659765,-2.7824061412079053,0.43804653368147933,-0.2127915928251179
2.213227077,1.9598377277940093,-1.0145875920817096,2.8932593044713983,-2.823048802279596,0.43287595296242265,-0.20151251660108824
2.233278005,1.8806680145786387,-1.0311508866771553,2.911718850853875,-2.880724672159797,0.4180521669795067,-0.20202626539682286
2.253239772,1.8558527054090965,-1.0247335402941107,2.919380466141307,-2.9290895891985955,0.4099650064914251,-0.2031472745865247
2.273272389,1.7886217740261499,-1.064720102289908,2.944787532253437,-2.9768757670566806,0.4015725019723132,-0.20483383936835395
2.293309319,1.7462205881787733,-1.0763871314494542,2.9229483695472336,-3.018095361281989,0.40456270989680637,-0.20566722221088812
2.313224988,1.6718515752417282,-1.0806462070856917,2.906065477543081,-3.069877790512865,0.4076470286788622,-0.20677246165727609
2.333280183,1.6190652262779475,-1.0695940241582196,2.93714621188649,-3.104970684414014,0.4161206785705536,-0.20819845262246392
2.353283105,1.5512687567927872,-1.0725647316114653,2.9115775080054402,-3.158056480411801,0.41960469127125183,-0.20910339650042548
2.373235245,1.520284990895598,-1.0477837994270964,2.9080701685558936,-3.190483130462495,0.3957589958492691,-0.20205221477861757
2.393223943,1.444232247103456,-1.0862213396964295,2.902940269526119,-3.2469369647500805,0.38417252385134826,-0.20264147107378477
2.413226054,1.3838458610257311,-1.078987605846302,2.8734596004191046,-3.294981980955171,0.3851821766450452,-0.20282404675897933
2.433267355,1.3372229013040977,-1.0485676436878022,2.873909050981031,-3.321698213446795,0.38556220318008,-0.2028550379710207
2.453264915,1.275616024688019,-1.0409939784983369,2.904988281802869,-3.3903528405147725,0.38068863681035103,-0.20340167535819087
2.473262569,1.2026636460681712,-1.0232709392757822,2.8822686270195637,-3.41971579596825,0.3879439687967675,-0.2043764660787754
2.493225315,1.16024829418206,-0.9897801416205407,2.873949939016116,-3.446864793415248,0.3923999238113884,-0.20463748351326674
2.513224188,1.1103446080038748,-0.9865676048375109,2.8700400922904543,-3.5133310031830898,0.38522852300435145,-0.19766804146709632
2.533223035,1.039098920193057,-0.9730403388193541,2.9093392802719635,-3.5796282229571807,0.3763366978732923,-0.19898215532994448
2.553295967,0.99785185368012,-0.9737484514915233,2.8783428181150543,-3.6272848833934037,0.3728552439759423,-0.19954429377844196
2.57327673,0.965317821959936,-0.9172833468388698,2.863957701476706,-3.648705455485333,0.36365485495009564,-0.2012261309218147
2.593219333,0.8979031778823943,-0.908734012785293,2.8536298920727488,-3.6862230386710295,0.3626714643652961,-0.20266679697171985
2.613215803,0.8661696878171865,-0.860965392479408,2.8488776331241588,-3.731064217460287,0.36744261841896153,-0.204198830509817
2.633221554,0.7999934660186124,-0.8140903747564244,2.8317566373302068,-3.793030967256386,0.373695028768197,-0.20585502492926414
2.653236177,0.7603920462536157,-0.8159013191122163,2.8301127177882535,-3.8288249636864857,0.37559678528196244,-0.20876392733427276
2.67323223,0.7221832390334177,-0.7575922901217621,2.837424039161514,-3.880233308445292,0.39652925260568844,-0.21044556195668473
2.693225182,0.6729550151907648,-0.7317949828245368,2.8355242541661014,-3.9206703870548187,0.36856771717644266,-0.20104714963391632
2.713224294,0.6312282341076237,-0.668688024070841,2.831844192088475,-3.9691496983740935,0.36437575081322393,-0.20432295810567924
2.733227593,0.6021440430520627,-0.6196264280323535,2.8132566806235775,-4.008367910410173,0.35717774743083625,-0.20733673278506667
2.753227035,0.562851343710808,-0.6059222301275222,2.8348046921475545,-4.053434499796514,0.3689140112885253,-0.209259500996305
2.773260636,0.5429052950405653,-0.5384771565090369,2.8344284253835017,-4.093351912964113,0.3715175820884548,-0.2129818428685422
2.793225411,0.5105728025080339,-0.505230320188513,2.79292259229971,-4.1306714519917405,0.3759039378546622,-0.21605587019808678
2.813225172,0.46758482995703204,-0.4644099998977205,2.7975078737921404,-4.195667793432191,0.3919008851873417,-0.2183625856103993
2.833221389,0.43237802512789447,-0.4152734311935023,2.815352804483758,-4.225395744600131,0.4058990358055118,-0.22110041005387565
2.853255244,0.4016301872411403,-0.378537320949871,2.819368949718336,-4.283998589158205,0.417336080556974,-0.1615875528142967
2.873228778,0.37974301419733925,-0.31358775448829884,2.8621212093983592,-4.29064249134819,0.4248257182027277,-0.13653034877211218
2.89328084,0.37183441967255304,-0.23351064700441532,2.9004559184010663,-4.345250110245137,0.4436305544323591,-0.11182410263295339
2.913226008,0.34066724860676034,-0.21296936175118739,2.9415572881188585,-4.383204007207238,0.4609892919596294,-0.08763389191061116
2.933271391,0.3174464976020674,-0.14512012101851704,2.961662922800653,-4.3582158649440625,0.47595732629101883,-0.06275621841567687
2.953267532,0.286610522923435,-0.0891325557982319,3.0253627220534622,-4.359445371406454,0.48865671612802175,-0.03795503645349358
2.973225786,0.2893986699319415,-0.030657465087302195,3.0281811828429204,-4.361524545793962,0.47338065053629036,-0.018033437467375464
2.993225513,0.2675304313398464,0.027003641977035496,3.097302458308906,-4.375167857593975,0.46227236733538785,0.004259731730063007
3.013225306,0.23777568831307452,0.07437670775998446,3.120211641621242,-4.372273751344887,0.45403800481868145,0.024589736356635646
3.033267031,0.22701603293411593,0.1261932113870427,3.1447446217862565,-4.3588550731174935,0.44593091039007615,0.04248798777131684
3.053267806,0.17003532582789724,0.19426338302024204,3.1730082020903323,-4.3359980133683145,0.4396968859388251,0.05816578382762686
3.073225509,0.15327926665328093,0.2614053038476083,3.1884962517173308,-4.34566031249985,0.43212699978486835,0.07260302004896224
3.093223511,0.13656089884516323,0.3328611019027717,3.210324814393385,-4.309656040913358,0.43244206839845056,0.08510053435654144
3.113225622,0.11463660010278674,0.36311054477806615,3.207798423363951,-4.318082209171798,0.39810221867261064,0.09558117051336919
3.133229169,0.07264685409114596,0.445123627455766,3.2348495749401325,-4.297152339444678,0.38554323998740264,0.10722768817067319
3.153266964,0.06067489138027794,0.5064232689814027,3.2534539702804555,-4.2693118403914205,0.37383151997774233,0.11801464625833076
3.173266054,0.0020027994959645953,0.5450763628676211,3.265905411258322,-4.2492795016858755,0.36154538782375856,0.12804869326098287
3.193226293,-0.008935550801854233,0.6164954564575372,3.27599313672793,-4.212252469225973,0.3597887598797034,0.1378593754591058
3.213224165,-0.05495472566797633,0.6736828580561903,3.2826709689062046,-4.187948051721727,0.35250297602711367,0.1465217591069716
3.233226533,-0.08807336987867401,0.7324879815265612,3.291644700238962,-4.159361539204298,0.3578462538083739,0.1532298354585951
3.253289251,-0.1161493484164419,0.7757642738371622,3.283643788954636,-4.1313976531454255,0.35481780810726204,0.16000604373952398
3.27329601,-0.14086614516319038,0.8084885642514068,3.2714061701117765,-4.099089001922582,0.3337077955400786,0.1556676660866973
3.293221538,-0.18513324929046626,0.8780514223077465,3.2654617871193157,-4.065822780686213,0.3149678195560232,0.16345131659967818
3.313223546,-0.2354371730577636,0.9317171812498354,3.2798637639106762,-4.027754969443224,0.30748995106451044,0.17089922685575643
3.333229224,-0.27278036950658197,0.9850806183432016,3.2532279320669195,-3.982947473089841,0.3081968219680904,0.17833814915182594
3.353268313,-0.3081593255986857,1.047027235961248,3.251654810855788,-3.954610298999678,0.3044599196928122,0.18403631333530537
3.373266062,-0.3764941310092339,1.052105390339692,3.2674077471983756,-3.9070883399961644,0.31563858445118353,0.1902177909079189
3.393231305,-0.3977026929012858,1.1406719874138265,3.279199698873098,-3.865891572860812,0.32363699755348974,0.19648757120295873
3.413228453,-0.45804704273289015,1.1704344893305132,3.2923819552425493,-3.8157867954368143,0.3209359156896387,0.19506084074661997
3.43327649,-0.5160228413866355,1.1968951755402508,3.241822484111605,-3.784468580935308,0.3138949220750352,0.19906703240710694
3.453287284,-0.5689708676518709,1.2464241262775415,3.225717367356636,-3.724064266399777,0.3111833778820409,0.2026417640586161
3.473207684,-0.6331266922878594,1.2915161713016683,3.237483499297735,-3.686573571483479,0.3149316062353187,0.20564262377596831
3.493222683,-0.6927373982920555,1.3130211900801452,3.2092495775959446,-3.632924005454384,0.3144086979148025,0.20816902805147694
3.51322242,-0.7172955010746795,1.34456508345898,3.20330790006476,-3.6017293238118997,0.3246250195640535,0.2098913436584378
3.533272782,-0.782618145705727,1.3917371336170576,3.2137257460358404,-3.5509903844573247,0.32871753565007034,0.2108541403529911
3.553281041,-0.8452760134628584,1.4049879751702659,3.180347186962592,-3.4962151744047536,0.34479210384118675,0.21040947579392863
3.573312685,-0.9292694127171722,1.4212715621978722,3.1607641722951425,-3.4367782210491296,0.34340080776510246,0.20992379305090833
3.593224796,-0.9616183804812858,1.440983488882826,3.1555001137906413,-3.3704513539640444,0.343766401769307,0.2088162249984975
3.613221522,-1.0364276430640937,1.4512864262407408,3.139439934417194,-3.336146525341514,0.3541208882935099,0.2076463384806338
3.633226272,-1.1032319831929063,1.4688608277265993,3.1469848749090144,-3.2844156554013395,0.3604274529279794,0.20638889891793083
3.653279452,-1.1667517436527477,1.485720163969079,3.1565592550323087,-3.249086690518512,0.36574158613130275,0.204932693798246
3.673227788,-1.2115938572447222,1.47716606344231,3.1058313383205296,-3.187578458906637,0.3867398387835219,0.20318505460076522
3.693227611,-1.286362333966522,1.5069525915439799,3.1206935375811202,-3.170200414821849,0.40736460043782047,0.201466719159995
3.713223551,-1.3336873316965234,1.4991520168916483,3.117803632750649,-3.121065908877119,0.3999091820512847,0.19240982382847097
3.733276452,-1.4222059499381616,1.4788143774473568,3.142652001945575,-3.0589567169940306,0.40529108457473323,0.19188805790941788
3.75325943,-1.4823468600517213,1.4975374618559993,3.128326396951676,-3.034401508394464,0.4075539033375184,0.19195552146800063
3.773228075,-1.5345664519403954,1.4774540243537426,3.133143452048495,-2.9694707577780757,0.40488246610207224,0.19169197441168837
3.793226132,-1.585248543437185,1.4660382352128873,3.1240827856160656,-2.957087605336148,0.42076835426928905,0.1923534914588082
3.813223611,-1.6441096170889704,1.470794796820328,3.141120149411828,-2.9045112311859325,0.4257762222286916,0.19283247955752353
3.833323075,-1.7228033927102888,1.4364295465120933,3.1607524449266955,-2.8584145135987273,0.43773098091101503,0.1931205111133486
3.85327154,-1.7525579778075218,1.4204088448210852,3.133606809590297,-2.8172255263910664,0.31960540618310646,0.20061700728584694
3.873251612,-1.8322538510226167,1.4155696763884322,3.1407040815066134,-2.765496187294205,0.27834246940637924,0.20511129224978064
3.893283737,-1.8802203368531847,1.3621559031993242,3.094486880769671,-2.727958567687001,0.2402425307500604,0.21027761102537074
3.9132255330000003,-1.9492287722549617,1.3772098475247203,3.0789586257549435,-2.6754564888181487,0.20883481820433875,0.21679970691257364
3.933269566,-1.992684399978578,1.3409832003991038,3.0295549934800254,-2.628140503637391,0.1776810729479052,0.22436500125021464
3.953262557,-2.047428838856694,1.279181916135249,3.023047948738016,-2.5819525316979286,0.15447761099493473,0.23182178405904028
3.973250895,-2.114422610293614,1.2607295979790385,2.980697108572855,-2.5319392693166134,0.14068583829163794,0.2398909687090186
3.99322504,-2.173400859830067,1.21186587859366,2.934641502976462,-2.486808416459145,0.13449053645950063,0.24882563258198342
4.013227272,-2.180807452880813,1.193364348001852,2.957359300785673,-2.4441334055559967,0.28899006653914194,0.21636526498822634
4.033254179,-2.2383817677554663,1.1620627781017367,2.963322464516283,-2.3648974464754935,0.32807733163852837,0.21040414219879214
4.053268738,-2.287524070153054,1.1169043718082066,2.9504692034738538,-2.3254204549075332,0.3668836336176988,0.20483945185763483
