time (sec),x position (m),y position (m),forward velocity (m/s),"heading angle (rad), from x-axis, positive is CCW",throttle (unitless; -1 to 1),steering angle (unitless; -1 to 1)
1.018132407,-0.7190742137035878,1.0735106438728494,3.4845722264424315,2.5136413893722267,0.368720822265664,0.15984641052339302
1.038134499,-0.7659498585967199,1.116324178972685,3.497671632555731,2.5484520266174697,0.3790269165371129,0.17186266267328407
1.058133184,-0.8174474930073035,1.1599848452707797,3.480340526512798,2.580681843301781,0.3323395547597464,0.15992798034520275
1.07813263,-0.864318936819689,1.1790559712147453,3.461893126851766,2.6015822922529903,0.3066744910622189,0.166830790717479
1.098132666,-0.9411394593080944,1.2200138810212804,3.452114483161682,2.65109356868149,0.28698891552698025,0.17186884908549427
1.1181322200000001,-0.9798678355064728,1.2770214170213217,3.4409652130833455,2.6748279164876227,0.2773095780421937,0.17742689255089614
1.138132522,-1.0425868242251912,1.302820600877942,3.425852170936752,2.746997540113226,0.2659612237819929,0.18267765199649788
1.158133666,-1.112973003069993,1.3132881167158064,3.410294312670988,2.8122020068328157,0.2647674265162687,0.18726059402971487
1.1781337490000001,-1.1795806767614887,1.359529356598852,3.3684975323249113,2.856127135919085,0.25473139404161305,0.2033189631021149
1.198133321,-1.2464336209646367,1.378897756539773,3.355145689346595,2.8932495885810074,0.24841576152888661,0.2036349241638449
1.218132591,-1.325335011957057,1.3903905768683875,3.3123717668274355,2.9518694632644746,0.23969200401450005,0.2034467818961919
1.23815281,-1.3760493421791178,1.4066658543272914,3.294253838266885,3.0082252617556504,0.23561787337437634,0.20322070005304904
1.258130133,-1.4452131806381825,1.4119955517328886,3.255913285783552,3.0457122598931035,0.23416594598193788,0.2023530887647767
1.278130793,-1.50677269721494,1.421133723871902,3.251707023957121,3.1040044404279867,0.23850491104413388,0.20079350241023383
1.298130904,-1.5773877164741,1.4410464318759753,3.196374541439766,3.1457595138131698,0.2499413667581634,0.1988332803231053
1.3181322770000001,-1.635739057606766,1.4283062676206837,3.1729299105331803,3.194577432552552,0.2558100035409912,0.19716740341317993
1.338130328,-1.7085185304904305,1.4262763813487973,3.1501406584004665,3.252806876359212,0.27173982411852055,0.199484616697634
1.3581330870000001,-1.7527408567238894,1.4512342577102824,3.118545339738034,3.280567146924757,0.2743715394896876,0.19986840517145854
1.378188735,-1.771637953665617,1.4202605108892181,3.1255681989997415,3.3147087287316035,0.2737276739829899,0.2001486700837166
1.398133243,-1.8562018874199113,1.4226958694187388,3.0848870104192523,3.370070635339507,0.2808664319940262,0.20126464868083185
1.418130127,-1.9327377635389393,1.3970034702102743,3.0919105599735826,3.437606922547323,0.293870570164082,0.2022888276250986
1.438130951,-1.9987276148158342,1.3815711906787331,3.072696561664945,3.4709890956013143,0.3046374002328466,0.2043462048946376
1.45813473,-2.0316035038046922,1.380485359259894,3.0361553888459767,3.4983643100263246,0.3241049750107919,0.2060748753934408
1.478133182,-2.0992152458598907,1.342652584232073,3.0313569936543976,3.5511721277484445,0.35332752371406073,0.20622208372279274
1.498149161,-2.109241935909234,1.3548450694770657,3.067535950707514,3.559008004983457,0.3516383774383441,0.2153398228469229
1.518129138,-2.2215526507862258,1.3113622515689858,3.031930116210411,3.624310007355158,0.3636076142585386,0.21724663034079975
1.538133034,-2.288053872017228,1.2830686707998067,3.011986811142582,3.696976606649287,0.37025368207581116,0.21333363097822786
1.558136784,-2.3230982656009433,1.2515175323463141,3.0330556383542824,3.708434388869989,0.3776032097442505,0.2166777425380848
1.578141325,-2.3893689160038387,1.209935364616131,3.063715425614738,3.785547385896425,0.399613320022189,0.2265173638116219
1.5981422969999999,-2.4249174912580154,1.1815176245823877,3.0450979566684047,3.8180445860927206,0.41240527369435603,0.2237141288042977
1.618138416,-2.4828647417882466,1.118342328009606,3.054871659094036,3.8478299634317974,0.4374817156098504,0.23971416927089062
1.6381450069999999,-2.4881804424487504,1.114676933367941,3.036324412870419,3.885358004110061,0.44776998871533735,0.22566527835018801
1.658130115,-2.5574827917323715,1.0536595271703542,3.0569451471724713,3.9265173504695805,0.450111848301898,0.22804396159853343
1.6781506300000002,-2.6242163148365094,0.9995671876062091,3.075443445555298,3.9925489669320062,0.4465134282370392,0.2299692966641889
1.698133235,-2.64873735758351,0.9676205097685716,3.053210031352566,4.042003202355154,0.4547965013740773,0.23107094292856056
1.7181323970000002,-2.6837854662306815,0.9240784965080598,3.073900256032821,4.125477602252201,0.4659326584245811,0.2317646520822286
1.738140618,-2.7107240199337235,0.8648633134736904,3.08818249917271,4.137289098320717,0.47677989904575785,0.2329668352977845
1.7581463,-2.7440011686700916,0.8388763183858788,3.09259984762666,4.181928696365323,0.5017696799507761,0.24032884170842198
1.7781767990000001,-2.7781868936890044,0.7420069581375867,3.1053306396556963,4.230641228502402,0.5167632325781303,0.2250628787230105
1.798132139,-2.810415690259421,0.7151346698265374,3.090937472971571,4.273643608834214,0.5128830364320891,0.22514174856295427
1.818135491,-2.858484850016412,0.6402466167576956,3.1304220361558714,4.329985669295444,0.5133487510098326,0.22517060962533922
1.83813591,-2.8649905833823457,0.5898318620803207,3.1399911455964244,4.398853753026891,0.515989899977242,0.2240090692987931
1.858171094,-2.891142675883773,0.5772610003959651,3.1596517184774124,4.386859782627764,0.5138408893657351,0.22321193091087865
1.878140985,-2.9250077390567313,0.46911830462820614,3.1867003238044678,4.47312134134021,0.534583033881086,0.23032617159962482
1.8981439340000001,-2.9335714693768655,0.40287928665551315,3.2041145270960594,4.531591489740529,0.5327749637211353,0.22244413299756094
1.918188401,-2.937649815892446,0.34115343548138755,3.2073171458185126,4.5661695064303816,0.5548930261216978,0.22155513382266376
1.9382145990000001,-2.967081124626248,0.2845404393720453,3.191920631327734,4.615290349910762,0.5540730082017868,0.2135733792113166
1.958131483,-2.967438619934066,0.21009761219958706,3.2362428120901545,4.648001934928793,0.5414027874485222,0.21200122321906847
1.978148687,-2.9742083545153633,0.16274089407132808,3.2271558773487614,4.721078997154592,0.5477902377246234,0.21797418622851597
1.998139059,-2.9673417167063953,0.10162140575091946,3.2463923308758265,4.763928473541899,0.5307687645740092,0.20996187513932943
2.018135775,-2.971143472763677,0.016178195860193072,3.2791307530694125,4.787667848234308,0.5359742247658825,0.2093650358868578
2.038146944,-2.9772170510312423,-0.006491108249833446,3.2783043382099533,4.804029165512225,0.5454239972817279,0.20904915293340517
2.058147877,-2.970004226439043,-0.06680896835029061,3.3024815282087068,4.854755874071546,0.5553953297461263,0.20849142249770425
2.078199173,-2.963099253794867,-0.16541911448844324,3.3630233987063893,4.9151879355016215,0.552485428624756,0.1987533212390096
2.09814756,-2.9418797539887156,-0.20184636288170782,3.2959575689490515,4.969252544209108,0.547896932954259,0.19834827558644186
2.118180759,-2.9326469591867044,-0.2994538864358004,3.337681122499845,5.016635114002684,0.5356133378183594,0.19794710348248434
2.138191318,-2.9369674572825275,-0.363221556250675,3.330378220677965,5.071558978629472,0.5212300175791053,0.19728037383806668
2.158145064,-2.905876743799331,-0.38838898138298905,3.340116758382355,5.083729807465383,0.5241960914665383,0.20321352607248
2.178228216,-2.8600914593590843,-0.4959633007807622,3.334809377095963,5.136834614377386,0.5273267435867169,0.20288239285242948
2.198188029,-2.8652605935811035,-0.5538068288236069,3.362296637043927,5.191047922725055,0.49777161393621006,0.19458183138657922
2.218140104,-2.8251994015427933,-0.630378592896242,3.38142894740182,5.238222145168451,0.5387784041276494,0.20117308861297284
2.238143153,-2.8125001487258627,-0.6748733860840869,3.3867922956232577,5.271816473747029,0.5049284738590767,0.1895241836040138
2.258149651,-2.774653381143035,-0.7516442083391528,3.3794025711180065,5.324440462910965,0.499230256657901,0.18885290905308044
2.278183647,-2.7199375845619493,-0.7706379283886298,3.3839853308682124,5.357091853596377,0.49480606767541413,0.1947500655132643
2.298178789,-2.6786997953703287,-0.8579942841825402,3.4032647968602867,5.410787456003429,0.4788706080711427,0.18896739149288508
2.318143967,-2.6453513854627975,-0.8990948536302759,3.369413184356192,5.445835340512255,0.4755637031197926,0.18869582575209978
2.3381360620000002,-2.609088836578545,-0.9622504662042839,3.3634690191494476,5.48071879473631,0.4724612140041988,0.18869122398144264
2.358136182,-2.565083303967894,-1.0020060280907641,3.375697764051068,5.549020707479796,0.4732491672711368,0.18905219619471525
2.378130744,-2.5387207926076827,-1.0556564551061844,3.3824300361627673,5.552226206111195,0.4614625933912927,0.18281735735533497
2.398132875,-2.469511046862658,-1.0974585825868508,3.3742190263346896,5.606514707629641,0.44138982125841586,0.18329315755933343
2.418171717,-2.4338385293822644,-1.1408463783761593,3.3832215024197603,5.632405310806697,0.431036399031913,0.18396010140179667
2.4382351,-2.3799538383976726,-1.185574505703947,3.3838658103104926,5.679070868435668,0.42509244550750624,0.18462841205473637
2.458231263,-2.316001346769381,-1.2319972006235134,3.3940347754003906,5.715601134229488,0.4216616530429389,0.18633906709189246
2.478217732,-2.2613281767839313,-1.2632172538513673,3.4023088625983484,5.752661104591044,0.4062936412320843,0.18825933334919226
2.498216325,-2.2081611591379655,-1.30288520627096,3.370143161970665,5.804336534040038,0.4093187123347726,0.1900384421002852
2.518219485,-2.146907381228509,-1.336473319874484,3.3624893591505165,5.8191170379599955,0.42003203511497894,0.19264524762238897
2.538232876,-2.0839063222824294,-1.3478236187449795,3.3574474318974694,5.895016860119287,0.3890253869173766,0.18886925295297066
2.558141147,-2.008983285176326,-1.4057579515365302,3.3355479618641315,5.927189407401322,0.37308558021799526,0.19006140065254973
2.578142766,-1.9556389093375612,-1.4007079114863663,3.3117164610240373,5.991600359719621,0.3617360433001427,0.1919485941617532
2.598231451,-1.890231790543367,-1.4429053779417562,3.352016318007005,6.039806920242134,0.34309958089740755,0.19452944967172775
2.618231118,-1.8418130089634346,-1.4899439248299324,3.30546012886746,6.061875693746281,0.34695998975089004,0.1957092394538934
2.638233079,-1.7558779920428607,-1.4595958933968092,3.304798464052104,6.101385088824276,0.3433534053168629,0.19787203582438123
2.658247137,-1.7140126702049192,-1.4786784965087019,3.2837801693404485,6.1436705617971095,0.3499504375413883,0.19847918403654397
2.678216169,-1.6184628593843013,-1.4936689663643206,3.274964680277527,6.215344572162995,0.3412180979173528,0.19784603956360108
2.69823622,-1.5561423755235486,-1.5066336566026879,3.2444239858582415,6.237249832029642,0.3293857710017302,0.19807703642397906
2.718152421,-1.507559000208885,-1.514748682128258,3.2229131649187734,6.272015276331671,0.3080848988396635,0.19870371443980606
2.7382137230000003,-1.4484293732587499,-1.5286834533624583,3.2362980948512954,6.3241027292812095,0.31610392180274643,0.19974883135148522
2.758258669,-1.4083633549897916,-1.519000151284971,3.232885427996582,6.375972364555543,0.3174661627718928,0.2007147050697617
2.778142602,-1.320966299129755,-1.509193558720632,3.2050360636747937,6.408554288039775,0.3192288754014442,0.20194657656953857
2.798145023,-1.2543891167069787,-1.518013869944337,3.1982728281844266,6.462197301804286,0.32632423326231735,0.20317157017467732
2.818146043,-1.186954612668272,-1.4990817801418082,3.1820763277965844,6.504873072761771,0.3254339035703723,0.20532571737451966
2.838138468,-1.149335495388086,-1.5102297985955695,3.163648416224191,6.549905372831413,0.3203447515927383,0.20696766819895962
2.8581335770000003,-1.0714133790614784,-1.466467551077526,3.1508169848485688,6.595283399987045,0.31764735523620086,0.208641937027358
2.878142784,-1.0138225163418246,-1.4714269235781134,3.131859706184112,6.659490144706329,0.31696281118215,0.20977509606579656
2.898132405,-0.957275002607937,-1.4247960582901944,3.124675317756439,6.687111960225824,0.32478042137372665,0.21118898990700855
2.918134181,-0.9057359269679858,-1.4036108490458856,3.11946998410309,6.736595893450166,0.327206366286826,0.2120478177024205
2.938134416,-0.8378513850038959,-1.416063681019052,3.104298494328274,6.795306645941757,0.3463233393608316,0.21303807928711183
2.958224844,-0.8092730405194765,-1.3676047980206487,3.105065430281156,6.808539636182066,0.3628932032311859,0.21380690664073942
2.9781319340000003,-0.7142460127270416,-1.3311543138474686,3.08328515538207,6.874440333794864,0.36222614793840024,0.21054194873086476
2.998132932,-0.6785647336011141,-1.2867473804015057,3.0697327918186548,6.929914335352005,0.3660198561022016,0.21148477956824657
3.018134055,-0.6089247148325891,-1.2596598464777877,3.070795635714226,6.956584339805706,0.3704357092562933,0.21224563689860093
3.038136155,-0.5888521944345992,-1.2286305064038543,3.0784230424787404,7.0015415380845925,0.380950218843078,0.21382706316396624
3.058134675,-0.5380060275610279,-1.1801221194408147,3.0751044579722517,7.036803946096292,0.39613715844861064,0.21541870249545217
3.078150386,-0.5281817106830002,-1.1895956554178213,3.0523879174128585,7.068605418102128,0.4134944475564847,0.22359344457608787
3.098144598,-0.4735895718852124,-1.1290818404221623,3.06971416673783,7.116491607010363,0.4340989626020646,0.21862337127227047
3.118150281,-0.4148400730086308,-1.0893511861789003,3.0826260863064445,7.155829994367098,0.45849444892392954,0.22657156681302618
3.138149172,-0.3746386708556495,-1.0360607036592546,3.0898920116771156,7.212403478858001,0.48677235761318655,0.20346994474772773
3.158143897,-0.3585580667170224,-0.9947777234032504,3.1151920227781322,7.232360635269124,0.517117492721311,0.18049603319359342
3.178155411,-0.27048364611059017,-0.9013493098080608,3.1533687407611524,7.309689587007335,0.5516432418146251,0.15826846134930833
3.198150322,-0.224783707692306,-0.8604526269533532,3.2010739584374885,7.34083320003217,0.5929418969172355,0.1483350747858866
3.218204574,-0.21041023027815867,-0.8127511855478177,3.2403895372289937,7.362802211877715,0.616818796281669,0.11998709565636095
3.238188713,-0.1830081552162379,-0.7334230251938534,3.2964903488210124,7.387075545747371,0.6452597952492721,0.0979401899716052
3.258213097,-0.13957511476176854,-0.6767503813647974,3.361239481259509,7.4231653315470325,0.65,0.07643005876884451
3.278144959,-0.13586267862480028,-0.650046159213455,3.3468491217835443,7.436132079251329,0.6351665655362492,0.06390621110101904
3.298134679,-0.0895380838268904,-0.5567688686081067,3.442178802751226,7.441746102522789,0.6197488717926034,0.03691852010354301
3.31813009,-0.06365076814735882,-0.5067154502631861,3.4767021936691287,7.442152031731002,0.6174407906717677,0.017229734003551003
3.338131094,-0.013521663693317337,-0.42769648316954323,3.5290868297770537,7.431622778932276,0.6117102136575264,-0.0017791925782735581
3.358131296,0.009277550374703562,-0.34654019804855346,3.568753108764476,7.451460337776935,0.6071056424692993,-0.01856652876570143
3.378134957,0.020170920845401938,-0.29513176251002055,3.6238622804034426,7.442191684926836,0.599584860297098,-0.03433316030771191
3.398134824,0.03238690754301281,-0.2315418081075828,3.6797887839104466,7.447788328540461,0.6126745238498349,-0.045307179515334334
3.418192339,0.09700640397964644,-0.15570965376349552,3.690034598939677,7.453768296199934,0.5369259377306,-0.051391164277539994
3.438135296,0.1143336955996493,-0.08511723029396326,3.7374704692881116,7.434115449573934,0.5130075183418352,-0.06240022593623183
3.458191595,0.13630123459127325,-0.02658478534813902,3.742007978296056,7.42012875597679,0.48928216630527155,-0.07192066065140418
3.478151777,0.1830353584551857,0.0331766296382566,3.7695646265241947,7.434292243303432,0.47161525639850493,-0.0815916348640295
3.498131019,0.2254331116278317,0.12475808541542818,3.798993231496933,7.429731110089034,0.4455770356765704,-0.09135065567880245
3.518129673,0.2424553964845156,0.16888326855472685,3.7921884843409495,7.414469694490602,0.43187921392790524,-0.10115535725874694
3.538164974,0.258983844261023,0.1687934240202197,3.802982585287198,7.425051473794641,0.4211563663089721,-0.11078968930039719
3.558188892,0.30281543179603637,0.23950645602594625,3.8242854028524786,7.412480669807745,0.4035837740385573,-0.12055946911863241
3.578133643,0.3537745016056594,0.35311023421266463,3.8224068977419385,7.379403835179048,0.3576427533297216,-0.12719438121919102
3.598130352,0.39423461806624327,0.44341939697029764,3.81267111284191,7.347321769591627,0.329276597970829,-0.13714287864889893
3.618132196,0.4129371736209437,0.5007934718576733,3.807725636083742,7.328675464877602,0.30993198891141926,-0.14622708828421396
3.6382620020000003,0.41632227537920957,0.5125878346598223,3.814762409729869,7.318320873343149,0.29111558893718026,-0.15539319377771232
3.658131085,0.5091886648567948,0.6460806480636289,3.8109352283291735,7.266039909108398,0.2907163751620768,-0.16657799957058178
3.678130594,0.5506446179727057,0.7194122004736317,3.790477002158645,7.2413103252796125,0.28203163517089636,-0.17599962514225695
3.698160402,0.5774223750856438,0.7238284260530101,3.7677518025463543,7.219193412000627,0.26478511148991724,-0.18181501968632605
3.718222191,0.629432045194233,0.831672072698736,3.7523201616886603,7.158246373450654,0.23243715413943006,-0.18743321858872325
3.738142583,0.6716679405202576,0.8489704254342967,3.731854737587435,7.166467261806017,0.21861820865558046,-0.1935739156765195
3.758129509,0.7243320380469208,0.95489458156323,3.7108502022363754,7.10334897480385,0.20949610715437722,-0.20548245377897678
3.778145584,0.7677777258185459,0.998218526894651,3.680700746052603,7.032357167174133,0.18359403954694803,-0.20393583950685892
3.798132466,0.8348970353492354,1.0514859360439894,3.6185553851743246,7.0136722625346275,0.1805711406389252,-0.2076497533497153
3.818131224,0.8804073806615014,1.0768994097865379,3.591469888743154,6.952899885085214,0.17678456721066932,-0.21588709233030004
3.838131291,0.9376828111859774,1.1529653769206014,3.563755478165753,6.92787439498696,0.1742483075123807,-0.21306438582032652
3.858134991,0.973797334662641,1.1744448859875045,3.546508282786644,6.874461988172505,0.18014466361780213,-0.22112942830972085
3.878132013,1.064223090272328,1.21411891772295,3.4666523685445663,6.8145880765650215,0.1662277659826031,-0.22097493617781752
3.898133675,1.1109644317246201,1.2616155498581014,3.4382112877565567,6.758866481250168,0.16142114549147893,-0.2224500372528597
3.91813066,1.1800617048365787,1.3071232631502214,3.4007390355131766,6.719003910841064,0.16649093859595593,-0.2230403854668841
3.938129361,1.228936028118068,1.3342254804554048,3.370788282039053,6.667452162751736,0.16475071943130373,-0.22417497021465327
3.958134016,1.2861517709163202,1.3415373286380747,3.3261960756122892,6.623032134483836,0.17053572845750156,-0.22449818152869383
3.978130544,1.3474569173298625,1.372440739316409,3.2880364283471715,6.577110278981541,0.1791603910966788,-0.23224848583237628
3.998133175,1.4143571125826984,1.3843905036249995,3.278249130570393,6.539061740068539,0.20125240659626065,-0.22621161542744983
4.018130896,1.4926483352919597,1.4265623359617967,3.2237370684175826,6.48675678583151,0.22996095971659394,-0.23559875820057705
4.038131512,1.5389357014592642,1.4244680492140571,3.2042986505788247,6.441078580198986,0.23348305336079558,-0.23807851821806555
4.058135818,1.6179761733423599,1.4442663662747208,3.15827053121959,6.385750945451613,0.24139831252135824,-0.242285719690185
4.0781337539999996,1.6569745186551619,1.4371045803768914,3.144921946543903,6.351734662389292,0.25846303657304326,-0.24582719921028107
4.098132473,1.7362958586909434,1.4396663998995258,3.113115943231977,6.304238068754143,0.27703939454904153,-0.24932881253902495
