time (sec),x position (m),y position (m),forward velocity (m/s),"heading angle (rad), from x-axis, positive is CCW",throttle (unitless; -1 to 1),steering angle (unitless; -1 to 1)
1.002652924,1.9658565252617435,-0.9519200601771053,2.8616526324972837,-3.0915207546586068,0.3994443472139471,-0.23040096605552368
1.02264963,1.9103258600221955,-0.9436765233434554,2.8382588506359068,-3.1338807597680556,0.39506605072741097,-0.22893168128529837
1.042668837,1.858822504547365,-0.9712477464321476,2.8338685125913594,-3.178331394928829,0.387190564399499,-0.22780449409410009
1.062722971,1.7878316890946715,-0.9403024153936229,2.839761603303206,-3.2233098799612363,0.3829873444282621,-0.22657582945683677
1.082653174,1.748728566989392,-0.9481935303918864,2.844658245307273,-3.3021369578760416,0.3845405064118089,-0.22442165145707405
1.102660229,1.6958585138987547,-0.9223526868173489,2.8369149315130064,-3.3352390974511867,0.39023124376067364,-0.22286558681228047
1.122655121,1.6259214670095474,-0.9092624840622237,2.8395677638157104,-3.381022401940511,0.3937523564344334,-0.2211274493075288
1.142702127,1.5685890484462663,-0.9245194093381798,2.843054037736857,-3.4290942869873353,0.38494838759247185,-0.21635893616341303
1.162718775,1.5114103789530535,-0.8968895649790085,2.8213095564299637,-3.4888746896623797,0.3834311569736853,-0.21468301958837657
1.182702211,1.456774687038798,-0.8705514031996944,2.806016102403955,-3.537048385099537,0.3754745530140854,-0.2134036736026784
1.202666845,1.4085786527233024,-0.8710585460173697,2.8113385794604677,-3.566807563805647,0.3671827065116091,-0.21213413626044444
1.2226498430000001,1.3690547370470556,-0.8294180873812232,2.79828554710766,-3.627458236580488,0.36514811030983985,-0.211163419745166
1.242701865,1.3074396828063402,-0.8072696287224106,2.819220837633491,-3.657448312062169,0.36432067797719153,-0.21024751525957974
1.2626650879999999,1.2626887770535626,-0.7805406153731116,2.7897767700941416,-3.7015854927331677,0.3698433892535207,-0.20954326011683508
1.282651185,1.2178864873230686,-0.7552531886715049,2.8056274280509235,-3.7637795464014325,0.37617608421188586,-0.20853355577151325
1.302656918,1.1666990394250336,-0.7073419917729776,2.798887128508283,-3.795614777582557,0.35859243417653947,-0.20505171495181268
1.3226543099999999,1.1479326115147186,-0.6857407744143242,2.7818290967188837,-3.8548702534325785,0.3545741716811643,-0.20483086023191643
1.342702215,1.0748785058569326,-0.65181513166796,2.757917118817035,-3.8739687520105868,0.35136449632975253,-0.20492907473331376
1.362723273,1.0466517032122067,-0.6102202804576462,2.7712169532314457,-3.9365787540096955,0.35067365260322697,-0.2053648682955618
1.382672199,1.0080865619793102,-0.5758315326520873,2.7580887132056406,-3.9825780169455527,0.35437474169152317,-0.20576485436042144
1.4027101910000002,0.9713445579114316,-0.5362621697237997,2.723741283390478,-4.0272537558025325,0.35649070583762377,-0.2066333704352957
1.422656629,0.9558422798433877,-0.47189626388108574,2.7592648355559013,-4.085945480604329,0.36421709583280604,-0.2074988984575799
1.44267389,0.9171104639931362,-0.442245187971261,2.7495724135397595,-4.1430121518867535,0.3687373941293227,-0.18985209603870232
1.462714232,0.8860882481241298,-0.3794328557325452,2.7768921658082717,-4.167423290245117,0.37642323759641194,-0.17760978442052752
1.482651866,0.8478666525180717,-0.3527334834438997,2.8003888882274284,-4.209817513871402,0.3795015648830789,-0.16645698895555486
1.502656449,0.8177008469811557,-0.28559258322835296,2.811245753370419,-4.243253605490363,0.38427376658145174,-0.15510996011812667
1.522652023,0.8089377715459092,-0.22796400595491303,2.830827665251599,-4.279612701163213,0.3954294219493351,-0.1433658016806585
1.542709686,0.7868112312882822,-0.18074960819027952,2.8189805071307172,-4.291100185140411,0.3918672604673413,-0.1315924710542176
1.56270957,0.7520527158461636,-0.1086352649802354,2.83653090243491,-4.321140066673588,0.39044261368126104,-0.12098076151990013
1.582651683,0.7470180052096228,-0.07638974638308342,2.85787663474602,-4.352994227263794,0.38853106148005134,-0.09705583370038313
1.602660539,0.7054333383133509,-0.03572984098111326,2.899073111117091,-4.380771442031295,0.3891906877539486,-0.06913053383126315
1.622649348,0.7027679559871048,0.022464139590214014,2.9184294700732614,-4.37729694328191,0.38512925115978025,-0.04307233369067682
1.642717648,0.6819513825773302,0.09473582182446758,2.9537460796982717,-4.372260093019253,0.3856655613997261,-0.017988329315031863
1.6627022550000001,0.6507636767980579,0.13178450858739255,2.98130478242392,-4.392124924891032,0.39481864583250814,0.007406339556712289
1.682650459,0.622240944034475,0.2030948036472982,2.9997939889750285,-4.38845208879261,0.40218257079271635,0.03089819186807665
1.702656035,0.5954576422925043,0.2505938564289427,3.02773549650049,-4.367034714923896,0.4048715764090043,0.05235040350696406
1.722658142,0.5916875584057911,0.32003241552749273,3.0387615428479253,-4.382627534610033,0.40719861765630483,0.07123661707380682
1.7427030440000002,0.5627020686808673,0.3348989905991139,3.053553800813171,-4.3642984664277815,0.37629722679607275,0.08443853526606182
1.762706905,0.5468963160248732,0.42542915868114384,3.0750860729774727,-4.367285086117714,0.36599438862867095,0.10139779920815513
1.78265502,0.5164153089831872,0.47156465005257125,3.0837900938477882,-4.323429356886468,0.3613020425644019,0.11636774528264217
1.802664899,0.4916165300641686,0.5392875813944867,3.0835147525403497,-4.313661727930535,0.35734650574187227,0.13053799663866533
1.8226474380000002,0.4770339585382087,0.5965967895475172,3.1041108104779576,-4.291095284093369,0.35468213273306953,0.14391625464641003
1.842708584,0.4318457270870115,0.6461998888393828,3.132816918065291,-4.261521947943932,0.3595846461604894,0.15673846458866003
1.862646099,0.3994450441476092,0.6989231675468215,3.136517694796134,-4.22141849890709,0.364642047741522,0.16818499619151656
1.8826529330000001,0.35305623189887864,0.7618873899250144,3.110828144462865,-4.213512247980904,0.34566368501033884,0.1748857071165004
1.902666981,0.343811261824388,0.7946112392874884,3.127638380149918,-4.175392550642689,0.33782219945140013,0.18384652020869735
1.922649715,0.30599604205080955,0.8646585693550256,3.158712787622627,-4.125004581193823,0.3361169788248478,0.1912674735594629
1.9427010230000001,0.25959328405070403,0.9107188954068959,3.1377043225083305,-4.07987994284193,0.3318819475156971,0.19842221829026976
1.962651303,0.24182822534941686,0.9596721089334027,3.1343293646785533,-4.059107094117344,0.33767284456399027,0.20390565486905415
1.982665215,0.19745389046492332,1.0212591154860382,3.123065386055087,-4.025900866572622,0.3433526770961036,0.2080538659485358
2.002649304,0.14881182046098126,1.042715764317664,3.1569238547879723,-3.968570682181603,0.35486505982917516,0.21237122753919643
2.022644246,0.1266926418834429,1.097487406621793,3.118365528176998,-3.9179911648349575,0.35957763076159566,0.21595474838031709
2.042704842,0.040904251124449606,1.1567528593482932,3.136240294922579,-3.8849904955250314,0.36957132214125715,0.21719583530451647
2.062657398,0.0449719669498108,1.1806996513343662,3.130213803515777,-3.805279354087053,0.3363104694606526,0.21130164711734584
2.0826488420000002,-0.029938574147775197,1.2282962889399582,3.140938152720508,-3.8105664031619466,0.33939439305312674,0.2141788229347025
2.102670409,-0.07229794195731706,1.2588600256127023,3.1344456808587022,-3.7422516289088406,0.3410313458642111,0.216132694455371
2.122653564,-0.13035262641170559,1.3074114697905954,3.151911364886604,-3.6944115009013285,0.34531625628575846,0.2177084572009127
2.142719347,-0.19847322588071264,1.3263529121067386,3.144808946978201,-3.659038520022595,0.36187809060179715,0.21905933796744712
2.162739893,-0.24231594006574594,1.3594988813371434,3.165761469973249,-3.5943029484781492,0.3687019491275865,0.21976989043038328
2.182684339,-0.2938193675520161,1.4062886926477658,3.1388700099469578,-3.5424054316784925,0.3610504239670117,0.2103724583703057
2.202659786,-0.35276640991404556,1.4090523696220958,3.1263192937459654,-3.507671986270446,0.3529559836420359,0.21085988782072349
2.222705323,-0.40718514501700775,1.4450416834567754,3.115322901757796,-3.4558926934233143,0.3555081234645419,0.2098047825517816
2.242648358,-0.4807499606603153,1.4705826444789747,3.1006725006385123,-3.412302066703573,0.3505951031079614,0.20893915872076343
2.262742429,-0.525333405884619,1.4721043649619454,3.0772241451162605,-3.3537028544655074,0.3571366837676182,0.20864088394614058
2.282658621,-0.5897000575763945,1.4775339222023036,3.0820961462320007,-3.2959841745306044,0.36459198844552315,0.2077351863735984
2.302676687,-0.6743505369626979,1.4991827329416294,3.099916379750353,-3.2774171706918067,0.3732638301268749,0.20710516967508
2.322656852,-0.7282144848176547,1.5183242270244055,3.08534722598985,-3.218294394792012,0.381369105710926,0.1988035448614552
2.342708435,-0.7748948251343366,1.498176545362669,3.1124531247046687,-3.1740938050534506,0.37642063426981476,0.19714911301409616
2.362649311,-0.8448362741003007,1.5247255905621653,3.080679542309226,-3.1151796010259405,0.37477324061957545,0.1957818284858927
2.382656556,-0.9001629511662851,1.5172473661178474,3.071360102718446,-3.0896809819488804,0.3776614914437798,0.1955756707328283
2.402684404,-0.9735306507918519,1.4985454969760732,3.0883926870294487,-3.069471255101767,0.3748543419957268,0.1955169955224717
2.422650354,-1.062972747906627,1.5188833636057202,3.0931380105976274,-3.0270035433914497,0.3810255785848169,0.19591367310932642
2.442644461,-1.0752418503755778,1.5135946622125453,3.0865183288247224,-2.976165760096606,0.3929278389240063,0.19691071939018603
2.462644223,-1.1376650931721715,1.5062169284600235,3.125220394525209,-2.9118467348859673,0.3916430475274489,0.1973562011432485
2.48267219,-1.2235059621576334,1.4788836522807787,3.1393720607712443,-2.898500594346394,0.38451208632141926,0.19081410834119844
2.502662011,-1.2691939794657614,1.477581889225891,3.12810045222204,-2.8581882738211597,0.3779546612668213,0.1920554403564115
2.522654669,-1.3448430348417877,1.457949685618819,3.146390157318738,-2.825127032081412,0.36729806971714024,0.1937390152169016
2.54264673,-1.3893273640800035,1.4058272446921016,3.1443933657403123,-2.789116793953309,0.3671360793213099,0.1949374431611972
2.562686345,-1.4328620724872847,1.410001771241812,3.1754390734259523,-2.7473338597706594,0.36255911429278587,0.1969788596394383
2.582657637,-1.4970364620860865,1.3685157897032088,3.1530989298333427,-2.706478305085541,0.36104132342756623,0.19932417934753022
2.602671735,-1.5719275983005323,1.3483923131933224,3.1664747606890042,-2.6763214164128417,0.36591359269183954,0.20109304463463432
2.62267338,-1.6175128943289006,1.3165404120869455,3.1654140467543748,-2.6220123411261675,0.35132758601919717,0.20278700944810465
2.642644746,-1.6701687976068784,1.2793900596298455,3.1675565410188358,-2.5826636530798037,0.3384145138736801,0.20419133920370833
2.662739909,-1.7402086871878888,1.25923077624354,3.1592734466214516,-2.5407248406636276,0.33123476317472733,0.2055253599008399
2.682664593,-1.7908507325409635,1.2002664485113086,3.139394815698707,-2.496037607383551,0.3203305652363274,0.20737087564645904
2.702654345,-1.8150406248913742,1.157495278044663,3.131432923117848,-2.425229574306227,0.32216409639818677,0.20900727753180062
2.722652856,-1.8775786100527152,1.1384690454509527,3.1112428111185375,-2.3946378871331757,0.315896697838273,0.2097639242741763
2.742674687,-1.9216503739721629,1.0800152285125437,3.1229986980082916,-2.3508594044346944,0.32067264374093546,0.21088829539495893
2.762703467,-1.9634431449160816,1.0491744853448517,3.118342031736469,-2.324366899910471,0.3198713053820185,0.20557137688562616
2.782657026,-2.0011111525270118,1.0024819185275629,3.0820556801241668,-2.2617045364766115,0.30760179132021453,0.20561978540370868
2.802658992,-2.0535196831695544,0.9412907850575396,3.105343536967713,-2.234578414537469,0.2995743831139419,0.2056694299196256
2.822652881,-2.088802901350721,0.9068772388571973,3.0425247200344723,-2.1807545975778635,0.29861299667077074,0.2058592716738498
2.842676159,-2.124473315499529,0.8386235680409401,3.0768552398392637,-2.123652980273856,0.2968117955715745,0.205984624738324
2.8626466610000003,-2.1515383583844563,0.7821440398939337,3.023869472078726,-2.0996940731109293,0.29612383379082907,0.20647622972965032
2.882654018,-2.1743876405327214,0.7350587593268862,3.038917459455571,-2.0192872381610214,0.3036021273850246,0.20732172968272322
2.9027145450000003,-2.2159534223927952,0.715167236371277,3.026535309334378,-1.9863864921837033,0.3143971993479642,0.20772153439884553
2.922652704,-2.2474469557075656,0.6500997605101926,3.0216142744792904,-1.9417575271027956,0.29989748636616603,0.20151725019185693
2.942645985,-2.278682600753163,0.6055483486189169,3.0008956152564417,-1.8755052136578771,0.30301191614343675,0.2027860101044724
2.9627369640000003,-2.26372683758879,0.5165723805830497,2.998865516611329,-1.8339605741930722,0.28814665545920487,0.20429506581278012
2.982658286,-2.2841708898450532,0.45243309246171515,3.003280598584558,-1.8103105637151629,0.2911211660885685,0.205664801835193
3.002656084,-2.307680536947289,0.39498064294385216,2.9586115713168377,-1.7549202215056612,0.2872302755242892,0.20695134438131504
3.022651358,-2.3146817914539684,0.37075436759769875,2.9509046857441525,-1.7219054811832744,0.2908080030141707,0.20804185337774378
3.042703151,-2.309903809604433,0.28849644355872,2.9620389459969823,-1.689031946414967,0.2968945439947537,0.20906767242489221
3.062707066,-2.3306031346443845,0.2293794405061023,2.934417492935994,-1.6422727434391626,0.29875194945556477,0.20248733256280838
3.08268862,-2.3429387513051734,0.17368262851316163,2.9379203256555413,-1.597896289476644,0.2866365078539024,0.20328457810859124
3.102671277,-2.3345886709661903,0.13262803601498768,2.930817386747001,-1.5458344796772303,0.27924186046670557,0.2039163432580677
3.122651048,-2.3291179550755836,0.062268481913422526,2.8983024425387742,-1.524826114557756,0.2805825137426255,0.20577889832731125
3.142702332,-2.3076505607378546,-0.004667797764348655,2.8761712779912116,-1.472494491019996,0.2769496769421679,0.20811725423395883
3.162738373,-2.3164132002459032,-0.05308763341167833,2.916613757888767,-1.4243373188087274,0.2797752271344196,0.2110661740230909
3.182669731,-2.318677996979826,-0.10463487104589488,2.880821520535468,-1.371968690914652,0.2801282803016423,0.21429153513851296
3.202680031,-2.2972979034092393,-0.16423647353678833,2.8557136504834766,-1.3207353571308313,0.2981240954837562,0.2174195022023804
3.222652073,-2.317484547731376,-0.22382224219861743,2.8466617699434953,-1.2724001291397955,0.2771402955150066,0.21646042828213216
3.242648653,-2.276721240626266,-0.280230856402628,2.864627643347364,-1.2441406144529852,0.27489415630918934,0.21799518343319094
3.2626587000000002,-2.2552446268412827,-0.319833333198618,2.837136925444593,-1.1717589383638085,0.27596127041883384,0.22043011267559487
3.282650081,-2.218644439265821,-0.39455925792332347,2.8004195603761937,-1.1440255153477068,0.2661705426058454,0.22286466150682735
3.302656674,-2.218843102245589,-0.4228601102893286,2.8358813883863263,-1.1054195266497227,0.2735412758346839,0.22540550455619546
3.322652042,-2.1804638188027066,-0.4701187466506586,2.8182684971495133,-1.0550771587585155,0.2801826245487923,0.22776397774954676
3.34264451,-2.1347924293036393,-0.5327787311371706,2.828368935870493,-1.0123748094040206,0.289862838461089,0.22986259914136992
3.362722395,-2.1099309090322644,-0.5654148478734163,2.804238976173103,-0.9606462892020143,0.27641188535073236,0.22831105142080774
3.382700945,-2.0809332984939166,-0.6250829785762592,2.811112782476178,-0.9351707355008461,0.2798167508022088,0.22968799780788446
3.402660726,-2.065666921222093,-0.6744626494428281,2.7875116555928967,-0.862316923118542,0.27962352174880695,0.23162648419642004
3.422653078,-2.0218783887359324,-0.7090749178642808,2.7755993731868656,-0.8323364434414436,0.27280555482200747,0.23267012878527546
3.442747375,-1.970329600193504,-0.7393345670024986,2.782232089427199,-0.7751138780298366,0.2812805370927418,0.23396067685744149
3.462717419,-1.9392911103113613,-0.7844510107517565,2.773590912061766,-0.7306226390694639,0.28608724024889914,0.2353386095316294
3.482660433,-1.8864983996383797,-0.8287826899320505,2.771268798387796,-0.6650800384786272,0.2969406681955104,0.23608096707115947
3.502667044,-1.8616515643513067,-0.8528660210930679,2.7460572169489286,-0.6288779594007116,0.2894418100769574,0.23296261766759244
3.522653425,-1.8302667311562142,-0.8686445273354477,2.74372833242761,-0.5861513174100607,0.29014057652085606,0.23351196150364167
3.542693544,-1.7486419345301956,-0.9171963858760275,2.7400767875958008,-0.5179459193608483,0.2927988204823749,0.23486748863512222
3.562718949,-1.7013944393528446,-0.9574810271584405,2.725195359136219,-0.4833823140323359,0.2904327144814565,0.23590835520781694
3.582653099,-1.6491003040257064,-0.9736336653374663,2.737550691241177,-0.4394163920462758,0.29619546953815096,0.23665867619055755
3.602664816,-1.6167644088747741,-0.9737361544575865,2.70319981636344,-0.3863782270592362,0.30636186916976776,0.23727893136530206
3.622653107,-1.5568271261405187,-1.0265278429871516,2.708046455848985,-0.3349085418042601,0.31625482977393643,0.23788046835382784
3.642707859,-1.512147929606606,-1.0220902994357242,2.7374588881839275,-0.27554267688161077,0.3172518306823593,0.2299281360683967
3.662701754,-1.453176516640741,-1.0185789109035337,2.704460844567746,-0.24247342306680694,0.3164458113052514,0.23013423296710486
3.682649517,-1.395354333166362,-1.0383924469736592,2.744245508331948,-0.19958106144037555,0.31383983310715463,0.2317557734888576
3.702678306,-1.3303378002705473,-1.0585113104447863,2.748261209123985,-0.17057212546270434,0.30511292734120216,0.2331078840875302
3.722696646,-1.2823548816763235,-1.051974896485478,2.7672750349226507,-0.09930690897348483,0.3266102519017272,0.23422273475522407
3.742693232,-1.2346784537189517,-1.0771906869166714,2.7195653106212996,-0.05551033256128725,0.32537380963629203,0.23568167513326685
3.762750849,-1.1901373652917722,-1.0707884431752213,2.740179731770059,0.02311964855309979,0.3320891978355713,0.23742323259327894
3.782697366,-1.1222162610230886,-1.0732340634191924,2.727920441521737,0.028367047471544934,0.35014801012928565,0.2392899807480887
3.802666861,-1.0824134734794102,-1.0817090666985714,2.7297680390036656,0.08887042455006408,0.32993022860476734,0.23606176835959822
3.82265649,-1.0157059664068313,-1.0409885237894416,2.752327060123355,0.11477409388936316,0.3258011480716892,0.23705356309554756
3.842712204,-0.9819223075069452,-1.045142962277962,2.7188356560186104,0.18912147352065226,0.3270627713079481,0.2373961544731274
3.86268338,-0.8962101787099775,-1.0434979822882264,2.7469194358399087,0.23020015783942904,0.33006340913190013,0.23750065978434334
3.882658932,-0.8561797891413414,-1.02166400556629,2.7390081244016655,0.27633350065887846,0.3374457044629335,0.23743247828175398
3.90272641,-0.8114709273864376,-1.0001664541426838,2.738124024737869,0.31083155538324736,0.34691128906049723,0.2373664249665904
3.9226657190000003,-0.7568673092211724,-0.994404259618125,2.7439852482345706,0.3523574708984052,0.36024090195004765,0.2374854650203196
3.942645541,-0.7004322732836682,-0.9705272630488609,2.7616175495669517,0.4169846385951353,0.33850488299330855,0.23578327978357783
3.962645172,-0.641761393801976,-0.9365269237069701,2.749702207945338,0.4568582847382705,0.34038178442005007,0.23598694298348147
3.9826540120000002,-0.6072743827965744,-0.9263352768203856,2.751264598926211,0.5019408473678149,0.33738840673825815,0.2359242222668983
4.002660146,-0.5508595926276559,-0.8875809281311521,2.7562947145519683,0.5592422616688842,0.34205772833561815,0.23565538262069233
4.022670817,-0.5126890480108423,-0.8704541251251445,2.7930310493279507,0.600147857844846,0.3487980071157624,0.2357471897345718
4.042705107,-0.46735986560554205,-0.8402107462123092,2.7605689213104845,0.6468980649726098,0.35198854800580304,0.23609803553554057
