time (sec),x position (m),y position (m),forward velocity (m/s),"heading angle (rad), from x-axis, positive is CCW",throttle (unitless; -1 to 1),steering angle (unitless; -1 to 1)
1.005349853,0.6750956066726032,0.19190522283090436,3.586429270951514,0.8372892330111502,0.43913689154142005,-0.15026202026077967
1.025346028,0.7386177870020455,0.231485221469899,3.600475816350321,0.7903920102483952,0.41241170914937086,-0.15496102220006938
1.045349752,0.7889802238276532,0.30829293078804365,3.5809733252234337,0.7553020610919444,0.39370259099221033,-0.15894788363325746
1.065350625,0.8508920111608631,0.34457463326422183,3.5486269122609726,0.7131067828374387,0.3778551051553986,-0.16310114482851032
1.085357685,0.9070126324006044,0.39406700533612765,3.5844618465927027,0.6841405953687466,0.3580803046506827,-0.16192939952572305
1.105348051,0.9530091892120094,0.4361551178720793,3.586961930482906,0.6533774932651489,0.35978000333957627,-0.1699411559792876
1.125339672,1.026812233235025,0.5189263900160127,3.55164554525996,0.5823819889322589,0.3523471019878397,-0.17251519324343756
1.14546621,1.0963156427715377,0.5299581492581283,3.5310102353570683,0.5275997884834436,0.34914862601021274,-0.17497931387084792
1.1653521,1.1591549076293943,0.5720985759577982,3.517597382606766,0.4739130801787948,0.32419465249429374,-0.1778943409350156
1.1853554210000001,1.2209180174149712,0.6192440507182382,3.50419828731213,0.4377359591036919,0.31624318518073685,-0.17910144108204465
1.20534771,1.248808857354703,0.6179268099001499,3.4893560054397432,0.427030827257759,0.30027002185678703,-0.18053275431606444
1.225349501,1.2942575514280221,0.6775876569036764,3.487498358342113,0.3795691002249034,0.29663657792926273,-0.18101940324301732
1.245360426,1.3648537651047907,0.7042801734433127,3.4643498152981413,0.3409919034346306,0.29354611955100884,-0.17573427699643662
1.265358629,1.443408897684861,0.7097587622072791,3.448531698320926,0.29351453155544643,0.2927346834624512,-0.17675657504862008
1.285353061,1.510672320563356,0.7357977781709497,3.4080064635992056,0.24996221911642003,0.2976266826853799,-0.17742949101817945
1.305367138,1.563959724323963,0.7311249936300077,3.3891131344811924,0.17493358800083147,0.2906698090780707,-0.17868955592159363
1.325344707,1.6247227243059863,0.7677625680713338,3.385752156276592,0.15253586844589734,0.27823222756000704,-0.18664395506541254
1.345346208,1.688833682650664,0.7829280291716749,3.3701810189210413,0.09955289737649664,0.2759233655543947,-0.18821788926522742
1.365349825,1.770290560444043,0.7889207071008923,3.338667201828088,0.07389901632546544,0.27282713211575255,-0.19076896382887226
1.3853507120000002,1.835464219186531,0.786694233049398,3.3156442464713654,-0.002559401386573148,0.27519891867900964,-0.19347182061356835
1.405347852,1.9462969924964773,0.7814637749862196,3.301749333531247,-0.059215898819116666,0.2778570520804539,-0.19536995279060784
1.425343182,1.9702292547950857,0.7920606304349096,3.2562898313906845,-0.0702348449640203,0.28994849578239174,-0.1982290519531421
1.445344069,2.02099370916651,0.8101538176770808,3.264157404123871,-0.10803684106622514,0.30259483166976536,-0.2010149614716587
1.465374809,2.085728985586755,0.7761522249938572,3.245991457114536,-0.1597965942760244,0.3189140892103526,-0.20304600333373166
1.485350291,2.1436656495986397,0.7614900035182421,3.212236904178126,-0.2190240544334394,0.3366701008527006,-0.20531987474706406
1.505349728,2.2067467975637713,0.763304113574219,3.2262757988204216,-0.2732942380586761,0.3690003639114638,-0.20687851369607452
1.525362306,2.285758890859933,0.7409614292750417,3.2070484147944103,-0.2932952806968432,0.28943402903677584,-0.20130808988773136
1.54534085,2.3646564508307404,0.712770717638059,3.2167138755829736,-0.3987462634451693,0.30065698243497035,-0.21114565573281457
1.565351625,2.3737816605640782,0.7231085573632966,3.188099449676088,-0.3866121386405581,0.30725360997918943,-0.21401356047341277
1.585354624,2.4687356339995645,0.6799915251203101,3.1757875565336544,-0.43483251646412474,0.32538598593966556,-0.21676876659264277
1.605345797,2.5054889761323413,0.6589561922446798,3.156061126099891,-0.49822319421347216,0.3476584562108871,-0.21917361143218178
1.625348156,2.566762972885517,0.6135859446955537,3.1504817513759087,-0.5163709944744612,0.3660471796481399,-0.22161412016847748
1.645443229,2.6281725181889897,0.588888877791437,3.1296625236694853,-0.5831417878105443,0.3956707283211727,-0.22326335571692535
1.665353702,2.7187053095169946,0.5410529741231633,3.147180173106907,-0.6739816851603794,0.32007377437105755,-0.21947766192934678
1.685353931,2.7533873279365726,0.4912038921533008,3.1368739614627157,-0.7031669989887658,0.33535732496173554,-0.2291706066228689
1.70535259,2.7849044501083644,0.48061471741585643,3.1428445051244527,-0.7417787095806015,0.35674006084302223,-0.23145765994083212
1.725344635,2.811076484006154,0.4622458673359651,3.128773011477581,-0.7503163487215494,0.3767076489185953,-0.2342290150980938
1.745348428,2.873599007502373,0.39951544556780405,3.065837637747314,-0.832347601758766,0.3940396646537849,-0.23610525096333917
1.7653498550000002,2.9381896784029817,0.33027161829544666,3.0934369591238333,-0.8974683767111847,0.42124510011985655,-0.23652362298463805
1.785351208,2.961874880271995,0.3071110151736589,3.1003306917111964,-0.9355633253193694,0.440799129048398,-0.2305314388432964
1.805349835,2.994970043659267,0.24133500421641607,3.0469564323270872,-0.9961016309581963,0.4712825670725195,-0.23064578029995003
1.825349835,3.047082746323064,0.176032267474524,3.0638896407308924,-1.052438700325735,0.5078235626416868,-0.237053625079222
1.845353202,3.064063982262643,0.11741497459527753,3.054032460022667,-1.0993101434458306,0.5556618271108001,-0.24281998783638722
1.865351149,3.0796849966935884,0.10992103762704031,3.0530831402795764,-1.1326580836422042,0.608489316884536,-0.23261722658852196
1.8853680000000002,3.12416306973408,0.008739451662706225,3.0559368224175705,-1.1962615511755157,0.4771571500037298,-0.24243779507998434
1.9053705120000002,3.1494001754643173,-0.030744944818495754,3.0974945639217326,-1.252014206524757,0.5008400736467795,-0.2501621464010171
1.925364381,3.155934708005094,-0.08792498725752897,3.088488093267438,-1.253023259804368,0.4516178327978617,-0.2383468346147468
1.9455186690000001,3.1783947208698575,-0.14834202951079303,3.121034796223437,-1.3467172828878544,0.4508231174514781,-0.2371301062780804
1.96534706,3.2028923795868183,-0.22191964444275147,3.116451211326414,-1.400837324671738,0.45931983650319513,-0.23520891997104704
1.985353849,3.219652762931188,-0.24549754111589014,3.1275379756759527,-1.4189437667399514,0.4689017682353679,-0.24125380666494
2.005347745,3.195832472825926,-0.3275331617525323,3.1366764172567922,-1.4651758378353723,0.4746990204513512,-0.23190607179963135
2.025368856,3.2452160873842777,-0.32452647013930047,3.1371442017172053,-1.485543206088724,0.47833092587732917,-0.22978542143521685
2.045421983,3.2323206009578396,-0.4258938133714251,3.1649962895886348,-1.547914405497172,0.5009834860374182,-0.23526306404404532
2.065351366,3.2498174575136156,-0.49477270194762774,3.181326709371878,-1.5914824005025583,0.45386822587313075,-0.22573657554892226
2.085355801,3.224144745683392,-0.5797407237373501,3.190319082780006,-1.6470798993673794,0.45632652417002084,-0.22491763872946252
2.105347364,3.2158028672738697,-0.6141082236124434,3.172532133891325,-1.6858416821347206,0.4664527877989074,-0.2323430927100203
2.125346618,3.225472530570113,-0.7023782917860286,3.189204498894862,-1.7788603945654384,0.46963903121567996,-0.23340370353695697
2.145339984,3.1948216836019463,-0.7512890344301197,3.210944789210249,-1.7963147648592244,0.48285059812053616,-0.24116552973212582
2.165356557,3.2235018782470455,-0.8185728372130909,3.1975846505147794,-1.8365847772750958,0.4929279343974235,-0.2334513178777933
2.185346353,3.162022579781503,-0.9105801579933078,3.2131109251247674,-1.9119968456681542,0.4790054136162963,-0.22812409927902394
2.205355376,3.1639937292595945,-0.9297821605537832,3.21346101720837,-1.956903340021595,0.4783528172998496,-0.22693576989392145
2.225348164,3.1147156573452928,-0.9966356780002745,3.1963743670923606,-1.9926011017522862,0.47984564436677246,-0.2256098400212725
2.245346435,3.0925622580149654,-1.0610443407414571,3.2082565235953617,-2.043302283861544,0.4715519148425531,-0.21776638775440177
2.265355191,3.076080301056325,-1.107226208912872,3.267496428735786,-2.0814821322236168,0.480519929711594,-0.2241134253771573
2.285346935,3.049649149499752,-1.1727073628382823,3.235305670781425,-2.1432481055258243,0.49245047536752307,-0.22263045131108625
2.305345806,3.011505264565801,-1.237703041189168,3.2650350548073552,-2.1675468719848054,0.5049754517172896,-0.21369299183423424
2.325350491,2.9694436087693337,-1.270618157442617,3.2779588472240024,-2.213774152273304,0.5255265080743399,-0.21960900687303947
2.345356584,2.944523280994769,-1.3202039774361614,3.287995709361337,-2.2542402989252084,0.504961396324717,-0.2111694790987336
2.365363756,2.9079995949216038,-1.4030591048499008,3.295892797371651,-2.303967299734808,0.5015144997782278,-0.21003484547882328
2.385355987,2.8585549668599106,-1.436412759156187,3.325306905829046,-2.36288201541475,0.4815436921118052,-0.21109679560901215
2.405356373,2.810795441729975,-1.4769988453549803,3.3416789504812856,-2.403646945239918,0.4982397602414617,-0.20977890444609448
2.425431453,2.7535860641343124,-1.537064773738341,3.3165155064530953,-2.4425570460741124,0.49799616489408494,-0.20964540539120402
2.445356629,2.7229259120653517,-1.5773690501916278,3.367354368316343,-2.4759040585963383,0.5013308291005544,-0.2106482224853013
2.465352457,2.6390292781892493,-1.6323489874938992,3.3429462254874274,-2.561066549929947,0.5152178648618866,-0.21077445929083372
2.485354844,2.61658337875932,-1.6430528497565184,3.3461012643265367,-2.5610503662246216,0.4919591721275218,-0.20898113043302874
2.5053485110000002,2.5552134154747512,-1.6938564182065412,3.330066868905491,-2.623883983775536,0.47720120114221326,-0.20839574965721175
2.525343301,2.4485674186237016,-1.752772523196495,3.360153099455683,-2.6782214454809634,0.4780342472554318,-0.20757874580868774
2.545435026,2.4252956601534925,-1.755169021223662,3.3736756336841176,-2.713112967669365,0.4765661919735162,-0.20708128398758205
2.565370225,2.375670234287486,-1.769569012987872,3.412886975089308,-2.7525274386544947,0.4724488668507308,-0.2066923478944941
2.585352057,2.2708587384344776,-1.8080253678439353,3.40448154969603,-2.815335683996322,0.47835701855488644,-0.1981673021552176
2.605351319,2.258165751746888,-1.8446588239171549,3.4028931800103814,-2.8355992160765613,0.4893565095753698,-0.2037885454037237
2.625368249,2.1766345731294687,-1.8619623545442847,3.4025819678424525,-2.889648625861277,0.47050757739982285,-0.20366834555722765
2.6453502550000003,2.0828696112163083,-1.8816278172039547,3.420261834644458,-2.9222460957190823,0.45401650966147855,-0.19530791372887127
2.665351941,2.059047803543588,-1.9082078005360033,3.428115413417137,-2.967898032784501,0.4527205825252815,-0.2006874040781882
2.685348917,1.9990143883298954,-1.9142030332475009,3.4224140850979503,-3.006007211668016,0.4441272858187222,-0.20054603231530338
2.705346089,1.9093439465369575,-1.91617991186238,3.4206520967273324,-3.0554602950816925,0.4399351025899657,-0.19295562336612415
2.7254374180000003,1.804670939115034,-1.937244764961231,3.396893704626191,-3.124252896001295,0.44800171888553086,-0.19936439623600533
2.745437203,1.781653324589851,-1.9423055236441655,3.4490509057966965,-3.1308235330625473,0.4531935656518669,-0.1990847240899144
2.76535172,1.6963170485259078,-1.9162822234470682,3.4189907717343093,-3.1790842126129952,0.43461499128471603,-0.1952994087822269
2.785369579,1.6344756245381784,-1.9375033501710703,3.416276436736666,-3.209979458628371,0.4264313688917849,-0.19471673268635
2.805373798,1.5685177251656897,-1.9469464782232109,3.4344091474869662,-3.275737510125463,0.41734467743697584,-0.19592431705298918
2.825363947,1.5087106029987263,-1.9155537739841886,3.3908880479576875,-3.3026945954653395,0.41954361022610587,-0.19640156845057094
2.84534424,1.440711059656023,-1.925454876820483,3.4299712467547105,-3.3506458887139194,0.4177057741329691,-0.19017492498146166
2.865346177,1.3702480630274143,-1.9052506585542464,3.425456787650346,-3.3971935486524494,0.4132647175338626,-0.19783737174876256
2.885354677,1.2978109923334569,-1.874240644020288,3.41764639575603,-3.4367186246495085,0.4241000531561795,-0.19870803255869174
2.905349997,1.2469542115053698,-1.8755632260268338,3.4028407407982613,-3.4845447077946803,0.4320840412362615,-0.1996810095656996
2.925348725,1.1757871616514803,-1.8572336797955933,3.4103905946397046,-3.5294178312385185,0.4100418239492111,-0.19688407293755322
2.945349901,1.1017683605453332,-1.8262720424246492,3.387967938625025,-3.571883257275539,0.41489313483465656,-0.1964381243774941
2.965342674,1.0209131414804262,-1.7648558945350492,3.38212540950812,-3.631711326215769,0.399724772996787,-0.19725322297897493
2.985361522,0.9905375250045445,-1.7755526897374792,3.3821428326451133,-3.642052447950417,0.3990546635636405,-0.1989342541738034
3.005347394,0.8925589595589234,-1.7179555751004034,3.3855129970881603,-3.724414408943646,0.40421299172539754,-0.1991384600308498
3.025400069,0.8723509824057082,-1.6852218215376473,3.393074763359974,-3.763506624743054,0.4114689197450265,-0.19977048423810487
3.045442264,0.7996010006212376,-1.6535931193873383,3.37691488508964,-3.7799418538852647,0.4212060563746002,-0.2003499664124993
3.065360487,0.7482671062273346,-1.6318213926643146,3.3674397569654446,-3.839323938260171,0.4105454130066412,-0.20105723104647164
3.08536713,0.7002283048876792,-1.5904297368201485,3.3617787218827635,-3.8758934244854046,0.40874277384810637,-0.1944477469880156
3.105351034,0.6349736243201427,-1.5352039324607207,3.3394836322249297,-3.968973995702868,0.4081443360791927,-0.20082698073590463
3.125337725,0.583681430587016,-1.469108898531711,3.354837751117633,-3.985422130316503,0.408007381126923,-0.19374904225180745
3.14543463,0.5497420575610046,-1.449508525886792,3.3742763385002013,-4.006832974310249,0.41190848967416227,-0.20083864069638313
3.165352826,0.545732648038991,-1.3976137063644671,3.3673455375712917,-4.05152806673387,0.4207790190305238,-0.20122727355403022
3.185354268,0.4664184007454806,-1.3262867508681673,3.3688255746178837,-4.091362497383706,0.4373103385176368,-0.20113782521292473
3.205350781,0.43922353819468907,-1.2978006237910462,3.3702931721283527,-4.14202441055467,0.4438494315335225,-0.2012430895562246
3.225347343,0.38581240540310807,-1.249349957122153,3.35494887353454,-4.191733484924376,0.4526171932306697,-0.17598202869230603
3.245348089,0.354193369662372,-1.1854732976312305,3.4172146132884955,-4.225437864858216,0.47664262304735855,-0.15318341877898403
3.265348657,0.3031723076057654,-1.0922459111289737,3.3984943633136404,-4.258470341888834,0.49195974455821967,-0.13852096234758457
3.285354518,0.29618779239210125,-1.0680788288213523,3.4171013235758205,-4.302774419151209,0.5126878836517863,-0.11752214307409005
3.305426421,0.24410033797464575,-0.9939820743669308,3.472262997952092,-4.297916904995482,0.5365285180622172,-0.0951207618383912
3.3253925840000003,0.22936661179428966,-0.9264768231009153,3.5247900417068925,-4.327682688421942,0.5468061108712177,-0.07317651233053779
3.345360189,0.2018443516368674,-0.8609223084170787,3.565628213293221,-4.3450114667784145,0.5671607081051345,-0.052352984938374786
3.365349906,0.14437597166487898,-0.7588218005958847,3.6359599241296587,-4.33744542312091,0.5825722126045988,-0.03223363215410664
3.385352672,0.1568361049199579,-0.7186455800231472,3.6758254465807116,-4.352551654927148,0.5265915208808337,-0.02214143933778915
3.405352654,0.10776853986874534,-0.6504143422456713,3.722177556616867,-4.344326422220907,0.5267591161212077,-0.0072538714964340174
3.425435713,0.094040011256856,-0.5845481508524052,3.7272041721779243,-4.3362299257333845,0.5136838124477746,0.010933267851656481
3.445350795,0.06634906559554354,-0.5163662109367534,3.7694335289184555,-4.3551651114071905,0.49470588266199095,0.026379560334510922
3.465343043,0.011548926445296277,-0.41583446975301297,3.8057389748071073,-4.309053022384365,0.4819846477151627,0.03978981181797049
3.485348441,-0.0006773302249931982,-0.3773649322930384,3.811608625442834,-4.303865204087772,0.46115343300964595,0.05171689342202416
3.50535087,-0.032430830062827744,-0.3211027469227765,3.8119887196099946,-4.300664920533282,0.4624459224855002,0.06118136693555244
3.525349849,-0.07105982399776659,-0.23346075026520044,3.855412097167841,-4.289802410069615,0.4160298196691082,0.06677952895598879
3.545345558,-0.08614305740130235,-0.18585274781746403,3.8494973353772775,-4.268003263944407,0.3933203919951571,0.07508655546088681
3.565344504,-0.16225484800319634,-0.08769233350359751,3.8724359580999463,-4.227520801397098,0.3684198736208407,0.08380941805332537
3.585353316,-0.18101263233312564,0.00971635658405463,3.882167573406549,-4.2196426851026025,0.34532782902768855,0.09144025664566242
3.60534692,-0.20705866500807976,0.043663955911546155,3.868289654676092,-4.20696304158581,0.33922220004447706,0.10023197681562887
3.6254399409999998,-0.2306941030763494,0.09375494103591778,3.863066792882191,-4.200423008222029,0.32975719014415933,0.10739875925694707
3.645431904,-0.2963028597746252,0.16325565475773898,3.8625079944619847,-4.160084639684981,0.31685117954373065,0.11348760478888541
3.66535385,-0.3411670906743059,0.269280062530252,3.8952141688494373,-4.111634183384584,0.31363182649697047,0.11878484310171934
3.685352527,-0.38605301780566537,0.34345977400267014,3.8870885177108696,-4.066068452932063,0.2604622563726802,0.12047758060970937
3.705346843,-0.39912935901158675,0.34954476558599795,3.8650399574725927,-4.05842380065309,0.24635789940891048,0.1255841092738425
3.725354229,-0.462070891955528,0.4051991146526685,3.8393431895305845,-4.016308582091401,0.24235481421783742,0.13351316835251845
3.745347335,-0.5038815869538434,0.4660938600388204,3.8359188422359844,-3.9863167397591712,0.22755440946454636,0.13823066555647817
3.765349876,-0.5678040116377179,0.531121372378152,3.795692606287346,-3.9504189386027977,0.22313687476264837,0.1430188500674958
3.785344388,-0.6232716405518772,0.5870534548061521,3.773407291145866,-3.9214215263667382,0.2047740051720349,0.14167545312555233
3.805353043,-0.6688345191188786,0.6526053125182372,3.749767525791675,-3.8698468584878674,0.18881450624502027,0.14727599185762116
3.825348469,-0.7173849655323566,0.6905777514111887,3.7203972868093005,-3.8271342111901916,0.18959659006324842,0.1545844458298949
3.845357603,-0.7640270966532388,0.7332252596837305,3.719216768307064,-3.780378488887791,0.17623930606607502,0.15706862632292914
3.865407049,-0.8526337739564833,0.823425420996448,3.6183649021204998,-3.696084396674917,0.1741187657596477,0.15903671837468733
3.885348951,-0.9133739520313311,0.8699393822103957,3.606025791505815,-3.671277744810184,0.16842044072670673,0.16092790633396709
3.905423622,-0.9987557335395547,0.8984460315291806,3.5763842830092933,-3.6196442327813823,0.1773931856196663,0.16167772431853716
3.925355695,-1.0238671310178333,0.9162258562828377,3.554825231612614,-3.563123390940207,0.18370567077635788,0.16240718268404924
3.945432469,-1.0606027340511912,0.9373461910476819,3.5153341986750966,-3.5477970664754315,0.1805085446777503,0.16230187312568695
3.965349711,-1.1642247900600633,1.0152680678904473,3.45518131780192,-3.473084382913335,0.16875002056114807,0.16139778806777041
3.985351305,-1.1919557502026357,1.0065142777300353,3.4352653099072983,-3.446409674037297,0.1766634136205872,0.1542015069928282
4.005343288,-1.26420754871041,1.0539919032811524,3.3925132839177436,-3.396120847351547,0.1854262405347156,0.15407688403965358
4.025434417,-1.3231206840342664,1.0380933697295525,3.3300473021228822,-3.34553020623609,0.18938115997603458,0.15349854577520194
4.045440782,-1.393436533148702,1.0603514177237297,3.3248609701311547,-3.2975102044195044,0.19086616964131306,0.15288548919755726
