time (sec),x position (m),y position (m),forward velocity (m/s),"heading angle (rad), from x-axis, positive is CCW",throttle (unitless; -1 to 1),steering angle (unitless; -1 to 1)
1.018324175,-0.8130609593193566,1.1466761618405785,3.3814286085007303,2.582378197816151,0.34166735516671426,0.1970844971482118
1.038331719,-0.9032515774448369,1.186517431846459,3.370977645734404,2.6715723085983285,0.33140318309033545,0.2004947773467382
1.058308633,-0.9818712342900526,1.217094663171102,3.3575801527618596,2.720199445355643,0.31313363383652043,0.20308610256296544
1.078309546,-1.0106818294523945,1.2639539036992689,3.3501902050629853,2.753646127490596,0.2982546487800813,0.20571579186928624
1.098337696,-1.076321909291945,1.289549195276079,3.3238151519659307,2.8063110230236212,0.29376578942582854,0.2071799815015086
1.118310814,-1.1548343832392651,1.3039990095307679,3.287058506928054,2.8449577525024607,0.2936986658929724,0.21480252701572233
1.138380093,-1.19117287327649,1.331928770107931,3.297516427463435,2.885075470126246,0.29170129316321214,0.21574442661057797
1.158306202,-1.280173458854129,1.334440546790867,3.229874666483119,2.980598958642877,0.2926083358557722,0.21434018237848246
1.178312748,-1.3179295285094748,1.3493401527344675,3.2383181699748924,2.976431566279982,0.2844617688274117,0.2135574771058065
1.198332565,-1.3827335605428241,1.3572816074894742,3.203614878049662,3.053688086578525,0.27988579985996537,0.21274358280029243
1.2183276140000001,-1.4581848920052016,1.3659137946175393,3.1896682654496655,3.0854614556025903,0.2804526767618535,0.21250379798756242
1.238336381,-1.5187041832183725,1.377329433350358,3.1662740905984275,3.1451514171966033,0.2829461521506748,0.21121113223175259
1.258307235,-1.5663743665693053,1.3746606273040762,3.1563893864914436,3.1775644583812643,0.28641906613389145,0.21063571232154166
1.278352525,-1.6442259972402387,1.3784434954579592,3.1277009072688897,3.2246557507711415,0.300676307419574,0.20269690038212929
1.298316532,-1.6980576297067447,1.393305671123414,3.1399993892590388,3.262453383034858,0.3126926676197257,0.21706742759741077
1.318310251,-1.7698427511881223,1.385861254181476,3.1329673921516434,3.3089977892121145,0.3250912269108044,0.20955121594348272
1.3383085160000001,-1.8402291549560694,1.3668223448524868,3.1075754795992268,3.343056415518098,0.313167155025856,0.2068783635104837
1.3583087470000001,-1.891415904283511,1.3423668195041412,3.0976262684282165,3.39475151770873,0.3089161338455321,0.20850239928951908
1.378309027,-1.9513919458752855,1.3657648873810044,3.1015113714019917,3.418574334088288,0.30989030476022333,0.21113551089470206
1.398309415,-2.007365505732388,1.335228133882999,3.0803549590255765,3.4480295168462405,0.31542982438544276,0.21415313983277462
1.418307059,-2.091266194276538,1.27887641951162,3.093016337714058,3.523137962752669,0.32268902647728204,0.21707705620488862
1.438336607,-2.129769279955824,1.292264569239233,3.0715044517680252,3.5451265909791294,0.3306462616017404,0.2208563912010639
1.4583108500000002,-2.187926897755487,1.2442253551966498,3.0594214146897807,3.586883701814635,0.3432334547811719,0.2247246002844839
1.478438618,-2.2550510361896072,1.228392539342362,3.0369668947773105,3.6125565656157588,0.3413831740235664,0.22767510085894457
1.498315886,-2.304712197456325,1.2020885137292852,3.085644034403502,3.6720415655276106,0.3417855939439039,0.23244860022364164
1.518397453,-2.3295243990336916,1.1618527957493836,3.0647679694906804,3.7452976081319203,0.33841400423914647,0.23662990133614734
1.538326507,-2.3946882075073206,1.1384749723657732,3.0342874877742716,3.785854736972467,0.3367178840935759,0.23263869830285466
1.558311151,-2.4512890098689084,1.1027149664178624,3.0110347854294632,3.8484697882582926,0.34835712505391864,0.24133423724575243
1.57842973,-2.5005077276116614,1.065386422085363,3.047579312892573,3.878292700102424,0.3648946879873865,0.24312301520172266
1.598378955,-2.5457008079131067,1.0231313362888677,3.0170517487844313,3.908847577092863,0.3805817464387038,0.24309842780679086
1.618359912,-2.579117683096446,0.9938905421344341,3.0315381329154345,3.961002849688879,0.3766249601063555,0.2343050142324802
1.6383810890000001,-2.62071066987498,0.9437128367937233,3.0004382973495978,4.0264087593382785,0.37608140051153005,0.235999423212582
1.6585043019999999,-2.660016038769951,0.9061361044241965,3.009864054761349,4.071969930565145,0.3791131710321788,0.2361041627514853
1.6783092540000002,-2.718508355549159,0.8416602873328286,3.00593842684111,4.13964982974728,0.38536626326634427,0.23621593634426968
1.6983098060000001,-2.7266927043787557,0.7735340127582864,3.0094070158657713,4.183966744057294,0.383923668047388,0.23846727055668968
1.718322057,-2.771402715708471,0.7518091052179868,2.990810326061728,4.219989068745893,0.39966762660147714,0.23927190930754869
1.738309643,-2.7971416294261737,0.7034366246865595,3.0182108395380856,4.262741303945471,0.40906582074815684,0.24007998315201043
1.758310645,-2.8490139461298347,0.6085802713308528,3.007929564972133,4.344450393799823,0.4317364365932388,0.23965575727512178
1.778308671,-2.8439493659951305,0.5865737777210195,3.008683556430511,4.347352196507244,0.43757877308480986,0.23837168763226044
1.7983086250000002,-2.8648659219705124,0.5337296750584386,3.014548674085207,4.408196708974348,0.42377518113832474,0.22922191572947423
1.818312459,-2.89035892582461,0.47511061457381143,3.016112074173762,4.457076564877732,0.43594824923410697,0.23665714392886195
1.838405957,-2.8965690505890143,0.41228343613484164,3.01936511721838,4.4949948218403355,0.44418101907520396,0.23665527438484424
1.8584130600000002,-2.9287333714103254,0.3536801847632668,3.0101886858820746,4.550156654736089,0.4541033959825675,0.23586968224780677
1.878311539,-2.934074012544439,0.32023053979045224,3.040063387929332,4.597722890400775,0.4639005795908968,0.22723314642163664
1.898311353,-2.9491021098068027,0.21368712059557812,3.0462843717342336,4.647597425904026,0.4802126171181412,0.23404735940970264
1.918428837,-2.952692624239111,0.1910465110910038,3.047277470322629,4.682940611309232,0.4779905590862454,0.22798313495578992
1.938307473,-2.940986233149677,0.13267229647239118,3.0456504257506265,4.736193929027657,0.47301721318367956,0.2275206879259704
1.958326833,-2.9634973729784524,0.06480525246834616,3.0827041891134987,4.772181283522206,0.4761177355800789,0.22802310351959976
1.978311415,-2.9566273445042026,-0.010354251891828637,3.0667676600073643,4.8142936109603145,0.47782155650132885,0.22759407623665448
1.998407505,-2.9438629731240566,-0.0670651353065084,3.043089873125263,4.881257146652653,0.4721611487203183,0.2270232735953488
2.018315799,-2.949350591061183,-0.11030337163723297,3.1063654198128154,4.881769507788672,0.4796770404878927,0.2275990298526397
2.038399965,-2.9458768188762465,-0.19242953257040057,3.076384518756829,4.947963174763762,0.48642665519122263,0.22766846984333408
2.058347528,-2.9080909469200282,-0.26069429274392203,3.111710762923861,5.003667719094198,0.4983663455324538,0.2275022790435491
2.07832139,-2.899673056511998,-0.3115176831969035,3.105211298623292,5.054389530430882,0.4807717301095768,0.22222617550978616
2.098318413,-2.8673947901422547,-0.38056971693735236,3.0894707102169514,5.113212239068568,0.4761040055199534,0.22211350759236495
2.118321421,-2.852219754517786,-0.409447870131967,3.1093151014151754,5.142659350409053,0.48060785277393664,0.22173584746102232
2.138310911,-2.8289277586757535,-0.4660217319122074,3.12796712354915,5.186035530024371,0.4685779251776634,0.2281469457909637
2.158417687,-2.821167198470361,-0.5338734191969776,3.128839009472493,5.243320890206192,0.4785020848681902,0.22067932452487388
2.178309697,-2.7922048812081566,-0.5984186007766615,3.1345070897358163,5.300755989084665,0.4711445184947417,0.2203590013020744
2.198416388,-2.742089897220245,-0.659572211069725,3.1567829439008457,5.331863679111883,0.4881067574316487,0.21991533447757233
2.218311984,-2.7311713191988187,-0.6945957943619457,3.1541778950926536,5.368721929742574,0.47771344469894045,0.21328255298967835
2.238310857,-2.6905975546092042,-0.7597826264828296,3.1423033045837063,5.419714069051594,0.4652059117679976,0.2119095089954543
2.258333045,-2.655704309616451,-0.8168051866521193,3.1434977624670877,5.483591772192859,0.45641184243019156,0.2111084966946578
2.278330273,-2.5965549094146803,-0.8744860129779922,3.1499608421384466,5.506757241004485,0.4495179251852865,0.2119099154959102
2.29831298,-2.540580011607756,-0.8968886917500267,3.1507613956317995,5.558343973578236,0.45143069518593987,0.2111578044912694
2.318308707,-2.5194926108257216,-0.9552895518098019,3.1506109733918986,5.598703485095956,0.4454210709396846,0.21083528131566395
2.338404491,-2.4458471716649632,-0.9787306298184827,3.1390971429130494,5.632804078840623,0.46025937275310896,0.21762271727758178
2.358320231,-2.4138050999004546,-1.0179208485009126,3.139148354664522,5.680513831785592,0.44958775503588916,0.20626873472254334
2.37831851,-2.3552783304028795,-1.0706647032342207,3.1677659930080355,5.712198348931325,0.4380822136803032,0.20615503688824333
2.398428877,-2.314355380368899,-1.1038852515367128,3.1726581682916195,5.740386922966466,0.4272072307564743,0.20662038680470085
2.418306699,-2.2694742671033117,-1.1398635867521643,3.157227840291556,5.796092223726401,0.41822801741667953,0.20748975912866222
2.438370928,-2.216841526107971,-1.1616204320254613,3.1690432432464295,5.829899430345878,0.4116847408845725,0.2087056822582375
2.458320832,-2.11719014973363,-1.1994174194087641,3.161944136996044,5.9031251893392005,0.4145707743228975,0.2101603039782337
2.478320272,-2.1009520096004874,-1.2279956543326076,3.1518328256881882,5.921206901710009,0.416658878309214,0.21131433380156683
2.498320393,-1.9982769093873327,-1.2380536969862037,3.1670490869332584,5.9983582972839224,0.4178671242975548,0.21303791597572772
2.5183280740000002,-1.9621435437730321,-1.2650909484835937,3.147118087282983,6.022095790234985,0.4046513125782243,0.20824796629804324
2.538371499,-1.9214794983699992,-1.2820531815133098,3.151809263620274,6.05927819530776,0.38654838445475265,0.21028922923750565
2.558308467,-1.8620612120652034,-1.2863324212791645,3.161613384841013,6.093160569628307,0.3795533890880979,0.21168521767981244
2.578310981,-1.7811352998764982,-1.3290055997413752,3.1266762583382617,6.152031623260412,0.3722272160162398,0.20737884622054686
2.598413032,-1.7152593717629014,-1.3253364981490325,3.1417481544065375,6.190529333242344,0.37196661950786786,0.21540051671248125
2.618361552,-1.6656562615704091,-1.313701203271,3.1154273353586848,6.242915637159032,0.36061236960042736,0.20920071009949057
2.63831685,-1.5851797760386948,-1.3267690554903038,3.1319467013911546,6.282115113778796,0.37598117277001863,0.21765649634335268
2.658339299,-1.5308208786487865,-1.3306367642601946,3.14287118840641,6.3254162876891,0.38485265627785725,0.21967631209224528
2.678384344,-1.4870498293487124,-1.3345772557718127,3.088616141209137,6.37431652378325,0.3598344663628835,0.21588896271205904
2.698309778,-1.407355860506252,-1.3316163339918237,3.095142647154089,6.416537842109743,0.35373297082459115,0.21621711247266281
2.718323152,-1.3547015508559952,-1.321486383560891,3.095775347949194,6.462664271997719,0.34524690705882444,0.21757436579021242
2.7382996410000002,-1.2827506628980507,-1.3091555871662675,3.0567284125277276,6.515064354333047,0.3520272280846334,0.21809709364631447
2.763398585,-1.2392603512946456,-1.2982765533885148,3.048691105529757,6.573953802918507,0.345586909928208,0.21856260803877628
2.778318138,-1.1828303144701071,-1.2810155258995617,3.0548007890399056,6.6095376928726,0.35658434707955666,0.22024072016344323
2.798328684,-1.1281640892252298,-1.2772507902708825,3.0360548930317712,6.650107753763651,0.3691791923556261,0.22135254767625237
2.818307221,-1.0716652667728301,-1.248583759550697,3.0191335911801818,6.7339599824067236,0.35650695740838173,0.21993142611552366
2.838311058,-1.007487017403934,-1.2278618433736066,3.026347444186744,6.732440754145589,0.3494065624927167,0.219967218826809
2.858372484,-0.9481854535196896,-1.1908139559409916,3.0244061388011767,6.798638652381468,0.3564523262668864,0.21991921360562516
2.878434628,-0.8776780173051897,-1.1661883565374072,3.017069865005391,6.839717324308871,0.3637368138133527,0.22304909133975367
2.898341337,-0.8645815726403159,-1.1235026474822725,3.0187632932040596,6.8615314354722905,0.3659826630271731,0.2196225709437693
2.918408059,-0.8102913337179406,-1.0919834095205692,2.999040631441869,6.929598024496959,0.3732482962681346,0.22038195382676398
2.938310078,-0.748852411408915,-1.0610992159376464,3.0283722305242295,6.988881234298859,0.38498054192419523,0.22045836991037893
2.958335837,-0.7036308149492027,-1.0419515624032682,3.006595975461268,7.002542521484378,0.39891248827314896,0.22114326524842154
2.978322003,-0.6906703095016585,-1.0243383240282404,3.0059585953895964,7.031138035087212,0.41147884611544056,0.21037016827523616
2.99831272,-0.621387598893482,-0.951553343223094,3.0031529425069907,7.106982696929588,0.42459114419407284,0.2042706457847675
3.018313515,-0.5907679321663347,-0.9114374058345326,3.0309824546005757,7.1376413498791536,0.43337468423049197,0.19822235567984423
3.038314475,-0.5376154612672187,-0.8719668276310116,3.0265491430459432,7.182741892398073,0.4468450722323876,0.1930253303383565
3.058386832,-0.4910278898367993,-0.8125664499093918,3.028493361145642,7.245106297199386,0.4642489360024449,0.18649042185106504
3.078326776,-0.4537241360120499,-0.7637906407635736,3.0551699103951178,7.270286752420614,0.4752962686924327,0.18044233163738854
3.098449312,-0.42249009484284017,-0.7079160286034477,3.0842112925817973,7.31699810368593,0.49418413735026107,0.17904993487585952
3.11843149,-0.380021384489165,-0.6748735828445646,3.111372012556063,7.347682832542323,0.5064567348168363,0.14876695889821306
3.138395182,-0.34755225082077884,-0.6237727204782114,3.136078088533672,7.370498160536342,0.5145142009190087,0.12458891773594453
3.158309084,-0.30710206983616684,-0.5353668896903178,3.1758225453449125,7.394252701169913,0.5297790578694711,0.10134011967042977
3.178311928,-0.29069211400321565,-0.48420832961609145,3.2078240356304044,7.404888297145017,0.5464387364020703,0.0781554026273902
3.198311462,-0.25626386949253604,-0.44699339881517147,3.2526183319217865,7.4114571655361114,0.5655252612991226,0.05455182225922825
3.218311086,-0.22929210339836012,-0.39538120971545104,3.268478780875907,7.42911244160038,0.5772600790221306,0.03143144483630349
3.238312057,-0.2147073431540585,-0.33119331914189787,3.3447894517271317,7.41337817636393,0.5943135239299147,0.01023422553798847
3.258311579,-0.17881170183375628,-0.2537329714216779,3.3690020933176084,7.4169633031327065,0.5524164243990126,0.0011002559976808837
3.278311944,-0.16000281779642334,-0.2040011201776288,3.434480361449447,7.430706614310047,0.533772180030001,-0.019240829006680067
3.298311192,-0.13398703453001323,-0.126570531990406,3.4589588360289536,7.432234294894433,0.5300837718073028,-0.031533213293269705
3.318311601,-0.08713059302757006,-0.07968577942321535,3.4822003351907314,7.427566092982524,0.5230459700073653,-0.044607645419102
3.338416229,-0.04404820998197369,-0.03491379643076731,3.5349323835973894,7.427007821004555,0.5188389999178225,-0.05689001519392434
3.358310171,-0.037455197470230316,0.002899487582448927,3.5309278428020314,7.411274436685532,0.5049380993344976,-0.06768199733059979
3.378309302,0.0059570703663959145,0.11059810048617479,3.5967868356088113,7.407684420937449,0.5019088258616148,-0.07830644000636931
3.398311676,0.05034112749951543,0.18652220297952274,3.5971938092045836,7.406752525972897,0.4580844080505797,-0.0833490913651588
3.418310482,0.04954697163196324,0.24014335014224222,3.620581660358331,7.383420048100217,0.4368472782246115,-0.09432140761832884
3.438305602,0.1115027867072682,0.31604091916979177,3.636424005394429,7.373592783634164,0.4178534579829087,-0.10556211427860071
3.45832146,0.14403085656059683,0.3666782169128401,3.6532215030761055,7.375498536691701,0.40060012501820946,-0.11681838403151198
3.478309001,0.16809069216140948,0.43480752968776654,3.6538307801938994,7.342664220707433,0.3927382551467725,-0.1278669979824544
3.498308656,0.21213701099528592,0.4910320718972875,3.6685187665937367,7.322418950766864,0.36692279933732563,-0.1376359983666687
3.5183101900000002,0.232851239878974,0.521134346375304,3.6602305689400696,7.3172357882834955,0.3677293362531197,-0.14726810273087576
3.538308229,0.2932402574583898,0.6244467939186532,3.682790133553073,7.2725605951844114,0.36098193878896007,-0.1565624597743709
3.5583104690000003,0.31543079629007015,0.6539748110166028,3.6591003289437514,7.223554842927241,0.3192890324503539,-0.1602643976472455
3.578310012,0.3732718732376956,0.7593863341741023,3.6292731489719854,7.182177918249725,0.3023053620236703,-0.16851614468572487
3.59834142,0.41742632706227567,0.8099851870931456,3.606607812664066,7.162357112416785,0.2899106921797215,-0.1759862052616779
3.618307512,0.4687482547073475,0.8473511008683738,3.612920726336647,7.133617328082012,0.27704492719616447,-0.1824405443476712
3.638311227,0.5162046302433386,0.922717131234338,3.605503724112675,7.078126090536694,0.27864104709060156,-0.19151289563393034
3.658306896,0.5445497866019572,0.9796675121637006,3.5560775151570665,7.035856821603684,0.2634750292624189,-0.1920364110227608
3.678310772,0.6032930476585086,1.0039444756992346,3.5419627156363367,6.987373264981857,0.2683418665497834,-0.19533062281298763
3.6983079930000002,0.6874995248773064,1.080860714523058,3.5182296944781966,6.939095354767556,0.24724389678917122,-0.19996390784476906
3.718319155,0.734290480837413,1.0993180700342582,3.5204747633858524,6.910406918743536,0.24029126060709044,-0.2022034087761027
3.738365771,0.812303722273845,1.1659341643891519,3.48902207043655,6.863577309240627,0.23234871257961257,-0.20430828125964606
3.758389064,0.8301278317598647,1.1886824778650877,3.4531769275433746,6.835786959842735,0.22802132129802494,-0.2061795428008051
3.7783142830000003,0.8950308566625029,1.229369190159136,3.4300203130647544,6.780429832406411,0.2372498383346895,-0.20833674682495038
3.798428687,0.9420653743765717,1.2393467697971725,3.38572069051081,6.739271550700698,0.24242023531820367,-0.20901017537316488
3.818308922,1.01287612812251,1.2793957650882404,3.3666277113293344,6.693123566917537,0.24282045478585637,-0.2049113851352114
3.83837858,1.0776654149704485,1.3029374652039778,3.3445073943049897,6.649507516421895,0.24681659632910707,-0.21635446133700334
3.858366659,1.1206173814200993,1.3210961765316784,3.3278711344378635,6.602953318875222,0.2515829861254853,-0.211340076683005
3.878425098,1.1858769077058327,1.3457220588191234,3.290157288411479,6.56861432054108,0.2529102483373799,-0.21969006797465432
3.898368896,1.2484307922931153,1.3761982220347524,3.2637201923771,6.5126961262222425,0.2626496915023716,-0.2207597264021273
3.918371346,1.3164447764699005,1.4084404670892892,3.2536206431458696,6.473320904643055,0.2744976056195169,-0.22279781441262164
3.938319281,1.3746029397472463,1.3932393973652824,3.210225808262825,6.436214780370765,0.28556277789863077,-0.2252292409946025
3.958371776,1.4288988835977665,1.4362057948312104,3.223645342906288,6.368839717964943,0.3028708247555624,-0.2274850836768415
3.97832558,1.492744453780258,1.4380008043042913,3.21095973678964,6.33947434846959,0.3215757019164731,-0.22723585016624898
3.998315229,1.592298126634671,1.4278720469204487,3.1656395804555126,6.285335560171441,0.32646190189103047,-0.22945545971916148
4.018308797,1.6474299582252243,1.4311268925411451,3.1778342103488493,6.234401792386832,0.327862607631378,-0.23143880907112568
4.038317586,1.6924321558152184,1.4013403211782427,3.1394830501399964,6.187603441224737,0.33566829311561497,-0.23398871910913202
4.058321435,1.763127083915601,1.4541060972264779,3.1213950867956775,6.156913722107759,0.3500431607462121,-0.23652073232813073
4.078326535,1.8282101308425898,1.419909091976532,3.1462951674357056,6.100765382911683,0.3628590970270692,-0.23860937354157838
4.098319225,1.8661797015823125,1.409115873943814,3.129597258986885,6.062189144414518,0.37308883510652574,-0.24088372288780857
