time (sec),x position (m),y position (m),forward velocity (m/s),"heading angle (rad), from x-axis, positive is CCW",throttle (unitless; -1 to 1),steering angle (unitless; -1 to 1)
1.003833842,1.801003328694991,-1.1725526715033046,3.2909014410999995,-2.9105022778970584,0.43984230406324215,-0.19728746367358804
1.023846417,1.7535297830126386,-1.2100736372672452,3.279097760710269,-2.9669185722800235,0.41170742559005746,-0.19065126923413994
1.043845254,1.677412939420842,-1.2233718692476616,3.2665149864458143,-3.032633255955858,0.3890685864289881,-0.19153766654260712
1.063902192,1.6206563887059042,-1.2168911632788761,3.2425239654259417,-3.0556298471030763,0.3719496599457057,-0.19284282355867632
1.08383225,1.5561181103233348,-1.217131904985794,3.2425562732342526,-3.1096516507694445,0.3749249521237337,-0.19357936604615705
1.103880988,1.495484959419865,-1.246981025237166,3.215194047972307,-3.1551574477079396,0.3631389096838339,-0.19415920844025222
1.123891418,1.4209695575273489,-1.2110549254751957,3.22686895350635,-3.1848608814945596,0.36183682689724567,-0.19546414021359176
1.143824446,1.359875793722319,-1.2482353258873147,3.218475610218682,-3.237400090574903,0.3621114229939092,-0.19647780816315066
1.163838589,1.2890612356699171,-1.2110967032688171,3.164816070118326,-3.263223626820304,0.3477368626854862,-0.19781698264803066
1.183830027,1.2589369903780308,-1.215796637426007,3.1460669084746353,-3.3133338831430144,0.3360509794843867,-0.1982620591839364
1.203831179,1.156564398444714,-1.2106126304672968,3.1478471703028643,-3.371014290409248,0.32679431941961257,-0.19935165638971974
1.223826388,1.1063775658649109,-1.190072528762186,3.1202094005757948,-3.425667482911505,0.3328422872949214,-0.20047746003156744
1.2438494580000001,1.0438956660653458,-1.1857387818753669,3.102469600076018,-3.4612971233530656,0.3228022523938645,-0.20206588942419507
1.263843008,0.9947262138354641,-1.1510378257069152,3.067691273742679,-3.506699143410712,0.3286317455280262,-0.20375522976967644
1.283851158,0.9339560263596027,-1.1295636185106122,3.026214223881869,-3.5632405172881123,0.34146383331975366,-0.20538215399031146
1.303882425,0.8870665835594792,-1.1273861724211707,3.0648705755701697,-3.5898301751682533,0.35215993338515456,-0.2069665366475792
1.323900127,0.8390694932264449,-1.0872516663691445,3.019647444826029,-3.642967152880875,0.34562751058453783,-0.20131987138537916
1.343831684,0.7628903574134126,-1.0589733206561616,3.041096686546107,-3.694880077000532,0.34191195409202696,-0.20340183887712462
1.363862752,0.7004057556811376,-1.0337319428758598,3.013227285336203,-3.721460641684046,0.34114793948328465,-0.2064563899535331
1.383835655,0.6576457983870297,-1.0114459528985889,2.979671718820756,-3.786793356968948,0.34719469991170765,-0.2095891603181379
1.403829492,0.63838516120318,-0.9576184980873473,2.9606011703871906,-3.8130977763475467,0.3608402543144908,-0.21287769483485963
1.423845995,0.5589117731821203,-0.9259707969023334,2.98162453685594,-3.8693907570710055,0.37033352145793863,-0.21624940904590065
1.443838387,0.5350631090071644,-0.8653969493778196,2.95225756002048,-3.9140181272568264,0.3900524824627739,-0.2191716498453589
1.46384788,0.4933218593531415,-0.8674075348655553,2.918582883115365,-3.976837049139158,0.4085667100765689,-0.21985395395427415
1.483834239,0.44274510630155484,-0.8131174358553094,2.953161308784199,-4.021574974553448,0.44160610376688164,-0.2061066201154263
1.503844717,0.4082010269346281,-0.7499755680580592,2.9955127839433655,-4.042413692534053,0.4684963508811828,-0.19158228179810746
1.523835315,0.37077667517897867,-0.7055737734053422,3.020986117477411,-4.0879807120210865,0.5012809059243929,-0.1776347802709986
1.5438345400000002,0.31898994511202833,-0.6606270936510846,3.0495802639515164,-4.1254645880010665,0.5181192626155434,-0.16391732734938683
1.563838705,0.28154777382928936,-0.6176824395695446,3.086933479243241,-4.142391434458526,0.5427438256268685,-0.14936642318707652
1.5838346410000002,0.24738145993831512,-0.5539781040968783,3.1293480123456447,-4.163710292088867,0.5689538705869951,-0.1345165247795604
1.6038285669999999,0.2161610730401268,-0.5035059851638374,3.1544554932121764,-4.204694758123213,0.567812963013578,-0.12727198648014046
1.6238461480000002,0.1930463034677435,-0.46027329507147136,3.2033710456885998,-4.235952935221111,0.5615773217697905,-0.10533184973150238
1.643939665,0.1560333757558705,-0.3943424161618798,3.254680190790008,-4.2612015057397485,0.5722187588659488,-0.08397213299699341
1.6638364490000002,0.14864573062842143,-0.3426464369446149,3.3296068803616974,-4.26556850490059,0.5781166989283388,-0.06353815031928109
1.683834824,0.11189894601588328,-0.2839890946944377,3.342302315382947,-4.277199842645148,0.577039986422163,-0.04393770820264234
1.703884608,0.0804362315797045,-0.21986707593430993,3.383595564123601,-4.282779217669239,0.5771717919498844,-0.025583122003904158
1.723899434,0.06449904697298259,-0.1552531991362469,3.442029877575335,-4.30026565143474,0.5899507533721106,-0.006806352589734996
1.743837363,0.008280046063603696,-0.09655722554490669,3.455236725993275,-4.286972624347733,0.5518900609448355,0.007842955507463834
1.7638433500000001,0.002723643809292362,-0.024735971230936973,3.4968089066640546,-4.294291920545086,0.533696225932162,0.023786701352451
1.783830527,-0.04419255251897756,0.05032242451247122,3.5495200928765875,-4.2791205455889765,0.5077737390563748,0.03729671824978346
1.8038493930000001,-0.08349478131871631,0.10214965677349681,3.570286805282043,-4.28559511213448,0.4964194398271503,0.04966435094398161
1.823903868,-0.11251762866087381,0.17710712071358858,3.6105739312677803,-4.291845194606716,0.4816541869475509,0.06061490196812981
1.8438286750000001,-0.12924530328780898,0.23051798935764986,3.6194989925389116,-4.2695375181889865,0.465393727234174,0.07025137459496346
1.863834523,-0.1730650783323965,0.30823573356802897,3.6400717734987693,-4.25285239557621,0.4579759799982781,0.07881016560084593
1.883831946,-0.21707461027886332,0.3448182901817959,3.6422760531746534,-4.235544076953894,0.4512158511829318,0.0870814089918299
1.9038653700000001,-0.22803824822699392,0.3976603294191871,3.6483912918981747,-4.227554511117487,0.41120665189265515,0.08514494339171347
1.9238877030000001,-0.2960951449400316,0.4813973072470068,3.6491341811352838,-4.1927543535851095,0.389694073438604,0.095616870583415
1.943829948,-0.2947874786304261,0.5482386407563637,3.66846703905308,-4.191545983187125,0.36002477305024416,0.10556851633135474
1.963831509,-0.3569645761097919,0.6089677560412025,3.6716698208515948,-4.162393521410244,0.34943525959620025,0.11522825850679425
1.983833706,-0.39216484084610104,0.6882150503712626,3.6680130752182927,-4.112353413731738,0.33215135677704943,0.12408276751537171
2.003855184,-0.4440939931753117,0.7519258071377344,3.6615544921187677,-4.103394730666204,0.3253322265838916,0.13226266031546205
2.023879363,-0.4859354984267062,0.794999157074868,3.6516243758435345,-4.067225757010204,0.3150025175826591,0.14055950762164124
2.043834962,-0.521068011320308,0.8370395353254505,3.6496449353078484,-4.040775118163504,0.2840730115383533,0.15546033577564974
2.063848346,-0.5526228166613129,0.9130059594841485,3.6272033057443194,-4.006500849194947,0.26670984875691467,0.1604222044460151
2.083833938,-0.6311539730623311,0.9460258885104351,3.5913256446227955,-3.9636807790522037,0.25959413586959496,0.16524732692200933
2.103887973,-0.6768595721605198,1.0226122465484417,3.5937374405274833,-3.9176352877191536,0.25481033620898397,0.16957602975965314
2.12392277,-0.7070307340954369,1.0638731171584925,3.5776521600882005,-3.86938969947528,0.2469111014901089,0.17179021518222318
2.143826717,-0.772233695074753,1.102375931867408,3.5539205983703863,-3.8389912949875713,0.24547335020590405,0.17416824887974175
2.163877521,-0.8340296411729535,1.1464354117502351,3.539874803537343,-3.7933261306246986,0.2501572278336302,0.17601487229802448
2.18383418,-0.8922867589751551,1.2164971815349754,3.518186996398544,-3.7559611540106643,0.24740457680032849,0.18142943398949823
2.203852569,-0.9295782341253026,1.249714590866154,3.472464479684681,-3.6889802054285137,0.24272174276524625,0.18260378266817662
2.223880804,-0.9906342200684003,1.288834736774308,3.450190414301136,-3.629359944872996,0.23474539014194734,0.1836209828845334
2.243846102,-1.0528321871142932,1.293738276673768,3.425217152552363,-3.5880522817017995,0.24100727364411448,0.18412345336874866
2.263837288,-1.1211893890668436,1.339325112398395,3.395294455633019,-3.5413450638556543,0.23966309324576537,0.18418268051474002
2.283835298,-1.185157455555039,1.3879601477944867,3.372098150782808,-3.4986119642599705,0.2518598557178062,0.184539865679845
2.303865189,-1.2309534465812615,1.4094792134778056,3.3453013062062396,-3.4544607068636326,0.26240178989862273,0.1838969675454094
2.323897402,-1.3006909415306305,1.4183887995597253,3.3411019466410266,-3.4168430070273894,0.27419935784739297,0.1911175556863233
2.34383702,-1.3637860613051749,1.443575745562192,3.3017725222169,-3.3564788860001276,0.27329780886515864,0.19047192017682513
2.363840888,-1.4302999677709454,1.459855372544666,3.260655430146866,-3.3178288175076114,0.28012642319639997,0.1896023080360635
2.383835079,-1.4663758513956877,1.4664507754566387,3.2813054852964263,-3.2501299191873843,0.29144118809914993,0.1890604272484425
2.403828136,-1.536925447791337,1.480568974572509,3.2424411523188397,-3.2236128975629414,0.2975932760421697,0.18844259018778786
2.423828209,-1.6035671122493793,1.4973400782653643,3.1888607316763222,-3.173847354492093,0.3129287233709177,0.18767210718665156
2.443828165,-1.6693834124356084,1.5024583401109544,3.2248107472828464,-3.1165011167831653,0.32531281594051614,0.18741491931051552
2.46383657,-1.731058804412097,1.5022032367474907,3.185397398427624,-3.0923751985760846,0.34459741631622876,0.19044358186227667
2.4838483670000002,-1.799634312185282,1.5020044467787677,3.191361625361657,-3.027441060565882,0.34436197300490834,0.19077213959077347
2.503826692,-1.87921161110449,1.4976491172990112,3.1818189129662877,-3.0084012952818973,0.34191310802586344,0.19200860310837842
2.523904057,-1.937864117078435,1.496048133972631,3.1628140408430774,-2.9408361356962596,0.35226702512084956,0.19319283846262575
2.543831645,-1.9807872845785799,1.499192618667675,3.191391316970759,-2.905136499287202,0.3699592111119259,0.1938429621885322
2.563852301,-2.0749291469250295,1.4663817591423283,3.17753262268839,-2.862575968225836,0.37098976465130534,0.19525608024690502
2.583832576,-2.12024366247087,1.438515942353119,3.1859386630798356,-2.8075912083598533,0.3899956502766832,0.19709179541469043
2.603827586,-2.1894690027038806,1.4233417788198328,3.1477280538938173,-2.7852176846615535,0.4071057645420055,0.19876546901508574
2.6238740700000003,-2.2322520987483934,1.4299291941242904,3.166320542893361,-2.7364859277339693,0.406969091303812,0.19650490752324873
2.643840494,-2.280792859689001,1.3825828589270992,3.1548114576682784,-2.672295280789748,0.4116034741494178,0.19926402402024992
2.663839499,-2.3532696853547974,1.3585546726719455,3.156470265337753,-2.6368177493254836,0.40245864772927675,0.2026407134838784
2.683839122,-2.4116565431599994,1.3404813378038622,3.1558983191491428,-2.589891352237076,0.415497346187687,0.2055395659067459
2.7038254740000003,-2.457531138301069,1.2868807892131424,3.1840807562339393,-2.5584146090396263,0.4237425842746822,0.2087542837639014
2.723914732,-2.5197169928853533,1.2629792798277932,3.1911903982876577,-2.526377908812694,0.4440699987339525,0.21135076688606774
2.7438370499999998,-2.565422769793418,1.2225902383330705,3.1744694590560036,-2.468684376548562,0.458406681430423,0.21364345310925864
2.7638340340000003,-2.6156824873949165,1.1962276953140107,3.1876419294206744,-2.422815438681981,0.45267446945713524,0.2170055579851131
2.783842118,-2.6667764021564655,1.1521811466657668,3.195423043097061,-2.383784949064168,0.4490418774275358,0.21739900889598673
2.803826067,-2.724830718517714,1.1001300976659105,3.1824937402127222,-2.3061201165264715,0.4500260290391448,0.21808065297067242
2.8238283,-2.7605550509268273,1.068172930492046,3.1936708533371037,-2.2735717425014355,0.4466787429884131,0.21888945969788384
2.843837652,-2.7985860330299555,1.002451882327099,3.221847059981164,-2.2301893870136884,0.451803434145507,0.21849935031715947
2.863853381,-2.859809410510819,0.9688797947282468,3.199467213490984,-2.171484408577783,0.4655553143142455,0.2180938229535559
2.883833962,-2.8651054611709577,0.9217674564857049,3.2381433381845306,-2.143162664350158,0.47904101353075274,0.21761042619185889
2.903825642,-2.9046187025498194,0.8541473950401536,3.227488589996132,-2.086323985771764,0.489807450460235,0.21636098607214688
2.9238251330000002,-2.9436254293184274,0.8044961371555104,3.22383396239337,-2.0546174548092226,0.48570498608759316,0.20511166536467632
2.94383377,-2.9791770080106894,0.7510588097449372,3.21941765804724,-1.985457388598732,0.47076954366170626,0.20550180350398342
2.963866252,-3.000017425368913,0.6613161963525107,3.2399978244019163,-1.9452762125664178,0.45874826666384616,0.2052131726799991
2.983833816,-3.017955790441658,0.6057880662381065,3.25077017031402,-1.9126536245037398,0.4618725682555292,0.20606944218770723
3.003891587,-3.037530914283258,0.5452246687741884,3.2525980908677097,-1.8727101060927505,0.46847692046571854,0.2068963866793305
3.023881483,-3.0443300753575837,0.4862881837942692,3.2425407238554005,-1.8103397979955673,0.46791912279960696,0.20744588453945353
3.043834297,-3.110960698687206,0.41250937906404783,3.2243543191707738,-1.7681485266326267,0.4881571325558883,0.20837379020120128
3.063911962,-3.1019911068546007,0.3697805455051656,3.2787896083135832,-1.7276802862837903,0.46658636441722084,0.2145915599530749
3.083830983,-3.1290370672891576,0.30069118535797495,3.2827941579314186,-1.6816340952867546,0.4511508607633835,0.21229967964999535
3.10383256,-3.1227370432712873,0.2257272458422472,3.294979661192507,-1.6390735147074027,0.44437658339831954,0.21066640741990722
3.123831189,-3.136590229073428,0.16685094607957635,3.3026001506714664,-1.6003232100081692,0.44349782103526675,0.20923955189993376
3.14382092,-3.1110591797642297,0.08847304081122188,3.335523060391112,-1.5644244852974167,0.4422971594410492,0.20795346800219808
3.163833001,-3.1225985949905954,0.03285856389951479,3.2757698238156285,-1.5197051238815698,0.44834159806823665,0.2080014932855688
3.183862048,-3.129102486644335,-0.04553832580198035,3.2693805308455754,-1.453812735918917,0.43258169888298204,0.2065691276431356
3.203827636,-3.1140503906015478,-0.10342392859032308,3.2404905690244976,-1.4043747398410864,0.43144761477241617,0.2017391533858762
3.223831118,-3.1034806254725593,-0.15422265655007683,3.3518567132288317,-1.379732502638452,0.4181748126860677,0.2024806078785695
3.243872317,-3.0973751937127263,-0.23060851458169043,3.3370263251831664,-1.3231161289675222,0.4073162296681791,0.20436526135349384
3.263841725,-3.085465599218606,-0.29826128679131486,3.2380519705608304,-1.2739098015634502,0.38190965091338486,0.2047793730413636
3.283836771,-3.0612679790739317,-0.35558060312023754,3.30430357874662,-1.232437898279988,0.39840333239172987,0.20582297489352305
3.303883399,-3.0416858226049306,-0.41962421413027223,3.275633946444833,-1.1741409694470515,0.39268803569884575,0.20656128692526618
3.323913421,-3.012427221587139,-0.46607044642317713,3.2500991940926394,-1.1355776064581402,0.41255322098274466,0.20705622444385965
3.3438295780000002,-2.9859339189997907,-0.5441175221195113,3.256352503672143,-1.0864577527512267,0.3745397773129388,0.20592804623198988
3.363909157,-2.9682310570230626,-0.5898419890883171,3.2663046133436446,-1.04260652567982,0.36503016908239033,0.20673352677228746
3.383830299,-2.9438488506434175,-0.6295690753158071,3.250132173566505,-1.0021843450365275,0.3938507726619549,0.20554390178095341
3.40382729,-2.917001599101296,-0.6954536868634991,3.2214407755163235,-0.9551457036512201,0.3693971223379402,0.20579226074795556
3.423825698,-2.8622945755777045,-0.7659580394040038,3.1934560728923884,-0.9091680824391738,0.3662465104625079,0.20642705948377724
3.443834986,-2.8278932608551313,-0.8277210958689734,3.247386014779303,-0.863379880068396,0.38219885113515695,0.20691849838847823
3.463839995,-2.7836236266613437,-0.8708112970246529,3.2105044213399827,-0.8015677058499324,0.39045172481053475,0.2075152699641048
3.48384048,-2.746008578734251,-0.9033938965617401,3.205196026952427,-0.77842239824878,0.39038420810287505,0.20807841195758728
3.503825727,-2.701965250020672,-0.9675651142903333,3.196645544992215,-0.7241832042409055,0.3933387790494918,0.20915251404344273
3.523825034,-2.6614229331935912,-1.0065703849423364,3.1950620365069815,-0.674499167544563,0.3934291612372856,0.20935089816066121
3.543827256,-2.5988083666452058,-1.0302246426573263,3.165208920836098,-0.6310929948623335,0.39656493194916315,0.20883917886392023
3.563834221,-2.550341153108758,-1.092705179492503,3.175895218414338,-0.5853927466592793,0.38615942386831215,0.20871762202955532
3.583837366,-2.504538765482281,-1.13032392304883,3.174978622339888,-0.5519025774535907,0.4042654992152988,0.20936120220965515
3.603825679,-2.4512711199195047,-1.1593886966042424,3.1841170938628007,-0.4898498356449079,0.4111646463637539,0.20919222865706683
3.623825026,-2.403259600436151,-1.1924794413387096,3.1747973901050415,-0.4631982096909369,0.4230576512885357,0.20964322614337572
3.643836188,-2.342010031021892,-1.2256904320158242,3.1658403814092066,-0.40654702195317644,0.42886911208078127,0.2114875881017545
3.663839192,-2.294417108897922,-1.2492507651697016,3.160733135591395,-0.36289823189679266,0.4271439475491805,0.21184651521305176
3.683838495,-2.2400841829814326,-1.275196685368879,3.168855648801178,-0.32628788954696714,0.43035822246671607,0.21245436272432103
3.703833319,-2.173875586247381,-1.2747540931347596,3.1723583853463557,-0.2752065337648662,0.4287764362987475,0.21289912827195445
3.72383299,-2.101465577494694,-1.3058667110631823,3.1609235918637917,-0.21801526664215543,0.4399001551416105,0.21345226719796231
3.743842218,-2.0434341167350505,-1.3197581307833068,3.1648942112303926,-0.18796828054821055,0.4508401165038468,0.21357679634716212
3.763833999,-1.973370689417439,-1.3197698671511877,3.1751811352471178,-0.13004429919084642,0.46918065344982146,0.21376660237414868
3.7838330620000002,-1.928569470150996,-1.3478128101954294,3.171626648232508,-0.10125114423652759,0.46010372445513736,0.21332152191700426
3.803829835,-1.8756005059325276,-1.3483162930303667,3.1827069640945007,-0.04525619862448844,0.4592793945992917,0.21241226538721605
3.823829417,-1.7808541281687336,-1.3559003729384558,3.198793947641714,-0.0013882566541526611,0.45256932977277514,0.212215654654915
3.843832409,-1.737072022186877,-1.3541192578563122,3.2115763242315154,0.0403790369969157,0.45579776199502003,0.2123129761317043
3.8638406620000003,-1.6737105761687197,-1.351734167576838,3.212905098760201,0.09199937276064314,0.4589073810505916,0.2117276442930712
3.883832782,-1.603233666789573,-1.3514057354742273,3.2256106733258267,0.13245729690905003,0.4663539744805869,0.211984952380302
3.9038330510000003,-1.5369055172283248,-1.3560202486195707,3.2185044406203636,0.17765701795386046,0.4741795699645275,0.21205031269187213
3.923831736,-1.4752375106684745,-1.31484282499581,3.2172377989576035,0.20092888316435492,0.46056832161746464,0.21020151075463436
3.943905264,-1.4092300140526741,-1.3102605728810333,3.266503896335145,0.2719607854623955,0.45351628959499546,0.21028902202743394
3.963844029,-1.3438783852988982,-1.299501829893248,3.244129030470386,0.29890516884108176,0.4516527358121544,0.2101499220103641
3.983847228,-1.2927402794895273,-1.2840680087359326,3.253778658609403,0.36948537464510234,0.4494532401934992,0.20886871549746552
4.003825391,-1.2361827370993514,-1.2355995459868216,3.2619876433651798,0.4103894410950854,0.4501605154291442,0.20951127286482335
4.023827025,-1.187164264073832,-1.2166307944035555,3.2784402282239697,0.45991441275516676,0.4558327197139341,0.2093506737260636
4.043830248,-1.094333955010297,-1.1962337838952497,3.269974407333012,0.48999565707901893,0.4655705101136782,0.2090474057050967
