time (sec),x position (m),y position (m),forward velocity (m/s),"heading angle (rad), from x-axis, positive is CCW",throttle (unitless; -1 to 1),steering angle (unitless; -1 to 1)
1.018096379,-1.5642446157098624,-1.1637589589817976,3.044357914125786,0.043783754993476656,0.44674206936660965,0.2150530470167382
1.0381724860000001,-1.5020205667886923,-1.1468170107650526,3.043021791202014,0.04342351296702914,0.4457232230386862,0.21473790244958665
1.058095125,-1.437876368716019,-1.1632629001098465,3.071684553830557,0.10754092105365039,0.44646448907230624,0.21438840892880276
1.078088588,-1.3972375628836842,-1.1620119630037016,3.0773245901975117,0.16004932306940722,0.44479653344389597,0.21403838480743248
1.098162926,-1.3317126472785792,-1.1663209635675915,3.085902443871607,0.20621239370985653,0.45049859174776014,0.21362543344030674
1.118102033,-1.2425691858158654,-1.1289155736867484,3.0702514893967763,0.26254724991488765,0.46331871818341896,0.2132436290009511
1.138100522,-1.1885779359419855,-1.1331446110798817,3.0797130123409553,0.3099375011860687,0.4708845273262964,0.21290750245521303
1.158110507,-1.15130328448371,-1.1070295279389284,3.1445303225828023,0.34229226229290577,0.46322899390556105,0.21452832791729626
1.178088179,-1.0922062385952975,-1.0842401866052707,3.1386770951936165,0.3798395378808161,0.45668642512378443,0.21350598934155543
1.198159403,-1.0462973841667034,-1.0522643262844986,3.122347511812147,0.421909389646202,0.4533447866746782,0.21254135692708326
1.21814052,-0.9661515600106511,-1.0406852658091126,3.126342227636522,0.47107317255558867,0.4559563933451049,0.21165013352152337
1.2381031120000001,-0.8947370644065886,-1.002343763614143,3.156133847219223,0.5221581663172186,0.45878540759178177,0.2102176200494974
1.25809721,-0.86888731845093,-0.9854091646771546,3.160440327772963,0.5672174145013663,0.46168082139183414,0.20930939910148727
1.278147069,-0.8118361128000983,-0.9210198243185103,3.16851342615338,0.6012692921930178,0.4689278354969076,0.20839384973082228
1.29809939,-0.7508979961863729,-0.8995796579622503,3.1667052832635987,0.645564016941131,0.4562430682656282,0.20847482817523993
1.318156975,-0.6911388429764587,-0.8652763254189789,3.156508936089121,0.6889795049154499,0.4534409349069623,0.20736046753920584
1.338102213,-0.6606467532138088,-0.822617153116108,3.1846824213116895,0.7607875539311231,0.45048731950787463,0.2067056946793942
1.358124108,-0.5978998391628156,-0.7791132445997936,3.178357911840585,0.7949903756124043,0.4508749868896731,0.20557686645530096
1.37813983,-0.5567767763341801,-0.7536557036067059,3.195665367467758,0.8495961741248879,0.4434988941982479,0.20473856605909715
1.398158845,-0.5192609185409187,-0.7009146031649903,3.2058492132987255,0.8870248924394972,0.4488318298564469,0.20433266743397294
1.418210448,-0.49684670027416916,-0.6415358644790121,3.2001963455543283,0.91486761400968,0.45941702081362623,0.20364654842950522
1.43810044,-0.4203382178422214,-0.5920505965563909,3.212558111835907,0.9792031417962449,0.4625843111765625,0.20021627978000497
1.458098012,-0.38531556216415735,-0.5324016015882633,3.2598130963392866,1.0141728134635652,0.4778315224203029,0.17977371866203185
1.4780875340000001,-0.3408199399787654,-0.4876380004075038,3.258072208721607,1.0529795125381545,0.49778302879256564,0.1585686530330299
1.4980881830000001,-0.30511276891493655,-0.43836752796880274,3.277784451257061,1.0856043799800041,0.5065641787715702,0.13693137975886346
1.518161397,-0.30247272238732253,-0.37052614598422295,3.281342783388089,1.1072362203722845,0.5185435594834217,0.11565939791485022
1.5381074460000002,-0.2717903124399062,-0.3077171167761726,3.3191710692685854,1.1381825248024577,0.5388498836013905,0.09385233933468176
1.558096875,-0.2652787910778188,-0.2551035707072713,3.34762568755424,1.1516445354885478,0.5557603562591589,0.07287361595492783
1.578129669,-0.21013668642235742,-0.18166896768404087,3.39088397054823,1.1740562348386716,0.53524284610622,0.0585692967547571
1.598090057,-0.18590474608507923,-0.1239166045084176,3.4421165535869993,1.1779470747633105,0.5440182452327019,0.03673240812771271
1.618105334,-0.15975227471031483,-0.06390449433155827,3.4686164248796287,1.1786977799314398,0.5405258293818985,0.015559409111734996
1.6381374750000002,-0.13038403106390753,0.011085046466875742,3.502720266235173,1.195246842879211,0.5426766126789582,-0.00412162732668947
1.658096853,-0.09249353141949147,0.0819467196468351,3.542857232558886,1.193626370026442,0.5431919735756472,-0.020968028631157647
1.678104185,-0.08337964611955967,0.12646311379660083,3.5663947640379283,1.173657681429635,0.5441321918961772,-0.03594215632439757
1.698086001,-0.06499869179006347,0.20824477736073574,3.6021640211361516,1.1533067598897653,0.5394146296822293,-0.050161431331376495
1.718092221,-0.024683026215420834,0.27199326904645915,3.6190115126066997,1.159989521581512,0.5105131744826681,-0.05959604160807461
1.73810228,-0.0018180914227454627,0.3210578295239019,3.674466604351979,1.1324107122920732,0.4910523442376935,-0.07158762784846394
1.758093847,0.03170249832270188,0.38375973369073774,3.6929449903459948,1.1307475203334565,0.4748105000796397,-0.08304716242698149
1.7780934460000002,0.06411555119773826,0.46637226207837923,3.6876790188301647,1.09227601324368,0.4593600669379733,-0.09279367022289978
1.798093932,0.1302392372914183,0.5394530420370328,3.6877354517562133,1.0863845932806584,0.44932076365245277,-0.10131536330119191
1.818102707,0.14684410859836888,0.603084166357527,3.735641381369233,1.0552741850532483,0.4362196512110258,-0.1082049587215839
1.8381064720000002,0.18231716786868504,0.667465265650157,3.730093619390305,1.040240042352919,0.431235638091386,-0.11450070529527666
1.858098397,0.22223436242490213,0.7445429723177798,3.7392802043375504,1.00990959673682,0.4255540189726118,-0.12044733136518046
1.8780928010000002,0.26140571543565777,0.7947959635240486,3.757366031685453,0.9794741235851274,0.39314534254119116,-0.119896315023796
1.8980903050000002,0.2952381755188963,0.8673508507424746,3.736045085525125,0.9484783128880108,0.378745231909751,-0.12575035676104293
1.918093018,0.34601757291581925,0.9238699141911867,3.7652657590622534,0.9130599163314134,0.3643079341782812,-0.13129943448105755
1.938094413,0.37467706211555685,0.968466287053329,3.736942847254928,0.8835444480813184,0.35862811345185114,-0.13624385596354732
1.9580962720000001,0.43653377718264275,1.0327689763532932,3.724861156361024,0.8648132693679881,0.35014162366876006,-0.14117375302178187
1.9780883930000002,0.4852243103160928,1.0967423381342594,3.7255558899479513,0.8301167970996806,0.3471202168031566,-0.1456883436687897
1.998097939,0.5216205427946212,1.1499743631328256,3.6811866349242455,0.7944654830289707,0.3478303498649193,-0.15013163493889156
2.018097181,0.5702006660808723,1.205053844350247,3.6784000696640495,0.7545843337932547,0.3223538647640061,-0.15350911366123146
2.03809506,0.6216953337128193,1.269598169897066,3.648007016543178,0.7114910458133359,0.3089912072310178,-0.15641347357890562
2.05810098,0.7059277537880141,1.3023174653272704,3.62419502469008,0.6696300637603886,0.3041302789250489,-0.16037821960780674
2.078093591,0.7307285293640468,1.349039275562874,3.615868766426278,0.630956300285086,0.2959094655029468,-0.1634217397285325
2.098145754,0.795958134038578,1.4012903034075403,3.5806152825040103,0.599859082562759,0.29573004387783797,-0.16565472568877124
2.118100563,0.8497829669259367,1.4355575620972185,3.5579582855796756,0.5552688540475771,0.3019702885330032,-0.16768656947722982
2.138101656,0.902643380933327,1.4802395070055623,3.5113095055038994,0.5242267314470418,0.3118363295898144,-0.16836897187773717
2.158098282,0.9647510595979943,1.522502011431173,3.4849428265745352,0.45697536403998745,0.29976115970849015,-0.16990450054377973
2.178090855,1.0233979475828685,1.5664219952588816,3.477787331214447,0.4212220495466294,0.2931601187577622,-0.17056103256653074
2.198132205,1.0964105238527315,1.5742464464107058,3.4400044660836664,0.39268182360879395,0.2873426492629789,-0.17053882621100086
2.218097069,1.1401849434546614,1.5966909053143392,3.4203389192464613,0.33828002402240465,0.2890807677182266,-0.1708231653279813
2.238099862,1.2064801755317176,1.6347083729067393,3.4002307651490162,0.29860319278147657,0.2897188200669323,-0.17094152986650213
2.258097866,1.284632932326182,1.6534524273202584,3.3903434570420754,0.2581965154690425,0.30388838871091045,-0.17154088596797346
2.278075548,1.3449295936994794,1.6657892614650043,3.350111344939966,0.21424893401684,0.3079977997631871,-0.17202813215296484
2.298143314,1.4041702575575206,1.6884667836494922,3.333357918165936,0.18609426583012217,0.30988613538847304,-0.17306657821888297
2.318102457,1.4962230611969358,1.6898639662262556,3.319740041169564,0.14151714861560602,0.30365968698591944,-0.17131178077571652
2.338094486,1.5484255444093087,1.6998317826110683,3.2835527391223587,0.09478766726675075,0.2963884927227663,-0.17341552208685454
2.3580960060000002,1.581411172992657,1.6944200955996365,3.260492401942969,0.08310556514093229,0.28859050063267433,-0.17559563139173073
2.378087415,1.6934581336526973,1.7197158603458267,3.2316917461632326,0.020455168307374448,0.29343715945737325,-0.17824972843304762
2.398203337,1.727383886112484,1.7213583883087555,3.2148296788503608,-0.0068828322639796335,0.2982437795363085,-0.18136135342310294
2.418095821,1.782227565559497,1.7208280119664476,3.190987097625006,-0.06151268453345119,0.29968290135523373,-0.184465036308729
2.438095646,1.8633342881968742,1.7226578466822573,3.1709885312810586,-0.10139600786598003,0.3056222880376213,-0.1881575224849369
2.458098667,1.9211233071216538,1.7301437616520392,3.182463497547468,-0.14887133068089697,0.30779001420094654,-0.1942179743031136
2.478087625,1.9719885774020254,1.7190180785275084,3.144093265672403,-0.19051866773997703,0.30551978586699446,-0.19645780808558247
2.498090787,2.0533636579872825,1.6876684050499666,3.117893443100105,-0.24618795871998797,0.30238713676553763,-0.1985586451911811
2.5180978190000003,2.1086307532256976,1.6874251571942267,3.0861922863029703,-0.2740199302852866,0.3003977785794798,-0.20057104145247076
2.538104793,2.16462540120976,1.6586063191963576,3.0673800424083746,-0.3247102857218042,0.3051537895334094,-0.20375178482810785
2.558131989,2.244613206082737,1.6618206535275386,3.072085084658238,-0.3601884982346007,0.32348785827799104,-0.20603724884211244
2.578131749,2.2845676728359074,1.6353482692713244,3.046857602354252,-0.4028204188192675,0.3252405459359948,-0.2085419879785925
2.598137017,2.341091669964471,1.6129533544563324,3.0269050925438434,-0.44880572570686433,0.3423409950916043,-0.21879916100999885
2.618091421,2.3971606246255157,1.5640529417924465,3.022702056374752,-0.5071865363312448,0.3469768736223594,-0.2201195944523519
2.6381045800000003,2.444651199564962,1.5407390608163931,2.9949801863300407,-0.5453512223200019,0.35192396643745466,-0.2211268835718828
2.658094504,2.486948261553992,1.5334822616333266,2.996254910795614,-0.5922862447103181,0.35896771922038045,-0.2230124784586252
2.6781159629999998,2.544120595637477,1.4966986809019263,2.9574872600399162,-0.6391807038351932,0.36987226750453434,-0.2247152845049175
2.698114109,2.60322980171488,1.449044305061754,2.9629202186111483,-0.6745076494504618,0.38262158744186714,-0.22643090832808488
2.718088829,2.6413830084247913,1.419747194304245,2.9767949564807736,-0.7252286584041338,0.40099302106133583,-0.22787906548040524
2.738106415,2.6933183018760185,1.3782637217313882,2.956748526256145,-0.7821409412758076,0.43478769459872074,-0.23274443705168849
2.758093185,2.7306101391443223,1.3323552937612393,2.98828816493602,-0.8306836824878383,0.43777751812551086,-0.2333655193738123
2.778096181,2.7517425562097295,1.2786710395067717,2.9378951397115545,-0.8711615474814683,0.44346854604257,-0.23407425985732372
2.798093464,2.802505223959409,1.2330093747634683,2.9878061263781404,-0.9119098715973214,0.4591642452746176,-0.23464031953825826
2.818158688,2.8328683485220942,1.2132823605026681,2.9949782486509005,-0.9638171421540899,0.4702728891651571,-0.23499159677746662
2.83809838,2.8587978315232685,1.14926090120386,2.981775637406087,-1.0173182918304795,0.4813049294795586,-0.23526295947126305
2.858094114,2.9067181455137527,1.057841889013443,2.979947019798508,-1.0800704953299154,0.503052596991933,-0.23484216763007534
2.878148598,2.937311704616328,1.0431592438637725,2.9953135301779445,-1.0861072614839724,0.5143672403219516,-0.23436311897059992
2.898088784,2.956306228835598,0.9909019762407396,3.0317695729978396,-1.1558574278001479,0.5318587633993869,-0.23479441356726835
2.918144078,2.9603110502249614,0.9182588666475772,3.0267585825164693,-1.2098257530955727,0.5218988339928183,-0.23336338181759297
2.938125842,2.9905207379565777,0.8934855201113654,3.0782483229580713,-1.2469026429095864,0.5304819716537156,-0.2330990437547685
2.958094341,3.02822330101085,0.8198750750660431,3.08759960017077,-1.2916070834188855,0.545613138086112,-0.2322705575025806
2.978087807,3.0491356535089875,0.7416006089678556,3.1014681852488155,-1.3303310263334565,0.5572508428330584,-0.23159418253983913
2.998091447,3.0387541552955164,0.6981348575663199,3.1246088939289747,-1.3782038526663722,0.5636824624302722,-0.23179797945510536
3.018094056,3.042014773818105,0.6442295673346454,3.1271662665625164,-1.4168498432881032,0.5842127725400907,-0.23010123587643033
3.038098058,3.083772830680759,0.5599857886526478,3.1345615474767965,-1.4804251053469688,0.5694044865579568,-0.23010807675645184
3.058094508,3.07506111427098,0.5098560139730443,3.185279718920384,-1.5160543140608265,0.5605400486832778,-0.22931880634573643
3.078086229,3.102833631496261,0.4452811660260574,3.241091908996764,-1.5704014338444476,0.5623054320825199,-0.22870252532106206
3.098162139,3.0869834698127527,0.37164540602216034,3.2192373700905597,-1.5936010564357208,0.5577709381567839,-0.2279330554350774
3.118154102,3.090978486807785,0.3145293499148378,3.2448393501450883,-1.627903281545246,0.5583127039233607,-0.2268661063813039
3.1381043220000002,3.0854156866568996,0.25369900363490305,3.261214903871945,-1.6839145710522991,0.5620356560300944,-0.2269449492433112
3.158092927,3.0620691178528174,0.17067489299148852,3.2857480140658453,-1.7245934268740761,0.5865817983545459,-0.22469243071572756
3.178133386,3.0558887672736557,0.12251404224055686,3.279628331115997,-1.7703730727610656,0.5619414718587169,-0.2201562501230471
3.198097529,3.0539330238109765,0.0744488055506213,3.297390923459595,-1.8191706572742783,0.545162497912237,-0.22068778969137787
3.218101447,3.0532470431576337,-0.007315261684973639,3.285707780600888,-1.8466145868735346,0.5446614041467359,-0.2206373750543307
3.23812019,3.0167727546540615,-0.06919567770835502,3.303816035934319,-1.888559103755242,0.5363889755171494,-0.2208656520224691
3.258096572,3.0049430241612867,-0.1283424203441314,3.341245487493553,-1.9276558201499119,0.5356739838829041,-0.22143908802849885
3.278086116,2.9716274576809516,-0.20776108855894526,3.3131338352287516,-1.987027342779984,0.5304800393339035,-0.22198316276237914
3.298166433,2.9501968740105866,-0.2592015779352898,3.3470551005379128,-2.0256400491827833,0.5355895496979801,-0.22240135325246504
3.318144779,2.92688906575934,-0.303207382920221,3.3426465856213823,-2.0574564823008656,0.5258768468646011,-0.22745247676819577
3.338108839,2.8896799542056364,-0.38163906614733895,3.3478238572945695,-2.1355950227454774,0.5184888551908221,-0.22568710390529512
3.358096742,2.86402303570481,-0.44949875804304446,3.3464155458126736,-2.1590842208792362,0.5123547790055843,-0.22369373614554663
3.378145659,2.8304366504404364,-0.4952109638547997,3.3317682460531346,-2.2062895942589753,0.49609520208278823,-0.22236205012683782
3.398170017,2.77091939481466,-0.5737176859414328,3.3364852942523986,-2.2447543256700966,0.49964391358240673,-0.2203044472462797
3.418103799,2.7472836756711723,-0.614572092313541,3.3262237157442742,-2.28573077649529,0.5019536863657394,-0.21815870206260374
3.438150846,2.7068128841582104,-0.6619838012511714,3.3487294404701125,-2.3356096380427958,0.49463540936289174,-0.21759518104247932
3.458100743,2.6642125993959542,-0.6944659255849919,3.3218381611969163,-2.380031442261188,0.49018298235048935,-0.2182681451650092
3.478131433,2.6028420266708627,-0.750816618967241,3.3110599237047817,-2.424630334029154,0.48112014728621255,-0.215875166829235
3.498132849,2.5594362329646776,-0.787233108090763,3.294358768062041,-2.470224304620965,0.4725052476270538,-0.21446302764079855
3.51809125,2.5124247902994425,-0.8504783701300409,3.299343888100245,-2.4973967854435872,0.4750278747858133,-0.21229411107713503
3.538110299,2.4641336740461606,-0.8758494766582506,3.298223065672835,-2.571196327417001,0.4776827087384276,-0.21042887340003102
3.558097609,2.409662217088906,-0.8912459196195334,3.316724068654267,-2.607577929885626,0.4685171744794844,-0.2105267503593016
3.578143771,2.3320699109061334,-0.9477125678931846,3.2711226399383433,-2.666412210284005,0.4795766651194925,-0.20752701051559166
3.598172622,2.2875753104621817,-0.9748875699829271,3.309516957469596,-2.699844551488812,0.47998209975432,-0.2020673033374244
3.618089714,2.2210778892734226,-1.0106212795019265,3.3208101641385133,-2.749039810678987,0.45767002616934493,-0.20175776066791257
3.638101874,2.1484920313443725,-1.0330251778176465,3.321441438385446,-2.7683515613832044,0.4455387840624342,-0.2000696250291304
3.658094376,2.1065975115251434,-1.0544413621102329,3.277521426969263,-2.8194034341008267,0.44202993191771933,-0.19958433778231402
3.6780874040000002,2.0554272946852863,-1.0946280200188803,3.2869327859705013,-2.8441372721792955,0.4327242725614038,-0.2008597613214888
3.698172139,1.9856684649804732,-1.1146672748692081,3.262552739370725,-2.894201872114676,0.4393023657052128,-0.20140785340164108
3.718152027,1.927206263109838,-1.1304713514008062,3.2614073377672814,-2.9400513395723524,0.4340357545298555,-0.20274854335860412
3.738098269,1.854665372711803,-1.1393963581075044,3.2545238439066155,-3.010151988472083,0.41202780382492116,-0.20227174121033054
3.75809746,1.7813058896685618,-1.1558366080276776,3.239113115514731,-3.0286978736265366,0.39763934650051597,-0.20243363255319263
3.7780884710000002,1.7392109660179706,-1.163371186532893,3.234464403945068,-3.0821747687598178,0.39073168213871057,-0.2034302113128942
3.798143344,1.6539713780756804,-1.1499155382123805,3.2035855202641517,-3.1291576445530094,0.3838361169756186,-0.2048695486436393
3.8181157050000003,1.5865848529323494,-1.1666915595866771,3.1674955948044037,-3.1625367205842827,0.3795610616882729,-0.2052268995982351
3.838104606,1.5386944372901843,-1.1589491915097607,3.164750545033856,-3.218574831473238,0.36740343891995514,-0.2054607433368818
3.858098255,1.4664216418346974,-1.1499377555331454,3.1546651424269543,-3.2599876069053466,0.36663723296905576,-0.20583044551387414
3.8780943800000003,1.417358720663687,-1.1408062943748336,3.1394083554493766,-3.30655562584449,0.3773207736796142,-0.20573722023188296
3.8981083080000003,1.3434164627648286,-1.1355003966342654,3.1392833849120527,-3.3676855242663275,0.35690112334141744,-0.202431638952617
3.91809182,1.2893736876641786,-1.1425428636087438,3.0942416745621704,-3.4009579325966217,0.3452991451446238,-0.20349166011404013
3.938122898,1.2338701680736937,-1.1149291738978795,3.095138610146907,-3.434823905832943,0.34871745305535196,-0.2037089583432576
3.958109131,1.17033848058992,-1.0967889720143174,3.0778314403552542,-3.485486025267827,0.33530924397936557,-0.20502263189231626
3.978085198,1.1217724218530958,-1.087905046547934,3.046423820486967,-3.5434811052837625,0.3366023067045204,-0.2071598164427381
3.9981349770000003,1.0411666462109197,-1.0562489698255062,3.01504458552313,-3.5772554730252457,0.3382327981042066,-0.20910438727743522
4.01814191,1.0119942212962318,-1.0263476306437491,3.0282854144887152,-3.6353100962628035,0.3482600955737275,-0.21105664168465885
4.038113113,0.943707449859482,-1.004959548647755,3.0092638514440146,-3.667603261209139,0.34846735022118147,-0.21391772263336434
4.058088992,0.8910865267811051,-0.9826895007765467,2.983878401980598,-3.724523429380054,0.33647574618348863,-0.21515761705407896
