time (sec),x position (m),y position (m),forward velocity (m/s),"heading angle (rad), from x-axis, positive is CCW",throttle (unitless; -1 to 1),steering angle (unitless; -1 to 1)
1.011545699,1.1750748748942172,1.1682417060565984,3.032564272400954,0.10758916285005161,0.44800607718249574,-0.23168863689296668
1.031499642,1.2482017657788695,1.1477745395652286,3.0425793289641785,0.062002801202762546,0.4347791607433256,-0.22897004387840164
1.051499156,1.3115352037468768,1.1604312585646208,2.9915446355325246,0.020408061312436082,0.41931067397860783,-0.22750396722117858
1.071539174,1.3631937736162325,1.1406926958642318,3.0053443197018015,-0.030865433096354096,0.4127006286480113,-0.2262684016474862
1.091567584,1.4472675284008463,1.1593318285871086,2.9637437799063346,-0.07033683720536454,0.40723751573048406,-0.2257300264684429
1.111543033,1.5118049637992168,1.1531810856001752,2.9611171492996307,-0.128954950884159,0.39958422583790565,-0.22559994461075128
1.13149689,1.5635473787323564,1.1492786573092308,2.9732246953040127,-0.18093381455119475,0.39373672253660036,-0.2255464073270236
1.151527196,1.6045214629070954,1.1440773784428067,2.9330684806390215,-0.2194236598096643,0.39003810704548464,-0.22733881814993545
1.171543783,1.6746172757017102,1.0825175261652242,2.9362810147609077,-0.27544163915466746,0.38183867443464437,-0.22657163312477716
1.191527614,1.7392150723034256,1.1024596882247857,2.9457516707871347,-0.3373278014387274,0.3638029056250311,-0.22533893584055198
1.211549243,1.8053926717325635,1.074312147082517,2.9667785230647414,-0.3547923371895537,0.3680140894960624,-0.22454156905234848
1.231559138,1.8444746995456383,1.0721491005444712,2.929231369525768,-0.4154779239835704,0.3679904909474143,-0.22361306102346218
1.251508083,1.9134818101214368,1.026056458742467,2.925063983061157,-0.44020031136836685,0.36037424026440296,-0.2227852079264783
1.271497305,1.9422461902841281,1.0073252036279134,2.914103617462102,-0.5012243707022487,0.36802888947469614,-0.22218033176183405
1.291490942,2.002229146882302,0.9833968819945829,2.890178770906521,-0.5559385580311832,0.3662304310519719,-0.22460418967097023
1.311560403,2.0458844533298484,0.937322781919147,2.899378503424113,-0.5941367538875266,0.35526834376480354,-0.22456187804792271
1.3314966830000001,2.0966671492969384,0.909090936846545,2.8728099141421413,-0.6472868701428478,0.34785650884443164,-0.22492974229356782
1.35150673,2.1487787423597826,0.864725706756727,2.871749589910542,-0.7025793100105667,0.3482525901373863,-0.22624605691404828
1.3714988670000001,2.1726758285463714,0.8546789939484498,2.8448940042319344,-0.7309806157097629,0.3503412504278881,-0.22698768695819974
1.391492442,2.216466665269556,0.8064699995303548,2.837579689168827,-0.7710283484863195,0.35163710962419403,-0.2288841072037567
1.411523871,2.2576536558020646,0.7564247197439277,2.8418791691748964,-0.8336379323717409,0.35748342268503985,-0.23106568365425895
1.431494669,2.3107551806623254,0.7120273138722876,2.8517786231575935,-0.8860207939764762,0.37003167847959406,-0.23279532256858332
1.451500535,2.3260082301856446,0.677454147890131,2.8270525562846958,-0.9329735983622792,0.36470671990614634,-0.2330488166681429
1.471569887,2.366820223362483,0.6230552636357084,2.850113115569357,-0.9749279587053067,0.36104964340379336,-0.23450202685771374
1.491504964,2.3902038004744717,0.5899843922348773,2.8368551881041735,-1.029883154534778,0.3646617960418495,-0.2354699173785637
1.511535176,2.4168241321110218,0.5175103698567685,2.7935225772959225,-1.0856408648463534,0.36822503045298444,-0.23680607455370228
1.531544656,2.440421381892137,0.4843379702394417,2.8198377391971614,-1.1176594483983353,0.3709604448240245,-0.23785066596040483
1.5514985920000002,2.480573423081659,0.4142727376286522,2.805922617480207,-1.1539875220072975,0.3800808105854847,-0.2385157930873814
1.571538694,2.506217143476574,0.3744202379646769,2.8167498556156123,-1.2115098187026165,0.3910639048632186,-0.2396013252769944
1.591500084,2.5180082760836506,0.3272514858055077,2.7927199861004657,-1.2586878235034857,0.3966163759720102,-0.2361407731595466
1.611515394,2.52848259744127,0.2802546459540148,2.780784851325402,-1.3157519317806026,0.38832961704152286,-0.23761111179452166
1.6314966960000001,2.539653553697326,0.21539718107220865,2.8277260317619755,-1.3634079879247292,0.3972737828242054,-0.23840191311209413
1.6514965,2.5556431187169406,0.16382878676626558,2.786791518721128,-1.3998942169145216,0.39148736177691806,-0.23960796358804753
1.671551921,2.557264493779557,0.12122950661756607,2.7871790619315515,-1.4558169982123093,0.39826488748924577,-0.24038766837654157
1.691508602,2.5631507481013305,0.04597689643908482,2.795027747839426,-1.499043761782958,0.40614609002224555,-0.2415151589669182
1.7115275269999999,2.56915588407925,-0.027937053956570947,2.808542304382269,-1.5566472875808994,0.4205953634441614,-0.24281600881724144
1.731503295,2.5781211392799426,-0.04482770611103418,2.788248717202417,-1.6169148492634788,0.43116173966061994,-0.2406863464420359
1.751498271,2.5660346524197397,-0.13421001849948253,2.7973009235947393,-1.6677728470763906,0.4109202467815309,-0.24001937527725498
1.7714964100000001,2.5645799523856265,-0.1690825108079307,2.7878985948638975,-1.7104193759510244,0.41520992500217535,-0.23926908611028136
1.7914969470000002,2.559230995130516,-0.20598860154503335,2.8214421845887507,-1.757756103786512,0.4169763236231526,-0.23930235452863918
1.8115323600000002,2.5457528112260817,-0.27755382211888,2.7834848350065653,-1.778848228234097,0.4210496366881116,-0.23903912726144674
1.831499326,2.53448813589002,-0.3187949580167857,2.8092711431579755,-1.8372323635573466,0.42551649152536736,-0.2387574978309534
1.851498604,2.5106394527695843,-0.3987719449117288,2.8417486609168,-1.8973866069931613,0.43653485948924853,-0.23855864785958097
1.871502567,2.496017575458356,-0.43949367775124554,2.8121847310484664,-1.9365234498669015,0.4343114160882916,-0.23963314168588717
1.891495189,2.4722660292692433,-0.49209797387149967,2.8437589439883335,-1.9854904789785972,0.4358073185786347,-0.23881886312314926
1.9115301420000002,2.4440420254838684,-0.5376722876389299,2.804257525527414,-2.032555819180469,0.426652559543384,-0.23786105401435326
1.93149719,2.4422289294954775,-0.6026575889764029,2.846707505731774,-2.088034336312066,0.43328274131249245,-0.23790899072652286
1.951498859,2.388882824483136,-0.644829385847724,2.8318483197154416,-2.1401871818410907,0.43155739380479335,-0.23737980472621975
1.971502186,2.357392199722405,-0.6920548762813723,2.8418430187229813,-2.1886404510573327,0.43372128965319257,-0.23664163752394468
1.991549031,2.334044117630532,-0.7613030873582087,2.8383615515243474,-2.2369384056773103,0.44852533316564525,-0.23591282631162241
2.01150375,2.304136346617569,-0.7805608348600159,2.8636262126164644,-2.2668652626246666,0.447568689284088,-0.23164281722433444
2.031498697,2.260098792222802,-0.8180567867294319,2.8397048396766547,-2.3061009488198634,0.4497737536508275,-0.2304781694368295
2.051496938,2.2350217165108313,-0.8687832888839444,2.872029646894774,-2.3479248717878995,0.43864650862359067,-0.23010677725304626
2.071541822,2.1777343718885303,-0.8916000445816412,2.873188291548332,-2.4049949739515086,0.43965017275875024,-0.22982236534531308
2.091541796,2.1330838577156674,-0.932209906243243,2.8698093177556325,-2.446303417550813,0.4351226958418284,-0.22957614376380048
2.111570837,2.0791736861453276,-0.9787140254304232,2.8857157322549583,-2.4947572244261904,0.43973464355423947,-0.22972313257834936
2.131548244,2.040724746214118,-1.0169796541078888,2.8675554170636146,-2.5312346016146687,0.4495633809211332,-0.23034195066417057
2.151499712,1.9781101166651522,-1.0583943992993436,2.9037213325946802,-2.5951878850184684,0.45935654888852673,-0.23087787696720466
2.171583863,1.952943982504541,-1.0956603411150747,2.9065317900729615,-2.649825646630537,0.44783168490442715,-0.2182492406444693
2.191537788,1.8761368759621757,-1.112734712545329,2.914617820827967,-2.6786704516585207,0.4373799091120024,-0.2190250690360082
2.2114972010000002,1.8412548043340196,-1.1282315342004858,2.913014962744669,-2.717618493449173,0.4291241339381514,-0.22055289632221375
2.231500371,1.7829831933352969,-1.1348891323954795,2.9044159553646263,-2.7670488750162563,0.4255415724195766,-0.22214750811834486
2.251498202,1.7151948463566418,-1.1711715191492442,2.9215502149518584,-2.81684920170126,0.42786109622784485,-0.22395474847475302
2.271525788,1.6632049401317641,-1.1774856490957257,2.9399455065967173,-2.8616418486619466,0.42506080636763915,-0.22580540123495987
2.291549956,1.6102000685202684,-1.2270978242056154,2.9122615786915933,-2.906827295787603,0.43261824108591845,-0.22786895924509212
2.3115466749999998,1.569480582880157,-1.212041492130381,2.9104393102942523,-2.9482482501049527,0.4240521242346554,-0.22834728334789425
2.331504805,1.4885116539465444,-1.2282101381961863,2.9479552501703608,-3.012120984080346,0.41150849842660797,-0.22785110150626983
2.351505822,1.4561711633281333,-1.26141506976885,2.939946463297205,-3.0507453041248893,0.40832866635687043,-0.22749667622399394
2.3715006560000003,1.3714568500572317,-1.2644030430235043,2.897554146196328,-3.0933740230236197,0.40278846966140136,-0.2268147303011464
2.39154181,1.331631195851274,-1.2465365030234223,2.904687565918612,-3.1429396009065327,0.40394462889366706,-0.2265116238683152
2.411561944,1.269094545686032,-1.2433382891634674,2.9221281726290647,-3.181961961150153,0.40483750529293155,-0.2258070495003943
2.431499603,1.2300778560437926,-1.2512369942383543,2.9132899052207235,-3.224879588902776,0.40824202818478644,-0.22529578635668254
2.4515018570000002,1.1578012157655535,-1.227445601082207,2.9048557098581473,-3.29447506926639,0.40712376806063605,-0.2251915675380903
2.471505257,1.0866315519106198,-1.2228181850459225,2.9074509355426708,-3.3220894099470266,0.39455017300441325,-0.22249414844443186
2.491550342,1.036228833207787,-1.2225667702977636,2.8884270725875076,-3.3680056362059707,0.3895298981875549,-0.22286004756698427
2.5115267340000003,0.9967155440526466,-1.2019181157970178,2.885822683839874,-3.4381057985887415,0.386022002228228,-0.22324731165284806
2.531505852,0.921512430334638,-1.197449294738038,2.8883095105239254,-3.4573345743759605,0.38099339171045915,-0.2242449146558935
2.55150478,0.8771189284757298,-1.1742216589710723,2.890823283156833,-3.5125461785641203,0.3795496534920218,-0.2249655124059817
2.571519985,0.8132932818491998,-1.1540308420243803,2.87959562520218,-3.555207373477573,0.3894614979877259,-0.22557303282334146
2.59158113,0.7794781769455928,-1.1249884278558082,2.865525401539066,-3.610875455393719,0.39306787720743785,-0.22591046010068247
2.6115341880000003,0.7122264550810509,-1.105206222192536,2.8545110411989745,-3.6601752312723055,0.4069051507296945,-0.22531038761895839
2.631507016,0.6669867082310164,-1.079864055218264,2.847870310210117,-3.695085977453403,0.39118813715388634,-0.21526201583987972
2.651499994,0.6299264681362778,-1.0272590922287443,2.835709818710351,-3.7430155455269563,0.3792895648123487,-0.2170801653106722
2.671496314,0.5660913460493519,-1.0246926729693078,2.8604545014918252,-3.783352623744868,0.3806251017813593,-0.21902811590443566
2.691550134,0.5108886544159695,-0.9564816893835051,2.8289521943302183,-3.825999777604279,0.3772461341582908,-0.2207736935526852
2.711527079,0.5012048681257442,-0.9258469557774739,2.838852865760525,-3.873491275636057,0.3813189742891167,-0.22350904736565078
2.731500769,0.4579086861094617,-0.912077575593768,2.8441563515187793,-3.9031398103042316,0.39648798105773714,-0.2263669921410659
2.751503898,0.39622222120226414,-0.867772325643935,2.826845814177844,-3.962229955321492,0.3995574701935463,-0.22917752381282158
2.771560393,0.3532521096489908,-0.802830035237484,2.8468556022408267,-4.025315562396017,0.4141015303880421,-0.22215562582978632
2.79149771,0.33303202829800677,-0.7730170966887643,2.8406211257153235,-4.064246251179634,0.42576791981085393,-0.20981527655771426
2.811562045,0.29910424532233043,-0.7299548402941914,2.8655987824135054,-4.102231971902781,0.4422770458786241,-0.19680265701972596
2.831496301,0.2637479461061731,-0.6967891059284594,2.8881061615558887,-4.127499626875984,0.45062321360530094,-0.18406302094243326
2.851503663,0.2480020959637082,-0.6284852209845372,2.929849975582309,-4.168309459795528,0.46091993782602064,-0.17168361026727486
2.871545125,0.19904909679844268,-0.5742532938348436,2.9210077937000727,-4.214485835585146,0.47713277958221034,-0.15812034887743287
2.8915598950000003,0.16798932637121117,-0.5165741068868217,2.9392853498515055,-4.248508221116031,0.4881560244778946,-0.14429976092654384
2.911556329,0.15078132114104156,-0.4827920130924297,2.99632681681451,-4.269255212176963,0.4878911654829459,-0.1300398515021781
2.931500578,0.11987059585871812,-0.4250329099365197,3.038455599524884,-4.291402400102816,0.4920326920801045,-0.10383585622815272
2.951507542,0.07969456424836556,-0.36441295960204056,3.0682768733005186,-4.2971615003162205,0.4905732504756876,-0.0787986460927959
2.971515286,0.07226656237351248,-0.3180671897730782,3.104941582755802,-4.289734486458985,0.49329391009049794,-0.05570164283133939
2.991559678,0.04196418763478731,-0.2709997795728488,3.144602508098164,-4.288836753962748,0.5006694933793426,-0.032229582609106876
3.011519225,0.012364521015126372,-0.1907309041151558,3.1941177448873472,-4.290905462905838,0.5072477916141085,-0.009524155944095837
3.031506264,-0.020997149998608453,-0.12743197735557868,3.2136383286721735,-4.321005917230625,0.5051841273886286,0.009948263750502954
3.051501197,-0.033061285247458605,-0.0764408606416608,3.255776315237641,-4.303880177585738,0.48822928656381837,0.021712465362952692
3.071495227,-0.06601054879657801,-0.0037877872300324557,3.270884125012561,-4.294187747029725,0.47113421467742783,0.037484765633027106
3.091497256,-0.09666846087488533,0.038445207877373364,3.3307652122889686,-4.303879839976151,0.4553748974107266,0.05212110048005273
3.111538685,-0.12658344508719432,0.10202879752486775,3.3566472538235903,-4.2779614047583525,0.43898074912460283,0.0654186250340869
3.1315014310000002,-0.14705528407521934,0.14913231145796824,3.340457748330622,-4.263876867992289,0.43108809166608164,0.07753679619189287
3.15152713,-0.1675643612060725,0.22411086211258877,3.351292770807221,-4.248881947984488,0.41967437184830064,0.08890377616319058
3.17154348,-0.23429947728645395,0.27978337048674184,3.3795577782407675,-4.2344940382208485,0.41402710031307266,0.09990323763763109
3.191556509,-0.23249900049357164,0.34579571982279583,3.3762318868483074,-4.212685458921039,0.4135868498182533,0.1101080812924051
3.211497128,-0.26727716777269905,0.41119095033143666,3.4089224435349657,-4.175841781849907,0.37275371683123154,0.11728794267192812
3.231499552,-0.3420301786321717,0.45004471161078957,3.3785288435566527,-4.165463092006419,0.3542058449778605,0.12622308129117585
3.251497905,-0.35878575610244257,0.5182971610255518,3.4237760496749217,-4.125546400401751,0.3443726286838399,0.13483881099554712
3.271494729,-0.38554924382350514,0.6053650835839691,3.432106781627492,-4.079713479254653,0.330062804425071,0.14210506876090898
3.291557439,-0.4232734598089599,0.6118771735593737,3.3791039946784918,-4.04052921939776,0.331018598809008,0.14850029466740347
3.311497028,-0.4918699063497165,0.6859136921667437,3.397523609732856,-4.041287046413697,0.32655927799237794,0.15473500101463705
3.331495094,-0.520003052435831,0.7229149455739946,3.3895013639707794,-3.973571894778466,0.32331546717827997,0.15991105883345713
3.351542524,-0.5773179988106282,0.773482786061698,3.355319738185302,-3.934374153701216,0.3117097400384427,0.16511670034708106
3.371498188,-0.6237455002528627,0.826598459852591,3.370969191495103,-3.9057628329491365,0.2967911648431096,0.16963436813797875
3.39150148,-0.6683920478479297,0.8853107057038657,3.3563734616428142,-3.874883533900926,0.28798915406756187,0.1729998011009987
3.411496891,-0.7170851333327233,0.9277968666198083,3.3345293731574146,-3.8113917138134994,0.2927669071564087,0.17609793621624784
3.431496746,-0.7755959520038427,0.934866597804043,3.3462719747868954,-3.7667241570992567,0.2915850548337051,0.17904624898022928
3.451496386,-0.8237627999753995,1.0076450793507725,3.2915361769052756,-3.7109199490878932,0.30015167357798767,0.18111339214897543
3.471495471,-0.8771898628765342,1.02562581426933,3.2858400846082323,-3.667654795702622,0.3078724337790983,0.1830034139718889
3.491499387,-0.933068504415213,1.05776246561023,3.2713931160367165,-3.6071069213041267,0.3059931727607853,0.18290121607163815
3.511493896,-0.971340896106125,1.0973443351120769,3.262007785052278,-3.569213092578476,0.30245127810142863,0.1837245714156418
3.531575902,-1.0551869978667876,1.125384597440783,3.238494233600103,-3.53476920614356,0.3050419771900653,0.18384572928075882
3.551499904,-1.1013961154507226,1.1379620204040595,3.213291157078696,-3.493208986479408,0.3076188491422622,0.18338361938024997
3.571555613,-1.1760730081757533,1.1874766337237175,3.22920134293519,-3.4396739147896698,0.32187472679497786,0.18305869600583505
3.591580287,-1.2394958876866713,1.1891678847570528,3.202633408728418,-3.385888727368867,0.3306336986114114,0.18193363475311888
3.6115067,-1.298389009637172,1.2157870506570607,3.1796095508217608,-3.3709962721644806,0.34462825431206723,0.18043403076817033
3.631498996,-1.3477794779297674,1.2463934979891778,3.1794553918740758,-3.2854877899353836,0.34638237687668694,0.18027915187483248
3.651496704,-1.3986987477121549,1.2403889307122766,3.179681975180552,-3.2537288377241396,0.35299767556193035,0.1801226399730888
3.67153055,-1.478447791917945,1.2454975697590238,3.176937878233443,-3.2036069797041016,0.35951269103144584,0.17989959630735639
3.69155618,-1.5316214417520893,1.251116783207888,3.157037220785427,-3.167055389389449,0.36148294550103405,0.17954923175599782
3.711503637,-1.5897490434305666,1.2586553346144256,3.1686874562263734,-3.1118623988313967,0.37087671568092556,0.17966351116958532
3.731508893,-1.6639765710532357,1.2698345321041742,3.1828076159977208,-3.076018075856793,0.3887897774093224,0.18030731659194923
3.751501249,-1.7497220565647547,1.2348388740751841,3.1821991891019414,-3.031151559744348,0.4055844321162815,0.18094896889354467
3.771555308,-1.802917945167336,1.2533692229843354,3.1289457952480335,-2.9873491145326434,0.4007786784945879,0.1750539341277198
3.791567487,-1.8672802288333286,1.2363552020718724,3.1690643198673074,-2.96340238102319,0.3924471495928871,0.17560239804698646
3.811497523,-1.9348293594765107,1.2562012643394262,3.1919545074798807,-2.916145022681049,0.39380822918053526,0.17666504340105676
3.831499289,-1.974050794182262,1.228142759827021,3.1501248109091176,-2.8675502525256156,0.3917681959735385,0.17857968544753933
3.851507024,-2.0313928185863417,1.2082458209762112,3.164229638568138,-2.8180744488120224,0.3898908132438651,0.18029572800079757
3.871497775,-2.089149258852781,1.1785359750394293,3.1855502654269645,-2.775502739402053,0.3973500725763395,0.18180903869268847
3.891576923,-2.1459191141141054,1.1514288184706751,3.1628077179686462,-2.7238561988959713,0.4135943172386928,0.18335468917613998
3.911506931,-2.204371519716834,1.123200711141369,3.1421483269644006,-2.6891393747863264,0.4188074825343778,0.1847970037298047
3.931505144,-2.2949588129325544,1.1051272071575131,3.159705823689078,-2.640075565695815,0.4015130821337925,0.17289875432183996
3.951507209,-2.3344997590013974,1.0643506676172696,3.169025442093199,-2.5973107109111666,0.39760083093068715,0.1746324583323165
3.97149198,-2.400668442984791,1.0684471057323077,3.1720648217147387,-2.5730565226187614,0.39109952671042053,0.17633454140687982
3.9915654,-2.4573356762394356,0.9993042493592201,3.1755097613776657,-2.5318484219054245,0.38078360628534397,0.1777073411927497
4.011535135,-2.4931269996649417,0.9454687279974896,3.175978850568566,-2.4702249577088624,0.38809051525700516,0.18002999478547146
4.031496016,-2.53714814935131,0.9244777085699154,3.1657707149969427,-2.4282431547097,0.39839331329088656,0.18163689060780427
4.051511906,-2.583428330965081,0.8846624737888952,3.1844725268390324,-2.4050152440302397,0.3979211072239045,0.1842239095824227
