time (sec),x position (m),y position (m),forward velocity (m/s),"heading angle (rad), from x-axis, positive is CCW",throttle (unitless; -1 to 1),steering angle (unitless; -1 to 1)
1.00676376,-0.929916728032711,0.3837799919577578,3.4483820161476717,2.490460537201102,0.29404320884687457,0.16293125978421363
1.026845213,-0.9910344011887618,0.43144075184033776,3.4212788818608297,2.5378031652610726,0.2810573536053755,0.16527149710888056
1.046791523,-1.0699046254594708,0.4890160966826401,3.398991461237152,2.61255348525745,0.2692057450060594,0.16837857882115567
1.066759612,-1.099928224914093,0.50103092286755,3.381928067047653,2.6408499721139647,0.25179736753747234,0.16425071394518603
1.086744871,-1.1960095728565758,0.5414001833450937,3.385921151529556,2.6832286124992883,0.26477251625753584,0.17168058090889066
1.106743277,-1.2126174615100334,0.566018378026012,3.3758955617250437,2.716977303098112,0.2529554166994334,0.17328891783415723
1.126742226,-1.2639887678028017,0.5930641219224037,3.3224171152236903,2.762750195847942,0.2551262912498999,0.17388150683377274
1.146756675,-1.340628782415876,0.6225554647704526,3.295841650514758,2.806598266461855,0.25036517996471563,0.17194234289594643
1.166746772,-1.429731880033116,0.6483674685994061,3.2826673331628853,2.8716644061740446,0.24060607100809814,0.1646579307009385
1.186751272,-1.4687262191339858,0.6656215093224558,3.254193179374801,2.910625598374639,0.23422815389947715,0.17211581700953496
1.206772344,-1.5257395676038674,0.6749535021107633,3.2243885762403774,2.9644253158286538,0.23339980686558495,0.16572652936558357
1.226744888,-1.5938175357686575,0.6914745736327755,3.2001531926051046,2.9817426632130424,0.23411817964180606,0.17319082922281087
1.246761079,-1.6610883748630019,0.7219487741021409,3.189026716014767,3.0304292344304637,0.2433402528686794,0.17342149057467146
1.266758483,-1.7011017123680243,0.7396882292341869,3.1708824233044783,3.0666982641521736,0.25632976983547223,0.17408183308689815
1.286741024,-1.7770587449579616,0.7175660857707419,3.1657860109981075,3.1312667211908436,0.2562721219281291,0.16831277208582987
1.30674191,-1.837778024345318,0.7257697914050669,3.1381448832213445,3.1565076299951857,0.2512146983795885,0.16873595707682992
1.326754244,-1.8990113957347299,0.738957273452974,3.1078581730612647,3.2102821178734127,0.2463479820297964,0.17036752507758765
1.346755017,-1.945093757035211,0.7266215352908639,3.079618557015434,3.2326336808529184,0.24863302996538536,0.1720888673452591
1.366750856,-2.023934666270215,0.7188972111023114,3.0711270440071408,3.291428218036405,0.2514795548389547,0.17401524708875105
1.386747164,-2.0917269726964376,0.7015214928578755,3.0536251558324246,3.3262717444230376,0.2531267543768103,0.17655478476598452
1.4067426950000002,-2.1332256702260493,0.7050090294807453,3.03719447210804,3.3624380516420858,0.2561026314238457,0.1782711679259053
1.4267430110000001,-2.1814526417695568,0.6828900994583376,3.0180733920718437,3.415226125931483,0.2742173598624897,0.1809294466412913
1.446756373,-2.2483993597447696,0.6727196562895178,2.981213820399904,3.4645816385839945,0.17411008899495328,0.19701905513161672
1.4668040740000001,-2.3297825714817746,0.6581060250834422,2.980669592601213,3.5054973002356005,0.13468305615131812,0.20740542431726774
1.486765021,-2.367247528726717,0.6375661110974504,2.90885380398169,3.560603767904529,0.09230541962711891,0.2207117222563019
1.506767487,-2.4360918586028726,0.5837972618838342,2.860286377515515,3.628396733649749,0.06986085546481606,0.23686428931460538
1.5267454169999999,-2.455339551532859,0.5491846618724802,2.8222010596054736,3.684643117551994,0.05096918358097964,0.25384411237704974
1.5467568649999999,-2.504584758243019,0.5407879038499186,2.7960404826416596,3.735671295848749,0.046179739340351494,0.27122656124906863
1.566747525,-2.56433637310699,0.5261877776357144,2.7495877363568657,3.785129796841302,0.05461863140789922,0.2897309545010473
1.586740629,-2.610919971145377,0.49529934666452535,2.6791198391990334,3.82776809607311,0.06650390933917966,0.3077684179786488
1.60674143,-2.649766980231548,0.4404758361588821,2.6452418176769528,3.8935905178751864,0.16497128669037833,0.24184099915549687
1.626778237,-2.6872319984512294,0.42531081204659815,2.621042838623506,3.943052660004267,0.20857756932722088,0.23248022485935366
1.646820627,-2.7381262297969924,0.37127479038564737,2.6329442033780843,4.0239553005639745,0.23622694915275522,0.22290277287829385
1.666751974,-2.763717402629539,0.34278998535448707,2.628525820909852,4.059042034012731,0.2754870114683372,0.21188518881377533
1.6867479090000002,-2.79397531983465,0.2731693142360465,2.59957410625376,4.136629049618529,0.31102678644467185,0.20055614562941715
1.706760269,-2.8077322599303187,0.2455655404407461,2.6548702024155353,4.15334882184009,0.3592156900937877,0.1878316085427306
1.72673781,-2.868214576557449,0.19024288458201422,2.6363875030302846,4.222224605189217,0.4013262534090804,0.17618030057915712
1.746735857,-2.888159184470563,0.11275354555277187,2.6759404534726783,4.259574620904015,0.3778463050643365,0.18201273104148458
1.766757045,-2.893914935654637,0.11990886648462512,2.681155768841421,4.257613667614911,0.37233643189273263,0.18094372012571666
1.7867467160000001,-2.9257005660852347,0.06867004663497386,2.7243273234578864,4.295933184763956,0.3702005620790776,0.1817472441100852
1.806741776,-2.9416724463018586,0.0013411871962020275,2.728004850053784,4.356207889865762,0.3676231224281045,0.1769562831129243
1.826793827,-2.95780110592025,-0.04467673177157766,2.717877159581681,4.378584637940585,0.3678832224179577,0.1865966248769646
1.846751676,-2.973078435624848,-0.11048814666116688,2.7456526015122797,4.404094846996733,0.36767862333934,0.18402026699326385
1.866751475,-2.9744896416998174,-0.15534627144337748,2.7431340946893243,4.441516983646657,0.36106355102146,0.18902037362060353
1.8867444180000001,-2.9824586816873255,-0.17046610422948888,2.787527982541608,4.4909758996276,0.3623696935427676,0.19955752880085703
1.906761361,-3.002773903572476,-0.26459031841470315,2.777388751538727,4.534306225486753,0.3499855154021638,0.20466251089967225
1.926743347,-3.0168125895270417,-0.2976347308137599,2.7447150778571934,4.598176094870847,0.34438849987872505,0.20985170013775736
1.9467526080000002,-2.995983684376699,-0.3669349091010738,2.7994219524603388,4.6461194105483035,0.3435195902025858,0.21471872152641194
1.966755063,-3.027478367262149,-0.40906314317728415,2.7897812086423515,4.6832505281394115,0.33342310014337634,0.21724251074999526
1.9867640780000002,-3.0299490548599266,-0.5107077752640754,2.861677361332277,4.724217568533142,0.34751200341505334,0.2222098520559053
2.006837175,-3.0234556646710025,-0.5257635562273785,2.7897283089736264,4.757335396983482,0.35113763500225437,0.22527217219305828
2.026853892,-3.01154760809348,-0.5822216482627649,2.8370286047982316,4.805273099845961,0.3595125776051493,0.22618828592956822
2.046761853,-3.006075989245091,-0.6298384426278336,2.7978971496799083,4.849585776956438,0.35489153986905686,0.22325312073854212
2.066751975,-3.0251230058436844,-0.7023603149194164,2.8504373376346277,4.915942461778983,0.3389723849698607,0.22542998146432006
2.086744599,-2.974134040287247,-0.7420331776791879,2.848783487607991,4.959144922400595,0.34447720033898965,0.22901610560941732
2.106741201,-2.9864980915744748,-0.801419159861488,2.8463930418855874,5.013472395199497,0.3188630446650159,0.22632986644778028
2.126755244,-2.9581683940708934,-0.856839815677802,2.848344500317965,5.0577061657243885,0.35651579161664126,0.23625348999967424
2.146756689,-2.926411479236925,-0.924313456254383,2.8940581811989565,5.101026810305704,0.357660619070241,0.24000559472506786
2.16674518,-2.907142628986047,-0.965831021689131,2.846304984090219,5.163705988550867,0.38555377028947463,0.2407575191518389
2.186743608,-2.8691608528942143,-1.031987691936502,2.8598260385068572,5.2246785458327745,0.36547409419763155,0.2454497532791038
2.206744404,-2.8449014738011487,-1.0657920686589293,2.8591031744253605,5.277302565166781,0.3630675869879121,0.24477574149274273
2.226740396,-2.815430579572417,-1.1347362929206308,2.8610033330805513,5.307338478771907,0.3730147744533797,0.24458889926081173
2.246756842,-2.7900540401034566,-1.1526124146618006,2.842594352539274,5.363674442161133,0.3847575950272783,0.24214558741760006
2.266758383,-2.7517720987204877,-1.2177552254037214,2.872452096210053,5.40870903675827,0.38258349226342336,0.24188450796549932
2.2867868270000002,-2.7259306931332743,-1.2523626099587792,2.8388389296070993,5.475781255017083,0.40312159081547855,0.23991365612694948
2.306744115,-2.686008642155959,-1.312804052965068,2.9030691674655054,5.515644466592314,0.4261171568799702,0.2375103018773753
2.326746038,-2.638817605118349,-1.330065159203456,2.8970043750147014,5.567085120064699,0.42133316307220176,0.2315591886348931
2.346746369,-2.564986622950075,-1.3941773135482376,2.9227063059746756,5.636277589656084,0.4181650363215973,0.23119672107989983
2.366744377,-2.534551851796253,-1.4209179075129856,2.896418569381138,5.64869773063433,0.43181894078997957,0.2317149353335255
2.386742238,-2.4759216350050335,-1.47800921055564,2.9324645170963954,5.73453299642878,0.4375310426203445,0.23180048420269672
2.406749469,-2.430491950810203,-1.472531926908758,2.946024572647398,5.755346662108487,0.4608247332156308,0.23179106501252608
2.426746564,-2.371672576362584,-1.5148826830098998,2.9443941456552962,5.811237027039655,0.45223735242301555,0.23163899857766074
2.446753052,-2.3420981726927232,-1.5478618053616067,2.9551194653328023,5.87128684087049,0.47497245900919133,0.2306420224931236
2.466743498,-2.2514560240295673,-1.558206794180568,2.9820578922064183,5.928215844736009,0.4640068716289769,0.2183388643009404
2.486820709,-2.2158410421611565,-1.585875224131318,3.027357292327447,5.979125387467713,0.47263408191750317,0.22532548579110592
2.506773393,-2.174365877166965,-1.600066337937465,3.0199485241680524,6.000206736732175,0.46334486267650177,0.2157741164719745
2.526846665,-2.119350602496318,-1.6232976116456181,3.022140485379446,6.044717172211286,0.4692832629699893,0.22243178568628402
2.54674768,-2.024024305698718,-1.625333287675396,3.0269362328169414,6.114760641122345,0.47786971757276153,0.22106946349014817
2.566749025,-2.0008209220095834,-1.6247043366131315,3.0860755127151993,6.137011407594141,0.48485827631826384,0.22045938040591162
2.586747572,-1.93671307956209,-1.6307028903862772,3.095315964285377,6.177319405268504,0.4866089840479734,0.21150077932106506
2.606741712,-1.88821415328708,-1.6583555674812234,3.0946699510697173,6.233748251610281,0.4781326848973639,0.2081428177445948
2.626820906,-1.7757915252592384,-1.6594344541473631,3.1603332223030494,6.286230489364494,0.48320709860843647,0.21355752731860414
2.646750815,-1.758894328308262,-1.6517503307443762,3.1242673432862413,6.311612701397039,0.4720626187256194,0.2117401099971159
2.666789736,-1.6417644480731337,-1.6343278588928003,3.1775481541190076,6.385503619408038,0.4699866172544583,0.20300086456978877
2.6867441579999998,-1.618429504912476,-1.6361508802848312,3.1591948182569434,6.4010298989528245,0.46610733419768385,0.2084759566911143
2.706751566,-1.559444370324279,-1.6430360053269195,3.194824075399515,6.439817961430785,0.47312157351053086,0.2073597671208173
2.72673896,-1.4604709385660382,-1.6225142450949948,3.1925208346329086,6.510712830111769,0.4802431013391407,0.205822141523072
2.746744904,-1.3987920946690235,-1.6097182284199008,3.2214679043887307,6.544883637277856,0.4583901930895923,0.19564228929922017
2.7667401270000003,-1.3436500978148287,-1.5885782498359369,3.2531607274288508,6.59946896607803,0.45897442502892966,0.20157245879350777
2.786740724,-1.3100507055060326,-1.5757312165669375,3.2484140682224516,6.5971634738322384,0.44434699872290234,0.1932485979929601
2.8067927360000002,-1.2399850356855715,-1.5624136322666156,3.2426075669803875,6.639610293554183,0.447879070033287,0.19935090555439247
2.82674089,-1.173766184029858,-1.5163322171022884,3.2856345650460645,6.703126866314828,0.4394949085446113,0.1986724902852355
2.846754072,-1.1176072923746192,-1.497662110087512,3.2604776417010295,6.732564433855405,0.43511414167972073,0.19128161856261422
2.866750499,-1.051739472639327,-1.4618389958804725,3.2690058950505234,6.778206689962517,0.4373176327052886,0.1906049849471355
2.886824873,-1.0217037061919862,-1.4424794107395942,3.273533604379229,6.858667176691469,0.4413847303283737,0.19028487376669675
2.906743836,-0.9630752456702033,-1.3900319817910443,3.2739027427371354,6.899681761689083,0.42113964728643316,0.19536783428485494
2.9268137970000003,-0.8977459213906518,-1.3639894615638477,3.3127305962939917,6.923727487585905,0.40899904033368567,0.19461420074782754
2.946753296,-0.8315246667409317,-1.321104826307571,3.287509667242985,6.972628718962033,0.40722526686966154,0.19385751801616813
2.966745877,-0.7649945705181761,-1.2375898297849999,3.3054629064024814,7.040919251343483,0.3990327781430618,0.19271794128137798
2.986787099,-0.7366223042804456,-1.223529604406496,3.284369970390293,7.059853974612952,0.39682548300260395,0.19206222613202392
3.006837562,-0.7007839173491278,-1.185613417146021,3.3026083239900363,7.110809010082242,0.40790395387550527,0.19105714602141208
3.026829799,-0.6343752262547931,-1.1269880122433347,3.295454152178543,7.168154631348419,0.4075358236766427,0.18964344254295404
3.046758716,-0.6311818174472988,-1.093777579427093,3.299187514313113,7.203551377974819,0.3837056370732848,0.1844262645547215
3.066754202,-0.5565820409469111,-1.0416749512702181,3.2608279729922485,7.254177028054503,0.3837716245100594,0.1803407272323143
3.086746178,-0.5224929403010995,-0.9874364542362857,3.2522963205711037,7.2959637023625215,0.37350990747984264,0.16871264643037948
3.106763016,-0.4891232141071879,-0.9483566706118605,3.26358518791972,7.340231601956812,0.38261498136361405,0.1714387080225565
3.126878705,-0.4687995387908782,-0.8756520568575922,3.2388592623917116,7.40864372389615,0.38253128963088057,0.16734888986190766
3.146757227,-0.44249093744627055,-0.8298358161492717,3.262157913441484,7.425611539805126,0.37768304689855525,0.15582834614052282
3.166749543,-0.3928594357773025,-0.7705229477058698,3.2631110238314722,7.451954155599425,0.38728709984165965,0.1590689673823838
3.186743797,-0.3831631761296166,-0.6999038182114103,3.257985612043934,7.495786588505163,0.3985559088625517,0.13215596623721898
3.206767476,-0.35654815410740054,-0.6632859403114323,3.2682084257110606,7.535755437146888,0.4034722440124648,0.10504931793038198
3.226807396,-0.321638924002811,-0.5570164191490647,3.276532916199989,7.5724609332699355,0.4159602572098836,0.07849487280538649
3.246757624,-0.32701164599436067,-0.5283266499714065,3.2869568596354743,7.571704906776612,0.4307135836110765,0.051815871856191006
3.266763181,-0.2873726065302638,-0.47713853638957143,3.308222526272579,7.594418497725575,0.43962159133850204,0.025347669204926343
3.286749214,-0.2726374732499729,-0.39952661824728997,3.3197880622953777,7.589813285207415,0.45278968445673834,-0.0007807756564097954
3.306837555,-0.2581551500018418,-0.3335080216657279,3.3475605722946162,7.59568445713636,0.4715074818020335,-0.025626242057989804
3.3268230450000003,-0.2452697214955297,-0.275127319982359,3.3976426707136826,7.571900637783486,0.4485425963824759,-0.04349181225465555
3.3467556910000003,-0.19157397752631,-0.1761471678544583,3.407413213001207,7.572043390585043,0.43753819710669656,-0.06824111059535601
3.366764416,-0.19658675765059833,-0.14767981628599128,3.418299834635801,7.578379364243316,0.440861244163902,-0.08251116056386992
3.386778977,-0.16175833348223706,-0.06145661828774121,3.447872380774034,7.557544496307635,0.43529715611790465,-0.09789562253920459
3.406745859,-0.16873595602855837,0.006894377111964185,3.467097289411792,7.526479772419146,0.4290850997697303,-0.11064172691231454
3.426836809,-0.15065042930505101,0.05412709024238018,3.489782734765871,7.510440998164398,0.43238154350061214,-0.12156360649287311
3.446755937,-0.09851539997598215,0.13591895370666598,3.4816499628411846,7.479726744519773,0.4207451812920406,-0.13198035130536243
3.46674992,-0.07654799233347001,0.17633347378850725,3.5035409097987777,7.447542914028538,0.3911026028086337,-0.13833076987143392
3.4867458300000003,-0.04106024495245205,0.24923428367033418,3.5009408808908176,7.415637803343056,0.38589325314795897,-0.1488703370229693
3.506834404,-0.031501414447595084,0.31615044365055534,3.4836836417710466,7.390847931948955,0.37205335395125505,-0.15602654228950022
3.526826331,-0.002430894229292584,0.37936562176915617,3.5040395084173723,7.330299151814403,0.36128632300677,-0.1618060017523699
3.546755279,0.03138309461314095,0.4480047365921101,3.5092612451491965,7.320475248132048,0.3548318457855436,-0.16660509938496817
3.566760584,0.0854485148604718,0.46904508153918845,3.5091553632157484,7.2626221018494554,0.35438983155004883,-0.1708223989296023
3.586755489,0.12276862209333726,0.5430038342999928,3.492998753720913,7.246328273783441,0.3595547305048282,-0.17464917734110638
3.606839856,0.14289954265025404,0.6092920456349281,3.4668803728049395,7.207114930096205,0.34989912685443453,-0.17306984324243574
3.626842762,0.19530688252274475,0.6675960221610676,3.463524982356542,7.148514742468563,0.3458392780915812,-0.17622216619710587
3.646758122,0.25303767246712067,0.721863985233793,3.463762356644608,7.1036855233747325,0.33903333220661963,-0.17847802548303676
3.666749194,0.2621033139400646,0.7836509124280605,3.423672591965119,7.059962400401802,0.33309380784876014,-0.180478414993031
3.686757006,0.35807851514560535,0.8425996711322807,3.4649814557395766,6.992769054687412,0.33395380086653687,-0.1824528233036058
3.706761043,0.37518248193506326,0.8845271751060879,3.409022833428055,6.972012578436262,0.3461179455156382,-0.18378072375239135
3.726739227,0.4403907777539852,0.9198775962111667,3.414951086400411,6.921937442628089,0.35609350194193856,-0.18436973680136517
3.746745578,0.47914406358543943,0.9521139546099895,3.4255594615151304,6.881428550032227,0.36344700751349335,-0.18496682970471365
3.766742249,0.5640559830834788,1.0173302617556714,3.386947712141558,6.846294234047921,0.35605492835598296,-0.17629172224471168
3.786739382,0.5943909061937507,1.0361949532675043,3.401565893544688,6.79104191262532,0.35403480212160016,-0.1769511193948617
3.806750037,0.6569905782734958,1.081020324621518,3.4037579408622514,6.754556146412014,0.3442409145595308,-0.17158233176843843
3.826751726,0.6996793784034844,1.1009288199630685,3.3959873532300566,6.726223222013567,0.358235559090741,-0.1792236475471767
3.846758653,0.776406191436603,1.1394496459833408,3.383326412906892,6.685230619850769,0.3534910226679426,-0.17452079662803102
3.866761608,0.8320460281432506,1.1474948295856429,3.37594039854881,6.644527542790276,0.3621325690136891,-0.1831953025603085
3.886753588,0.9113413476562969,1.1999615269135728,3.3685641508509705,6.605189079482478,0.382060929794113,-0.18436416004551162
3.906744139,0.9460568792249092,1.2245061294225825,3.3523120993995175,6.53424124846805,0.3870472389383455,-0.1860403833796807
3.9267804120000003,1.0389614566676042,1.2486296800430223,3.3505503735529443,6.499255618460084,0.36975920655653033,-0.17539981146318273
3.946750993,1.0955644326719296,1.256121888850563,3.330404068523416,6.464001458305179,0.3633711825322821,-0.1765996482339162
3.966764284,1.157121605649307,1.2615811318268961,3.366578995465205,6.415349244182087,0.36421666648627676,-0.17841127588537936
3.986747399,1.2184931160361214,1.272282037118889,3.3336016317901924,6.364152194155598,0.36262555444486594,-0.18055396438416207
4.006742189,1.2811598090007537,1.2733236105490335,3.354192010398556,6.335301020421597,0.36597494275632103,-0.18137868935236015
4.026743611,1.349984703529177,1.2902777121456113,3.3620623368372797,6.279001698343067,0.36856246227037154,-0.18321852459134877
4.046753976,1.4304074273315057,1.2943844149304857,3.333344689552522,6.243263444458836,0.38200444211491946,-0.18500921363436745
4.066762757,1.4949894135367416,1.2782916433881149,3.3130261180953666,6.21345839345707,0.3650438900587756,-0.1863922699718686
