time (sec),x position (m),y position (m),forward velocity (m/s),"heading angle (rad), from x-axis, positive is CCW",throttle (unitless; -1 to 1),steering angle (unitless; -1 to 1)
1.001298984,1.4580006282183062,-1.3885356694110673,3.1058382535714224,-3.00909866152407,0.33408022803509796,-0.2557078524062951
1.021293244,1.3998609130353636,-1.3952881379882491,3.1075984609651828,-3.045505312569699,0.3399024479557972,-0.25750466440249353
1.041283145,1.3331276763346256,-1.4009484661947302,3.0814955584532986,-3.0984008001916914,0.33761936685561084,-0.25728766860016383
1.06128382,1.2794441297360248,-1.4092794965948297,3.057969098470427,-3.140877576415246,0.34797439518186596,-0.25958763032668514
1.081287485,1.2101937343639029,-1.3937517866266482,3.0696231980583404,-3.178541647878672,0.34822753699035236,-0.2619870163567434
1.101283421,1.1583640433320919,-1.386174701954392,3.0211830457545346,-3.233408121954098,0.3574094220591345,-0.2717360378392814
1.121285604,1.0881440230401922,-1.3972287994550838,3.040566413839554,-3.2785939783549995,0.3765298995969325,-0.26617134995399333
1.14128406,1.0340212595548146,-1.3726444387398475,3.034690904978735,-3.3092429644995156,0.3914128560737413,-0.2686040407391099
1.16128689,0.9764765004407946,-1.3596686840627883,3.0620623584582782,-3.382888479238169,0.42285450012226716,-0.27025558191908544
1.181284181,0.9332683403268346,-1.3744573055361329,3.0287571888454985,-3.40898207058825,0.4233697856377769,-0.2697065548517365
1.201283543,0.8310740674986684,-1.3385372020563708,3.0146298486437875,-3.463420236316483,0.42515116563285854,-0.2713079579033533
1.221282569,0.7896379816830381,-1.322086183273945,3.052931662782331,-3.5188004275537907,0.4486256171320103,-0.2717486420483454
1.241281899,0.7439475259945382,-1.3129947420484631,3.0411679588139084,-3.5638904404586196,0.4637568414687932,-0.2723636442209841
1.2612817330000001,0.7022474939061791,-1.2784149232464879,3.052419973359544,-3.607729030859567,0.4851439887504164,-0.2725306697744442
1.281282199,0.6246323367403271,-1.2507047273039174,3.0589790515626785,-3.670812762882888,0.5002329795685125,-0.27244730541672274
1.301286804,0.584742341661573,-1.2221555559819213,3.058695625979696,-3.7193942762316174,0.5327653528499988,-0.2719295189712905
1.321380575,0.5247313309272206,-1.1750628821061022,3.0672941775118026,-3.7794868408614133,0.5174588430506578,-0.26701065927223794
1.341350214,0.47131542560389067,-1.1672628109992698,3.0697363221776333,-3.820774627703106,0.5204930600617736,-0.26503282417321966
1.361301416,0.4316877887036731,-1.081526562595853,3.09123188183897,-3.870183505875835,0.5282809667289837,-0.26355281098764194
1.3812842440000002,0.3923847951398801,-1.0695092113359312,3.0711759752203585,-3.9326922293771442,0.5367991880426319,-0.26096308885139097
1.401330353,0.32097301288181784,-1.028331434758457,3.1057467887599275,-3.96261482162021,0.5534409873419812,-0.2581662595265339
1.421352827,0.28901643314109915,-0.9752028746346275,3.1217431998239973,-4.0346824648588715,0.5688598754268791,-0.2549162734596064
1.441305718,0.29249993326377993,-0.9873610250932294,3.1264553943519964,-4.020419787015622,0.581746337491573,-0.251767220956176
1.461284768,0.23640029404525442,-0.9087022282452236,3.1547023114535246,-4.109706734010989,0.5744327317234442,-0.24130358650440384
1.481286118,0.17531748183380327,-0.8656486719741385,3.1535825908834414,-4.181551282149065,0.5844640010782204,-0.21592045084124759
1.5012879840000002,0.1583084448831362,-0.7880725857560378,3.1750741637660345,-4.222778473405126,0.6010706468958216,-0.19034341288184733
1.521281423,0.09965142847482664,-0.7348972939725086,3.208263932740035,-4.24380675071205,0.608528304375147,-0.1646499438345798
1.5412845339999999,0.06220338450643512,-0.6725022679036217,3.223245575364997,-4.296092551268055,0.6194377896934453,-0.13855783678590847
1.5612843010000002,0.043808915766444044,-0.629760531179621,3.275614053499109,-4.337223912177375,0.6464986383404339,-0.12923295388306813
1.581344997,0.02245877403989506,-0.5495897053841177,3.30397741387927,-4.354649313204164,0.6478727900841599,-0.087444200569118
1.6013022160000001,-0.011865373981063994,-0.4910041758801737,3.3505946902253068,-4.384176144455297,0.65,-0.06299615052461663
1.6212952340000002,-0.03579658991441813,-0.4270210122752382,3.3985359345745527,-4.416204791374137,0.6155201104315217,-0.0467803664006014
1.641295554,-0.051912659654458085,-0.3563456048838034,3.428616370932911,-4.455973085593891,0.6026409001002978,-0.02476692277842531
1.6612843810000002,-0.09066613914202734,-0.2857746941005209,3.4942199038692663,-4.456454675469017,0.592819548341775,-0.00276046972997227
1.681294418,-0.10528633324600209,-0.23554615154419883,3.554853187932011,-4.474507348905421,0.5823485399500367,0.01822464814446654
1.701287798,-0.10617688212490761,-0.17279993589525744,3.561208215253838,-4.464289293808075,0.5713476524187243,0.03821560116772259
1.7212884019999999,-0.12894463981788218,-0.09250088283890422,3.6425788813295377,-4.453469455434962,0.5642593354803571,0.05276061188888483
1.7412865100000001,-0.15213839257409165,-0.008142114023503887,3.666416916224896,-4.428553248273047,0.5538254238286833,0.0754424839446836
1.76128904,-0.15063569011390496,0.04607684762130532,3.682587834113607,-4.3666555565424545,0.502102876476281,0.08964073079529877
1.7812945820000001,-0.19837245358925215,0.11322504039119166,3.7011870878696618,-4.365078116677647,0.47176630702933586,0.1055340773777618
1.801289171,-0.2141578878652962,0.20901143661781213,3.6870249432129727,-4.334814299149108,0.4424087342221782,0.11728809907377555
1.821282791,-0.24560888209906498,0.2697337564250161,3.7071433525022397,-4.306260997022896,0.42313727249303434,0.12547374308305337
1.841281055,-0.278801034986933,0.31449964130406705,3.7319328607320865,-4.277592396256827,0.3977626642882755,0.13075185164121433
1.86128274,-0.3161377390390598,0.3921064191646016,3.706035897449768,-4.242862628718437,0.378647163132231,0.13398761354781952
1.881375491,-0.34683950643891065,0.45371435649935926,3.706806232539052,-4.210321773082448,0.3663680782500762,0.13532056535277262
1.901377631,-0.3852581652642791,0.5413378806967842,3.6804017330728698,-4.180063794888232,0.33976136710571203,0.1380614947044889
1.921298975,-0.41119528673867567,0.5782874424337242,3.700632355441345,-4.153243703352105,0.32263443274823306,0.14078822652807935
1.941383632,-0.4631137935587844,0.6468920867239518,3.6837413249665394,-4.11085136386652,0.30718002015801615,0.14334366530290046
1.9612831430000002,-0.49674076492582386,0.7244618012881409,3.6615089594342827,-4.063980171593345,0.29102681866177904,0.1460587766291973
1.981298405,-0.5251048509737616,0.7780430582673841,3.6420843524269717,-4.001272368336922,0.2857615628118644,0.14897853370308675
2.001294824,-0.5867518365724976,0.841495472673837,3.625521870407974,-3.9810880557635793,0.2826235172406537,0.15152404498657493
2.021297403,-0.6204590941187735,0.8795294973328344,3.639636958676511,-3.9473508721730233,0.28161951072156916,0.15435861417087127
2.041296875,-0.6647542241682588,0.9209293207324815,3.5953987098827622,-3.920327640789936,0.26610385567378164,0.15690393794868968
2.061285113,-0.7304698806383108,1.0032280125827997,3.5868668205394356,-3.8812386637635536,0.2524369547865791,0.15886767581036298
2.081298934,-0.7659401129721637,1.0355125226234416,3.5647354813479835,-3.832776241426725,0.25014304049566627,0.15982719705246137
2.101282952,-0.8181858811976662,1.093189482728643,3.5413780845210483,-3.779568223098541,0.24022535828177477,0.1617604535401243
2.121282665,-0.8776398280570537,1.1435113390586134,3.499431390095143,-3.740907901145452,0.24144421157191634,0.1634465987572182
2.141287198,-0.9163878625301568,1.2028617411994713,3.476435289746895,-3.7046439237085966,0.2318726080117774,0.16599207803216615
2.161288881,-0.9855648463200727,1.2174987402825892,3.449402306131156,-3.6389253014342087,0.24301475698908395,0.16767502885095353
2.18128228,-1.0469194684456657,1.2622706529687748,3.3983439371429327,-3.6139981738397817,0.24474012856207183,0.16927189594766165
2.201289214,-1.0783078224295994,1.2932055538225316,3.4137379509188945,-3.5794044688014877,0.24124281866647976,0.17333624820098398
2.221305044,-1.1374540982699115,1.3071683631441915,3.359566898717274,-3.538223929634248,0.2323683294609673,0.17343406555211716
2.241285794,-1.2297702411552929,1.3556869214526444,3.3288483584803568,-3.4717162399365074,0.2329306679453881,0.17461116396919873
2.261283957,-1.2783380463458751,1.3692528781616322,3.2813734169683917,-3.428831699071896,0.23005851457910115,0.17599804603790062
2.281281372,-1.3506789753975712,1.3898764549133416,3.2966909045116846,-3.4085367598114287,0.23887785423069258,0.1762846573383219
2.301285088,-1.4187793520677456,1.4158977321848782,3.2426347622362615,-3.340906855012956,0.24915164241633384,0.17829444456357665
2.321283823,-1.4840823775202039,1.424713607561066,3.210755434252934,-3.284429296821836,0.25851505336395775,0.1870083712342808
2.3412863440000002,-1.5400819272197206,1.4300817071067364,3.221291296453231,-3.256586555103398,0.2637283787132752,0.19492418092103372
2.361290129,-1.6080481354512917,1.4353147566532325,3.1733545140464927,-3.20913991384101,0.2625625053720345,0.19016177754825475
2.38128348,-1.6870393629417912,1.4651377104462098,3.1613367569518633,-3.159308842060418,0.2636215072424206,0.1920058186295604
2.401281972,-1.7239431825181855,1.460822874720326,3.139298880181811,-3.1149963091829136,0.2637609521721439,0.19392958025607368
2.421281752,-1.7881448165157803,1.466978848000081,3.1211156381204272,-3.0639844676925003,0.2726718180767746,0.19606417916291213
2.44128307,-1.8536324160367368,1.462269798040785,3.0926893152427333,-3.0092467609845133,0.285285845196899,0.1973441358330139
2.461282133,-1.9069357892618,1.4484924202146952,3.057379243918191,-2.9496934110412667,0.29102726440216675,0.19925548423832082
2.481283438,-1.988947362641856,1.432343301462805,3.0250867710307014,-2.9037990192917853,0.309416748367688,0.19977310877628615
2.501329459,-2.020872482970992,1.4295948689686637,3.016149497613623,-2.859113337119861,0.32567894813404397,0.196743505265997
2.521287825,-2.092359472521336,1.418194898753753,3.0328684175195733,-2.81985359568749,0.3189827432749919,0.1982150037981297
2.541285181,-2.139753793028719,1.3933044339090384,2.9822507331454644,-2.7654518139072772,0.3232451131176643,0.20009273108338257
2.56132878,-2.211878701027036,1.3918290788806758,2.9962994476447085,-2.725396445904722,0.32897991560531414,0.20179503191635959
2.5812831430000003,-2.266322590525467,1.367598323957132,2.9887917159382273,-2.681182542996089,0.34089960643067807,0.20350828699738857
2.601283343,-2.3257060057154706,1.3466995798640768,2.9708070707709404,-2.6534500008080912,0.36374866619147256,0.20569154975210405
2.621306414,-2.3481013192549445,1.3321872174264215,2.976091564336973,-2.6209814851277313,0.381380786426546,0.20810094758005404
2.641289763,-2.405730646071591,1.275988438052354,2.9974737472751536,-2.560276025981689,0.39080686216145033,0.21074641579454007
2.661285071,-2.4582523464236257,1.2422868034669383,3.0010127037811714,-2.5149179076857195,0.4065006644680014,0.20959108531904874
2.681283439,-2.5162370451224114,1.204222726387086,2.9889344166969702,-2.4798027042761994,0.41640443248400294,0.21210560772741585
2.701285845,-2.572782158389003,1.1562574751094092,3.0029935711476115,-2.4194824608176932,0.42091330185166553,0.21500887269903213
2.721286597,-2.616909984742333,1.1352920420726322,3.045703449936603,-2.382521984672238,0.4370961281274107,0.21968077415172246
2.741286427,-2.6503409155328836,1.1083980231592077,3.0672344613468314,-2.3474263498042793,0.4483657024067085,0.229310623984859
2.761288369,-2.705681767102221,1.0377077132010541,3.036174002964507,-2.3185852438409924,0.4551545622512542,0.22545397643862852
2.781290531,-2.7411596560381453,0.9888485432260994,3.064484522419083,-2.2546814199999865,0.47106870345088975,0.22700901802312487
2.801291138,-2.8019593155606324,0.9308501825300532,3.0444025353618005,-2.196353076447832,0.48333023565390676,0.22592740650257906
2.821298377,-2.818981100079383,0.8979342265867919,3.058253583955042,-2.1682477466185888,0.4773985873146853,0.22599682883617248
2.841297689,-2.8502913811245407,0.8420257019412418,3.1033857983258697,-2.0944487980168334,0.47349894118008157,0.22567550374197426
2.861287969,-2.898235898047851,0.8011922313036874,3.1197173147672848,-2.041253866168047,0.47485291953467057,0.22667450500453684
2.881294858,-2.9130187433868873,0.7543063172590723,3.0886885136107374,-1.9977911642416724,0.4909394914236336,0.22572350113052495
2.901327133,-2.9438544035009033,0.66579941225968,3.109932634497712,-1.9405960298343334,0.4901873246366328,0.22476403592568892
2.921285007,-2.9575595439154965,0.6239229139321345,3.12510470132234,-1.8960934000648757,0.5140414784758345,0.2240122173908796
2.941286039,-2.9940719717648707,0.5840021823439862,3.1439743111624217,-1.8583443368851598,0.53430815459713,0.21367259229374538
2.9612865680000002,-3.009309598860033,0.5000431802128721,3.1405550650692478,-1.798507623519365,0.5210551468024777,0.21188281253951793
2.981284751,-3.026101759754951,0.4407014967339184,3.1500169629220736,-1.7572574116112831,0.5220097909804801,0.21109622590562999
3.001284223,-3.0350584189164764,0.3936903703046989,3.1529115342437493,-1.7368544482959485,0.5304087216171045,0.2099425258448564
3.021285479,-3.0492065531338883,0.33544656570592685,3.155575684277174,-1.6713175961580733,0.5321569972004928,0.20821296782035226
3.041285263,-3.0547760448525847,0.27012430721521147,3.2022965861408084,-1.6160212323659429,0.5411964860296041,0.2074233158741852
3.061286846,-3.0779896281922476,0.19411093281433656,3.214440018248988,-1.582341257689298,0.5456248783079756,0.20633053132615142
3.081309556,-3.084154008545859,0.1347982291508258,3.2178268921826274,-1.5252559923016893,0.559235064517415,0.20669359913382557
3.10129394,-3.0781969887958023,0.07206580471035119,3.2078178161357176,-1.480209224253908,0.5514664374010463,0.20481331173206946
3.121302051,-3.052403161699611,-0.004036222088330835,3.2547119182920206,-1.4180616895135083,0.5522126643421731,0.2032402424408085
3.141287188,-3.042755736562011,-0.06329005839917795,3.268545688584282,-1.3887036322714708,0.5537503380405198,0.20115294454681798
3.161287173,-3.0477395527785807,-0.1407186372646137,3.2751113592029277,-1.339321034568894,0.5484285893627572,0.19951389129291489
3.181334765,-3.0377826159390113,-0.175026829770169,3.2558169843480504,-1.278536007423294,0.5431532391454195,0.1972237776397928
3.201290095,-3.0299299548650414,-0.2574238031493803,3.2866811694762084,-1.2175853509485686,0.5560339197804925,0.1948486001390976
3.221289742,-2.9861938488983166,-0.3221105098718358,3.247972458391981,-1.185010646436021,0.5567232775350028,0.19085786972679777
3.2412863,-2.9721476101881144,-0.3815623642786902,3.32630968689248,-1.1493785348469654,0.5423328838622247,0.18808514755040756
3.261284345,-2.969663936578573,-0.4437279196016479,3.294184405640908,-1.112038522060814,0.5194727640725103,0.18548615452144132
3.28128607,-2.937890818088195,-0.49344512796260437,3.3292102978945257,-1.0728188907135607,0.5340210819710143,0.18389400344792958
3.30128478,-2.8849477333313165,-0.5531200377715224,3.3153569749116842,-1.022349427640954,0.5306373084661841,0.18239159851287737
3.321285982,-2.8847697136266315,-0.6229062052364026,3.3316038538259303,-0.9856866152705881,0.5243929582879355,0.18061223214408603
3.341285661,-2.855085196700747,-0.6684241523922179,3.3325547937994786,-0.9197072286084166,0.5420683836370179,0.17951133698777166
3.36128529,-2.8173100215518487,-0.7356359618998084,3.337347786521241,-0.9044820402051994,0.5159814740256845,0.17530663375495642
3.381288016,-2.7966907467374265,-0.7565025357258035,3.3347475860305624,-0.868248503262824,0.5071031475184418,0.17393135655218492
3.4012850070000002,-2.733752643034841,-0.8428700338519644,3.352567777796381,-0.8113854188655444,0.4964031271800433,0.17412813230498134
3.421283443,-2.6968726549295106,-0.8719719867369023,3.3417606005881595,-0.7785083995244152,0.48904447236022835,0.17369973283856535
3.441286436,-2.6389832155586435,-0.9386612218581851,3.3638341627220822,-0.7456470984181921,0.48439316670922644,0.17300375687247377
3.4612870620000002,-2.5835593988790104,-0.9895293518218857,3.346735711104413,-0.6938402270816312,0.47920246618064405,0.17291890317546016
3.481287438,-2.5343943494936996,-1.014942914611809,3.381261311993701,-0.636231406391062,0.48679288451044095,0.17320267187626967
3.501339819,-2.4848555846227187,-1.070983493820138,3.3532369840772867,-0.6094365814418151,0.4977608524437991,0.17927271580261764
3.521287703,-2.4362778848062074,-1.1117647307188046,3.352318736608901,-0.5743047022931866,0.4548758374239059,0.16946807176201953
3.541283106,-2.37619533585472,-1.153960941966657,3.377786144358226,-0.5408464758798552,0.4456784421124166,0.17042750411388177
3.56128235,-2.3410083077403545,-1.1745462641511473,3.3576073673614237,-0.5311916469171013,0.42693886951043686,0.17138452847529526
3.581283618,-2.2675300277858037,-1.2245395684174138,3.3470395217101783,-0.46035191894952526,0.4185250824085557,0.1730709974049751
3.601286077,-2.1997293653678627,-1.2404156934889705,3.3829058319320198,-0.40970252820119896,0.4081309125675823,0.17510574198615886
3.621284804,-2.1385973737991324,-1.2891627071752119,3.3772542004200936,-0.39321343770949874,0.4129349147282653,0.17718962074864175
3.641283552,-2.080451684261467,-1.3306379071899777,3.361135699309482,-0.353833779964242,0.40768408098204945,0.1793933008773041
3.661285845,-2.031097731026617,-1.3451172471135107,3.3563255040614237,-0.3136872243410497,0.3810287522660274,0.17842069152647777
3.681383224,-1.997962017536814,-1.3557588348693606,3.3715433237751293,-0.2857335857955887,0.3726497600597961,0.17970470220560736
3.701290209,-1.896495371110634,-1.3527821704797371,3.327669627091754,-0.2194590122940687,0.3596750893443467,0.18196484961030548
3.721286452,-1.82588086473703,-1.391371448588227,3.314016987023776,-0.18167541335466356,0.3519494240861435,0.18417236528538777
3.741296198,-1.7717188195017517,-1.4049994889121191,3.3028511673638237,-0.1377072910892361,0.33648971780486353,0.1857812106507698
3.761304825,-1.7115394220186564,-1.3988597609386968,3.300599650901853,-0.09521024060184902,0.3435143963506074,0.18759183767370918
3.781302503,-1.6348289208928541,-1.420410034845228,3.302887354428276,-0.06336919481650341,0.34149984167445485,0.18944507110503117
3.8013702719999998,-1.6123894383991382,-1.4329031605657727,3.269605343648854,-0.034584310989967865,0.32541316114642005,0.19942730858681557
3.821341004,-1.5078385375916508,-1.4295603189292374,3.250587923778452,0.03962331610734911,0.31817841625196414,0.19441865034286274
3.841377114,-1.434545984242676,-1.4326978785896445,3.2449408168733895,0.07525626450795282,0.3146396422768345,0.19549076587745812
3.861283152,-1.3658200353537595,-1.4359522619468055,3.2290448612980707,0.132984358679862,0.3124207872610238,0.1956684743201392
3.881337495,-1.3151139018987206,-1.4222821280304008,3.2014649414574605,0.15743689562659663,0.3097033234542218,0.197237929093621
3.901294666,-1.2576850142092788,-1.4184317306222631,3.2026019976027653,0.20822065323532948,0.3132026378219889,0.1986352598364015
3.9213030680000003,-1.1776310688547043,-1.4203709432010174,3.164501906809707,0.2705767154817987,0.3247949320671717,0.20538387139680914
3.9412883130000003,-1.1195128359285407,-1.3951449030241008,3.1391781815518627,0.3183207354189955,0.326679184083502,0.19574268560523397
3.961293304,-1.0728092061427508,-1.375702439188259,3.1420449936261976,0.3683850649963426,0.32152931795535483,0.19747561090591076
3.9812834930000003,-0.9902080402552462,-1.3380293380035622,3.105780927705338,0.4031957038420011,0.31760345335414275,0.19760124204221638
4.001288286,-0.9573083959861004,-1.3292778511844692,3.116822404668507,0.46160654399806766,0.3180210735515801,0.19878892939127246
4.021283803,-0.90789998896724,-1.3055054210839159,3.083517383025716,0.527411090235142,0.32188402054498055,0.20009984398173988
4.041283999,-0.8252672315429971,-1.2643538678383177,3.085015693523951,0.5708512446545092,0.3397488286599486,0.201123792405742
