time (sec),x position (m),y position (m),forward velocity (m/s),"heading angle (rad), from x-axis, positive is CCW",throttle (unitless; -1 to 1),steering angle (unitless; -1 to 1)
1.002815778,2.0113583882109314,-1.0307049468289833,3.1731015500657844,-2.935208900733012,0.4953424937258652,-0.20902502590320132
1.022747874,1.9479210907432138,-1.0408976661098708,3.143587671193494,-2.9740821444168475,0.4674550333989574,-0.20468842012595653
1.042754011,1.8754166117785045,-1.0545126030628087,3.153149014570851,-3.0213152081958667,0.45302287700696425,-0.2047186146720272
1.062753292,1.811227895806988,-1.0542312600080694,3.1297587742404525,-3.072803349386089,0.4347971519235356,-0.20510320109933863
1.082741885,1.746142397470267,-1.0875540195071272,3.12865277119792,-3.112431218164254,0.42483254327592973,-0.205690959472055
1.102838571,1.6932824432855034,-1.0657635322289007,3.113510889606972,-3.1805131374786573,0.4200599156268532,-0.20626344316241102
1.122793033,1.6364289152141338,-1.0811593725676025,3.112402656666615,-3.229143902230015,0.40240813970286354,-0.20619452714280478
1.142749255,1.5959056680022352,-1.059545897449849,3.1453136840137637,-3.2698093625967877,0.40831127639986325,-0.20666134765326707
1.162748402,1.4937902056295884,-1.0630842178157944,3.112132895245467,-3.2917600303910506,0.4113667931742919,-0.20673420429838438
1.182812057,1.438802472657072,-1.0371834141575984,3.067037290488915,-3.344077354209377,0.3884548477582654,-0.20295110667131308
1.202797987,1.3817876378462077,-1.054372645270878,3.052390503264913,-3.4009514662677622,0.36986766403341564,-0.2029122208129327
1.222743381,1.3210419667081805,-1.0396624301935078,3.075740846232329,-3.440593604719228,0.36950555482443664,-0.20288609864647225
1.242753048,1.2672029757314698,-1.0063008127586228,3.0486288382733457,-3.5044941067958577,0.35628823615451477,-0.20205158202812162
1.262760482,1.2055963381412367,-0.9821031101382786,3.0084080001098683,-3.5680916946512897,0.349115502248144,-0.20241459804842965
1.2827927080000001,1.1406576564907567,-0.9591143798203983,2.998136583031319,-3.601988312130648,0.3564597042279532,-0.20328690270078797
1.302808272,1.102810905574597,-0.933286864024521,3.008348059264326,-3.6362879828848538,0.3663358417424208,-0.20367537560323454
1.3227514390000001,1.046165206803798,-0.9173467696384404,2.9745284378365078,-3.685001339555821,0.35604475798170443,-0.2010428768833822
1.3427575630000002,0.9909788355520113,-0.8934519499573544,2.974320678592742,-3.733323965226087,0.3481914354897156,-0.20228731587259424
1.362747643,0.9547112093056821,-0.836870878946257,2.9573633588309707,-3.7897552913362156,0.34533100845319686,-0.2034986473715724
1.38274212,0.8828845188677276,-0.8051753469212455,2.9350390660740517,-3.8137369092539295,0.35171836490843517,-0.20543007642943983
1.402808178,0.8386304861835121,-0.784291222632715,2.912707343266443,-3.883509114003504,0.35110026813371764,-0.20717022869686225
1.422765134,0.8123703013715531,-0.7522257897977376,2.8981781582199364,-3.9143342359325044,0.35382929711561956,-0.20897166284854435
1.442756517,0.7571477200284852,-0.7050395727164736,2.920708269732353,-3.952979574033701,0.37132947689515466,-0.21100561053082736
1.462746805,0.7278774445029044,-0.6761995462917969,2.873455061009908,-4.016060958876467,0.3846358377896075,-0.21302494583651493
1.48274111,0.6647530018995867,-0.6402783080937264,2.920576623430517,-4.054009011719223,0.41188837344834933,-0.19380711404991852
1.502810054,0.6563094712301283,-0.582540350191434,2.933050886711506,-4.115844360441062,0.4353560900112933,-0.17716146204329733
1.522753991,0.6093003662068748,-0.5120398002388933,2.9592164394616436,-4.140068097459897,0.46045927617993493,-0.1611354285448506
1.542751392,0.5763882377803451,-0.46457882602806916,3.0013616754208363,-4.185395003835847,0.48234430869425726,-0.14497962796072963
1.562746551,0.5492344379428487,-0.4322610540040327,3.027430422723026,-4.190645831342402,0.4985051493234779,-0.12914082152774853
1.582740885,0.5121371224859071,-0.36182082054859166,3.0558082984790236,-4.238456952939343,0.5233141793480673,-0.11267127553561386
1.6027893149999999,0.4903828894212509,-0.31536652126974185,3.0820218740239707,-4.232684136721842,0.5318348645549461,-0.09520001139701986
1.6227418720000002,0.47207242565074486,-0.2778231439154498,3.128289756676849,-4.260262178174553,0.5254642257036416,-0.08045374802255902
1.6427509869999999,0.44606884574963723,-0.18882948056286505,3.1474079358895644,-4.272470198544071,0.525655250874329,-0.058197072873325185
1.6627446410000002,0.4130069566654458,-0.1489385252707788,3.2338294309478472,-4.276099446973909,0.5399930236546909,-0.03628544715419451
1.6827451180000002,0.3825213234635233,-0.08719345963462344,3.235790379179259,-4.291109566437759,0.534001985503949,-0.015838160881218546
1.7027846430000002,0.36073330427195016,-0.025243430945509706,3.3076782922998422,-4.298275913654886,0.5391486764122432,0.0021311078410265315
1.722751266,0.3270134913848581,0.02966662342046942,3.3435253766508253,-4.29740844165446,0.5463139360763564,0.01962009536316057
1.742750756,0.3057464825640798,0.10313422597003999,3.378851038418342,-4.283276714096017,0.5481242911027486,0.036111320938963215
1.7627496599999999,0.2774556835131198,0.16762457586477206,3.444468221783979,-4.303494064614731,0.5152534652052557,0.045265036026160076
1.7827446400000002,0.23351931143094745,0.24180615181955203,3.4547170121700104,-4.292654231348531,0.48797829364917567,0.058703123478924285
1.802794312,0.2062846836226319,0.2853603490616796,3.45554571210184,-4.2774013971900695,0.4762708284216607,0.0715453038145643
1.822891064,0.18745152661077066,0.34236271096494925,3.4839027820522777,-4.2608029977826485,0.4559745860268676,0.08291068546916985
1.84276152,0.15505715337152054,0.425409620014982,3.4972951828050176,-4.245379106647893,0.4483749880836012,0.0931341267779552
1.8627447250000002,0.11530444063924818,0.4742797447892512,3.5299125373097784,-4.254075997902315,0.4376476226638065,0.10216522576087203
1.882808011,0.08493232539013738,0.5449403918764114,3.560895803373618,-4.216767932068756,0.42806921222404337,0.11088370093860989
1.902741586,0.023177174122831056,0.6110101565934751,3.531709020190393,-4.19810619628264,0.3935926902198406,0.11984285280893543
1.922740981,0.01783296620351392,0.6741819353585374,3.5783561053274213,-4.15267664087035,0.38030853357170114,0.12925037113395157
1.942755681,-0.0393027233760447,0.716267454316489,3.5680754933148897,-4.1654977356106615,0.365489467649043,0.1376801696475583
1.9627576850000001,-0.07287649407868231,0.7792956616402301,3.56344488618563,-4.121805744476252,0.3554161199322604,0.14561128531050782
1.982785126,-0.11223070561598117,0.8317060309204827,3.5477391228891,-4.091052722615151,0.3471401549350868,0.15256508068978036
2.002799812,-0.15609600805157872,0.8973399385999133,3.5591354008113707,-4.063782689424099,0.33636681681570463,0.15882261881572335
2.022751348,-0.19094874433510878,0.9237253294000368,3.562165042532678,-4.022975411516887,0.34119586419050757,0.1648958308216471
2.04276,-0.2481253617716449,0.9927280260409437,3.5230886584536374,-3.985187714910928,0.3114697205393876,0.16991466051622686
2.062795271,-0.29875639064893045,1.0391731837484466,3.528719493894003,-3.9626542185441327,0.3038835895990599,0.1750876009544187
2.082794583,-0.3383088073229741,1.1143441450231,3.5303355426063887,-3.90779443064727,0.3023508105688782,0.1797942953162622
2.102741348,-0.39343505061800044,1.1440996351698942,3.5121629593897863,-3.8532973443955347,0.2969068074556605,0.18370299835875556
2.122752986,-0.45447823388381325,1.216958116454847,3.5140169597607094,-3.808026119024057,0.29747551598536354,0.18713470095060084
2.1428107020000002,-0.4828429683997707,1.2278167214482603,3.4994735787527333,-3.7540511465274298,0.2940785448585328,0.19033711362673086
2.162752416,-0.5516997283487437,1.2934122438478939,3.4746774530407696,-3.703279925441963,0.3090938085530605,0.1919516117018524
2.182743483,-0.6052691791672666,1.3234393537107008,3.4366470176143427,-3.667073877248405,0.31109534625303903,0.1928525187926975
2.202741702,-0.6792181525128724,1.3598368702706465,3.4307375128315245,-3.6141851482309524,0.30682062887143535,0.19294715774630516
2.222750841,-0.7040356967752627,1.3940821359365076,3.403239490292177,-3.579853417748578,0.3078862654544811,0.19361598593026033
2.242752083,-0.7829260303923535,1.4160778677005006,3.3996971143586707,-3.528642220688494,0.31068241835401855,0.1943842255918478
2.262746406,-0.8563260221337959,1.4548045462614363,3.3789257869092895,-3.495300816500002,0.3194467797463357,0.1942103074606952
2.282739862,-0.9093539175683231,1.4901281507753255,3.342607198704226,-3.4596797644751853,0.33264793992682523,0.19409350125526859
2.302805299,-0.9684063501178058,1.5119449144581358,3.3332611714653106,-3.3911857165818957,0.34948498058615113,0.19389956833840358
2.322753711,-1.039998105927091,1.5205045748081862,3.3126437864613885,-3.361041119439474,0.3677096109987004,0.19560824730182155
2.342755874,-1.0962724776259398,1.5293279751865183,3.3217630672894254,-3.3047423528996323,0.37065367964567236,0.19433218566386962
2.362753,-1.1639901931978276,1.5514081896936827,3.27840523818358,-3.2675236934246357,0.3734058930374662,0.19401363179896366
2.38274346,-1.2182475747557957,1.5563310268411423,3.3110255168742793,-3.234425149338515,0.37870811979430247,0.19419681438307235
2.402822492,-1.2894402420786164,1.5646858957765406,3.325030920423613,-3.1902127363471755,0.38935341787399336,0.19509358241670471
2.422754057,-1.3574062014039272,1.573353269109824,3.2943022928849097,-3.149534140626043,0.3983675220101951,0.19620997641413468
2.442763594,-1.4297949292257366,1.5774999772287142,3.2925182285923555,-3.1069811318622795,0.40835333757287673,0.19701761991865774
2.462752005,-1.4855658537400882,1.5721521275107004,3.2956200464743266,-3.048964668843712,0.42720937506894113,0.19791869106718757
2.482740281,-1.561225790272069,1.5710529866649632,3.2988853478125626,-3.0195593844940207,0.4338331456328369,0.19494515435718077
2.5028129630000002,-1.615119177335545,1.548262208822236,3.3100898206850657,-2.9625686734856487,0.4124040979456748,0.19611214636678298
2.522748267,-1.7025511227490708,1.5642608164086187,3.3079053695372163,-2.908766705940597,0.41560227124107246,0.19834486212571661
2.542752289,-1.7651641628818602,1.5508621246288254,3.3103848957646593,-2.8705790071105675,0.4233804004176329,0.2003347720362867
2.562747936,-1.8266247846210504,1.5338984989786792,3.297017412912759,-2.849022132742115,0.4199335082999846,0.2011176213390353
2.582801005,-1.8912045356015441,1.5281656128299765,3.311398388380014,-2.777374787626466,0.43140817841103984,0.2025522101599365
2.602738498,-1.9522206323326392,1.490422906736919,3.2965065093230144,-2.7537388103802067,0.4440914806983493,0.20365723835613245
2.622745809,-2.011757497925508,1.4717913213267446,3.347819864361693,-2.712743488906036,0.4530768702854878,0.2045086945494923
2.6427488290000003,-2.0666297680338075,1.4450124938968845,3.2865281524068055,-2.654057910413969,0.44284813527179956,0.19871604124098963
2.662747254,-2.123855237053554,1.4175131950543116,3.3160141251665305,-2.620249023166825,0.4351930531908543,0.19874583786370548
2.682740596,-2.201993950539477,1.3622622939330977,3.291866325779255,-2.593455808482486,0.4292379160727647,0.19906319964631697
2.7027473740000003,-2.2514094038240366,1.3432983054482708,3.3082281119739707,-2.5463941396033234,0.4325227660264318,0.2000145172084897
2.722751959,-2.3111012923346785,1.3011353919423418,3.3342123425423815,-2.493762760432152,0.43890059008653215,0.20034437890219786
2.742759627,-2.3608549807910992,1.2771412801878468,3.331404401726903,-2.458497831125463,0.43868930320776944,0.2017585163541646
2.7627478,-2.406928326264305,1.2263329125718474,3.3380469417397376,-2.4410546791337944,0.4566202127916697,0.20402096109635853
2.7827674030000003,-2.4441931941526103,1.183878025709681,3.3471887416845068,-2.3930760789509558,0.4462402242602711,0.20224244504261557
2.802748893,-2.4836166460162743,1.1573988905085524,3.3271389774226106,-2.343153413807995,0.44205402211083916,0.20287115930560895
2.822747238,-2.56151412459949,1.0904684422464463,3.3288751355621744,-2.310865675096771,0.43335939940329404,0.20389450437892537
2.842765002,-2.6085816561697737,1.0473625205028196,3.3570659452369216,-2.2761561498973393,0.43029750478920564,0.20517516089875362
2.862751613,-2.646669776133402,0.9968708326742086,3.349695089647702,-2.2113458535681745,0.43122007041140736,0.2071329873959574
2.882742371,-2.6745946708253006,0.9390102544949397,3.3246313254075908,-2.1639498217699824,0.43017413212875766,0.2088688126440296
2.902749575,-2.712258920092517,0.8780548468633145,3.3585113304118788,-2.1056210664588524,0.4338754739771572,0.2093607501931078
2.9227456810000003,-2.756176701680277,0.8258518937796645,3.365908130695996,-2.0776870600248114,0.44731579679419575,0.2102071260894802
2.942763079,-2.7879016665450234,0.7677099670469595,3.359378451742405,-2.0285353963425368,0.42281149167811427,0.20358862893165214
2.962841,-2.837036827660963,0.6912852611210759,3.355510542866856,-1.9805820731717352,0.4055799459419786,0.20436196452935965
2.982740863,-2.8293992367869114,0.6396199845856446,3.3444547253741788,-1.9217119786381607,0.39626278921446245,0.20444686202976725
3.002811757,-2.8639933370307524,0.587603881401071,3.3668398023868846,-1.898774897521596,0.4026503895921776,0.20539834820742708
3.022747345,-2.891258819606252,0.5200450823509223,3.3447909765746977,-1.8468055808110875,0.3859545677015872,0.20476255737397922
3.042754051,-2.9054943772257906,0.4408231656690664,3.343183721879742,-1.793341407746066,0.3825932180956195,0.20420119655069732
3.062747158,-2.9379856140072134,0.39250610698271793,3.3148559043242942,-1.751119295210739,0.3876198151239026,0.20468202531528296
3.082740507,-2.942871410467854,0.3265189960350586,3.3390595223323434,-1.7097867691644666,0.3683454021057812,0.2086619439767009
3.102740232,-2.9539607341357703,0.26465570224279394,3.300804799875203,-1.677022159648321,0.3606611541839762,0.20626813475543646
3.122745715,-2.956291849138898,0.2140234523578496,3.2814468447651377,-1.6262514072906997,0.3474363276541787,0.2047896474824699
3.142755807,-2.9612101550092103,0.13265398301875572,3.278182768945187,-1.5702092737191196,0.3474578550672787,0.2038851873078574
3.162748955,-2.952600594251036,0.06154062409752303,3.2689049931316756,-1.5487122486344154,0.35015374358586254,0.2032347239190662
3.182737469,-2.956360791844172,-0.008898815844633453,3.3032552025007433,-1.4882779215244073,0.34938742204850226,0.20308094621529435
3.202745946,-2.9496759553403864,-0.04765717648929664,3.260627744449941,-1.464270737565683,0.34126739841498677,0.20138247855557262
3.222746789,-2.973143548583978,-0.142860303706736,3.205796957009146,-1.4036295974165487,0.34213199788729526,0.20470019634251363
3.242751216,-2.9611927922840686,-0.17831869368753048,3.2054875348400587,-1.3656667298167737,0.3315979158722735,0.20546035466174958
3.262745941,-2.9444328644683053,-0.249134129194386,3.227720445386745,-1.3346699004934268,0.31895541356233464,0.20546816215917763
3.2827424179999998,-2.930231103991424,-0.30554028963710944,3.176042365489559,-1.2797964255309435,0.318417809169165,0.20663213964486163
3.3027528630000003,-2.9058615071224256,-0.35593585095919655,3.182099739481571,-1.235387357739999,0.30411753350040294,0.20749646784238504
3.322762674,-2.8893607950478035,-0.44232379280902234,3.165153363417712,-1.1893194380426875,0.3125551250230177,0.20795008152874664
3.3427474090000002,-2.888383433595674,-0.480745116171369,3.1475545878323126,-1.1373653758402762,0.33201218864365933,0.20901862018675987
3.362807944,-2.8496740464270753,-0.5407423715822137,3.154976540562456,-1.1163010904517476,0.31756361312511056,0.21363956732865047
3.382780851,-2.8249918621738557,-0.6090176054768376,3.1396896549302578,-1.0468791780249365,0.3074339429965642,0.21538826121023583
3.402742145,-2.781500303488146,-0.6729862910486046,3.1120892560222932,-1.0184359181746976,0.30978929053176274,0.21718062519195722
3.422745361,-2.7392479699489996,-0.7355338359891511,3.0856173044907176,-0.9596020635650154,0.3087759698227743,0.21880053949486722
3.442752555,-2.7192579790256723,-0.7785483570800849,3.0923451938208903,-0.8963193395077684,0.31366769525277094,0.21975168735339343
3.46274797,-2.697113712000058,-0.8067625767481942,3.063034797800966,-0.8703517830769049,0.32182137135841443,0.22078153114340746
3.482738988,-2.638658047044642,-0.8776017282666135,3.0633060884101257,-0.8200452389481663,0.3249181100377531,0.22198247290185852
3.502749703,-2.6104491068730535,-0.9124758436126591,3.060262609110262,-0.7721109086667352,0.34400418569054775,0.2227077367269652
3.522744997,-2.5737885066700907,-0.9533240643783196,3.0307513832632407,-0.7034471094584186,0.3375617008998835,0.21611625242993648
3.54274571,-2.5103971484079057,-1.0030783608923408,3.010506832299288,-0.6801396595978855,0.33968296176620255,0.2180855592488918
3.562745093,-2.4771287685799597,-1.0410665084720794,3.0274055249936884,-0.6312772656213296,0.33704930724563636,0.22054951244975948
3.582813374,-2.44340090279286,-1.0676229462598108,3.006849697098247,-0.6031405667405861,0.3462542109951224,0.2236188121314686
3.602823147,-2.37712248081962,-1.1105123876211669,2.989366624912507,-0.573798846290711,0.35881950564992243,0.22712260976597287
3.622753844,-2.3350782636832035,-1.1397131109870524,3.0285558078776846,-0.512674780159835,0.3634680155140539,0.23022050942365466
3.642750876,-2.2679243467630443,-1.1686034653772752,3.0255971389219947,-0.47644063182171503,0.3955681257700293,0.233420464296622
3.662755297,-2.2325929567155156,-1.172809705733353,3.0068375976273964,-0.4298520101141813,0.38411121475803967,0.2361249382251613
3.682819957,-2.1528973774286047,-1.2250883978215963,3.0086021090723327,-0.3739290719252094,0.39293302180184836,0.23722376950957563
3.702736282,-2.104814885064779,-1.2518131948104423,3.016090604741263,-0.31779850146963645,0.39446285651511304,0.23875651968373254
3.722784711,-2.0598973491302783,-1.2691592704233183,3.049698458541032,-0.2692794140809038,0.405813504781011,0.2402526723965196
3.742749948,-1.9807514648535214,-1.278786786422097,3.006335558387301,-0.22156826826638507,0.40572662945268845,0.24155922189000295
3.762751446,-1.9177861745942424,-1.288575992903678,3.034721279925234,-0.19068214543711678,0.42044321080905767,0.24253596058489255
3.782738673,-1.871334949837106,-1.3019821619817376,3.054144925948126,-0.14181486065291424,0.43915340842467754,0.24255688415657747
3.8028100680000003,-1.8113431686537294,-1.3206125777053297,3.047126334238372,-0.08833526206970248,0.45074434096673344,0.2364391394647117
3.822752164,-1.7515252022699466,-1.3287016379137861,3.082788839071832,-0.06661143496930469,0.4386910801388334,0.23685827414848704
3.842753242,-1.6829034864238395,-1.314563333712955,3.0708339646180924,-0.009657142350356234,0.4358258756650569,0.236426696734357
3.862747357,-1.6281558998174692,-1.3094816959949684,3.07257866503348,0.04224939570536145,0.4418818941922248,0.23679967902620078
3.882784174,-1.5668805972470916,-1.3182361200657573,3.1185859776164078,0.0758119857648519,0.4472853859831366,0.23700922672705663
3.902795276,-1.4996613223557098,-1.3059796968763675,3.100615910586259,0.1329548783906839,0.4531471972428024,0.2376179210063285
3.922749528,-1.4316524674033055,-1.3020433063465375,3.130953637459195,0.1731457375777861,0.4656011288444462,0.2385898837762856
3.942753582,-1.3796447436922823,-1.3139552651024478,3.145424292323755,0.22888206877498637,0.4608811219211891,0.24121724412906498
3.96274872,-1.3122552110504535,-1.291165119111032,3.1287751728791475,0.27718125467832755,0.4672540903416758,0.2392683659086408
3.982740751,-1.2709886329018916,-1.2658935341775595,3.1223343937806365,0.3373558298211667,0.45868840975669223,0.23775786831191098
4.002814626,-1.194482511920972,-1.2604193029248258,3.1588785135814486,0.3712220318215853,0.45631890183783935,0.23663837536263208
4.022748591,-1.1320055318266478,-1.2301300660243242,3.1763239665603007,0.4141786771095235,0.45906989049627167,0.23519319494650487
4.042753557,-1.090301084199469,-1.1773319497972745,3.1599487484465416,0.4554783919885587,0.4587947591203381,0.23332169274355816
