time (sec),x position (m),y position (m),forward velocity (m/s),"heading angle (rad), from x-axis, positive is CCW",throttle (unitless; -1 to 1),steering angle (unitless; -1 to 1)
1.006811958,-1.1734375404032704,1.1779033248404713,3.1122809374989995,3.024465229683159,0.4679890146845109,0.2334219376073189
1.026848147,-1.2373696631158082,1.1813236637025295,3.1029089853461924,3.0706536788948813,0.4586515270036876,0.23165018829746464
1.046864161,-1.3031871351288762,1.1755374398462337,3.095013657542877,3.1185718362681896,0.45465584049138436,0.23060309338036783
1.066858348,-1.3591174150590597,1.199032978435786,3.114496972733989,3.1669909874862525,0.44963211305305334,0.22889193039526481
1.086813985,-1.4238199050047764,1.1824411734606328,3.121257674987334,3.230873380506575,0.45219484262011556,0.22781763115373146
1.106812068,-1.4716637809596036,1.1675084051927729,3.1353586346369555,3.276969951785418,0.45269411198994525,0.2260794711903404
1.126808321,-1.5448008745481585,1.1779188359991206,3.1744486209433433,3.3175904082972787,0.4579179068336698,0.2249396822992751
1.14693122,-1.6195663741959416,1.1527898881746617,3.131886109736304,3.3623498577145,0.47103115748740826,0.22419238218024615
1.166810875,-1.6764595513258698,1.1421178901069438,3.1585824050986777,3.431270337080349,0.46277697760167713,0.22276987886048763
1.18681588,-1.73440778349263,1.1451841391692332,3.172460599122401,3.4656333740426826,0.4547855316725938,0.22103654301347328
1.206810781,-1.7969712028022526,1.1069741007315237,3.1573283633295257,3.5324486955633385,0.448250461660466,0.21949080686236794
1.226835511,-1.8356687751249712,1.1046150663534915,3.1510490510198155,3.5578470704239074,0.45155435324850784,0.21805792105228541
1.246863986,-1.916537391757501,1.0673922445664605,3.1765061494980547,3.6053285056592492,0.4506252653114798,0.2176017289358172
1.26682698,-1.946364124208468,1.0470810249874707,3.1679439982935738,3.674398544678467,0.46280400630702045,0.2160743393333889
1.286822573,-2.02535616206709,1.0185517653837768,3.1863615075574336,3.695880949503485,0.4625129957655352,0.21794482527834932
1.306810908,-2.064136355178189,0.9786925171779466,3.1561414598924484,3.7467768876682475,0.4511270163480054,0.21615249022904554
1.32681107,-2.1276107130956796,0.9355822641879462,3.169816710287145,3.7952868287369657,0.4544952803570351,0.21449620537316155
1.346893534,-2.175387081328005,0.9037634242603544,3.1769904941668146,3.835147451034334,0.45505486343544405,0.21364470951084447
1.3668705540000001,-2.2282041886972492,0.8539785529333407,3.1873261474692507,3.875794740998608,0.4476410032679816,0.212752808420649
1.386814432,-2.265032508294401,0.8260360583224902,3.192769910831572,3.9234822763582153,0.45339585772189844,0.2117057964789079
1.406810414,-2.3325913419119306,0.7676143895776282,3.183626109354787,3.96959179778881,0.4611059065146305,0.21147131871882469
1.426860466,-2.3621901442683306,0.72362455634099,3.1856410460581577,4.002440382833668,0.46871768886952125,0.21305759632231008
1.446823934,-2.408445745397977,0.6862554858376584,3.2015915189166213,4.051589660663682,0.4527949909423779,0.21242064762751767
1.466882174,-2.4499977834071207,0.6235506033337154,3.2031338932021236,4.103834835719591,0.441843880338835,0.21203185405533267
1.4868168480000001,-2.457189442610292,0.5802349554657589,3.2126132858094127,4.1490711869681665,0.43848717927607916,0.21244976400479776
1.5068119530000001,-2.513355652049399,0.521229242420001,3.215135188658895,4.180724466031066,0.43275693696692763,0.21189882891332112
1.52680838,-2.5634357887345653,0.46910169399927293,3.2582035925341377,4.225641448133629,0.4323812086340023,0.2113549751222427
1.546894776,-2.584677682739121,0.40587430084680237,3.241477628322255,4.2934734133407035,0.44389870597791753,0.21141700815443237
1.5668223239999999,-2.6279419652805722,0.35961421363403107,3.241890593056207,4.323576321234357,0.4366201150945122,0.21056028017373118
1.58682418,-2.627087304221816,0.27932686016906016,3.231824952619717,4.3579228301409705,0.4192900981936099,0.20661292484095936
1.6068089859999999,-2.666435702727491,0.22940699507360007,3.239058120881108,4.412810253064387,0.40692759073011064,0.20599783958903464
1.6268734249999999,-2.6664841824376917,0.17693942357124828,3.220252914296825,4.4523040055294505,0.39630906864774523,0.20486814643660933
1.646893766,-2.71576301253035,0.09893808882790077,3.2353732143198872,4.5060328398989915,0.37746937737210395,0.20548226405597136
1.666821831,-2.723677172310264,0.04279882438179473,3.2248041364494724,4.5576135467586525,0.37581360742661024,0.20651227095618288
1.6868244,-2.727902897092318,-0.017982455443601775,3.1795106955206762,4.602312185181005,0.37378606353599036,0.207951589501449
1.7068114140000001,-2.727961092900924,-0.08346373888859535,3.2071975632166234,4.636388865837604,0.37924309706855025,0.20859769911316706
1.7268124720000002,-2.7457302617368398,-0.1551993035010458,3.1877352651368085,4.680023850102123,0.3622701085555111,0.20839006817575031
1.746837835,-2.7429419886403132,-0.20592620986732768,3.1939384622927367,4.726883801518528,0.34863087308295987,0.20824415305221317
1.766811597,-2.7424411938102233,-0.28971344720944947,3.170907573836998,4.79482457488355,0.33604592246336673,0.20851987910164993
1.786832549,-2.742927157609311,-0.32729733063684074,3.1850852528543623,4.826712533340374,0.3236736838410103,0.20928106227960158
1.806848106,-2.7261460359068734,-0.4037661421519258,3.140998657620162,4.863768871970973,0.3248555166902295,0.2095949899422524
1.826809463,-2.7149679064239143,-0.45566076189842625,3.1259466607123225,4.945011888132252,0.3179142969231916,0.2099751633458589
1.846858976,-2.701712868033071,-0.5154463333279519,3.1594893571751896,4.958530889979341,0.31767113640919203,0.21171074244075497
1.866817654,-2.682170826889139,-0.5733398827740595,3.146033321098504,5.017684669689557,0.325685103715559,0.21200514080864266
1.886819363,-2.6715508036932634,-0.6343192912975287,3.1016533173773175,5.047055238970771,0.31592010548580396,0.21102839685649222
1.906813046,-2.647662412842286,-0.7165504299120108,3.071266154808112,5.0930434652490915,0.3008625421204858,0.21233582878478344
1.926808153,-2.647197210146542,-0.755440362861667,3.0744804251983537,5.169308114013288,0.3042224709128338,0.21332363508073443
1.946874233,-2.6060066291040687,-0.8195394389319427,3.0565268689812175,5.203597850767855,0.3022897664315335,0.2149673459068948
1.966816708,-2.5723424411673106,-0.8868906427678599,3.040633257992576,5.267641785861733,0.28693751758022196,0.2170958235541997
1.986841432,-2.5697730257990665,-0.9152017685194466,2.99945889715541,5.304787341485629,0.29839646669437103,0.2181622614904562
2.006863419,-2.5303596844146328,-0.9778182572983362,3.0190199742470765,5.361883545747091,0.30963337650451855,0.21951429970749126
2.026862723,-2.4928998917259833,-1.03308004788115,2.9985754508653573,5.395027835581094,0.31078281693293897,0.2234051219361564
2.046810446,-2.461881536130119,-1.0658656261896482,2.9747547514016133,5.434186095536572,0.31398378184498993,0.22420915672628414
2.066859327,-2.408332086891629,-1.1145553595085838,2.9665539824029183,5.484875444990215,0.31620226330228,0.22552712480409717
2.086828229,-2.380335373569234,-1.1549326679606788,2.9439383813675475,5.512273635599901,0.3173017123851043,0.22698328309239402
2.106808617,-2.3278910987710995,-1.1857059147772142,2.9661600949516913,5.560413439120123,0.32789296306866844,0.22818290184106266
2.126885292,-2.2617141877174722,-1.230932901414511,2.950673661047661,5.606657549054465,0.342189655905636,0.22974828431129501
2.146889998,-2.247774753810632,-1.2930042725107826,2.9340053689098538,5.662904406683816,0.3513862619170845,0.2319136559529747
2.166822644,-2.182881934805997,-1.3088401105998,2.9539001293172262,5.716825918718068,0.37298891662168937,0.2360208828042658
2.18683361,-2.1154258806729667,-1.3397869224678658,2.9393286027272914,5.748010130037971,0.37158397102710505,0.23828277792848068
2.206813247,-2.0907194951906947,-1.3515474941938128,2.958713352513583,5.795318176978186,0.3827777774883543,0.24005441466818125
2.226828735,-2.041699530506692,-1.4084829472038294,2.949225095235484,5.83857192563595,0.38939983353989444,0.2424594751860789
2.246852553,-1.9954719437995714,-1.4224747088461522,2.9813509043014843,5.898388157443321,0.40086156683149704,0.2438373162087375
2.266819076,-1.9332093985524708,-1.4281917802447197,2.939053295834528,5.948585685042451,0.4180047636344978,0.24523401856986377
2.286823887,-1.8605197127374735,-1.4571416210190162,2.9423501234080995,5.987365298132875,0.43591792383181355,0.2461783505133017
2.306862859,-1.8296705418165216,-1.4840139156084275,2.987316814801104,6.030020082678521,0.4400187687958289,0.24616072108763767
2.326810658,-1.7668578217869984,-1.4964148885731867,2.9875138645968047,6.093522526750253,0.4361524176532151,0.24646197995000946
2.3469536460000002,-1.7052035486409787,-1.4874799515654344,2.9998643993171936,6.1307285724070955,0.4389742889441204,0.246109532819085
2.366813026,-1.662513246530282,-1.5064331356146552,3.022969377505134,6.182386279874464,0.43663692102514173,0.24514511876382306
2.38682722,-1.5870681807416285,-1.5359372268203495,3.0085587478630904,6.22505379252266,0.4571150814013882,0.24400367066448164
2.406807379,-1.53175889593528,-1.5250510738083132,3.028710440885016,6.27470886654082,0.45878011232409643,0.24397507872447802
2.426865652,-1.4720375552162617,-1.5225285427803865,3.0458471761283166,6.30474054605106,0.46366952768654757,0.24316537613302838
2.446888755,-1.4063558227583615,-1.5120663776083019,3.0714094431043266,6.357427725728794,0.4808633678536859,0.24167001672486227
2.466815118,-1.3438404565957645,-1.5036813068972266,3.067675290143332,6.420976387531785,0.47697099262714215,0.23818517597728867
2.486849237,-1.2726716538672993,-1.5146518954024462,3.0866848370294386,6.451670187856894,0.46966269927229687,0.23833854462701098
2.506812836,-1.224248843930769,-1.4968760701765746,3.116702905809326,6.5218248796914065,0.4708243439968742,0.23861120376095413
2.526807615,-1.1463589936085519,-1.4720686635792717,3.106926231367896,6.54930253015032,0.48014875527267664,0.23824088599220675
2.546852077,-1.1024907674223303,-1.4540606965425156,3.124460758704607,6.594278268859623,0.48109801131853824,0.23917517931482282
2.566814393,-1.0426036614097416,-1.444090799666749,3.1297273768266227,6.654450605928072,0.4898609363170367,0.23856722070627123
2.586841348,-0.9810213513888474,-1.433587717359887,3.130067133688351,6.695195558448523,0.5031319044981837,0.23818011159949462
2.606870545,-0.9059834160496065,-1.3880728024082707,3.1496848958379977,6.755248025981327,0.49179363810372134,0.23260533112472337
2.6268598499999998,-0.8619887565636808,-1.3788128846729062,3.1490067947024434,6.80455444514567,0.485706886533895,0.23147596677131557
2.64688539,-0.8276279629797082,-1.3214385687822443,3.1517008504473316,6.842851551934039,0.48273873747564056,0.2303337328838822
2.666812095,-0.7513133938627128,-1.2977417159840068,3.180258451356668,6.887775991159345,0.479243738511044,0.22905123179384246
2.686835911,-0.7023841878293701,-1.266846926205203,3.1838354099222195,6.951453330588676,0.4852362471521925,0.22780511968949493
2.706814605,-0.6522929191078911,-1.205882478756637,3.1908649189701626,6.996897907186528,0.49143750519447993,0.22642956018845314
2.726806663,-0.5902030191532335,-1.195956087304468,3.208674085485701,7.034788451357473,0.4988015282129656,0.22403475592191144
2.746888373,-0.5390845236109014,-1.149751747332522,3.241631398986445,7.082474813214905,0.5088697166489821,0.22145817893821043
2.766815946,-0.5178955645127972,-1.100773620347889,3.2363730819364793,7.105440515580024,0.5086044580535496,0.21012325333748483
2.7868461780000002,-0.45929033657780216,-1.0448958107184623,3.262376655227412,7.164743109938948,0.5145417186266987,0.1976421686026235
2.806812181,-0.41616527753462484,-0.9938370247388069,3.2799848559068656,7.206684859269594,0.5246745246291175,0.18541299667569294
2.826807849,-0.36369512556833034,-0.945679192716472,3.300717740662913,7.244286224534223,0.53199156705422,0.17363465304022144
2.846891813,-0.3449691578784044,-0.913367547717196,3.3155327560919527,7.264104121968814,0.5378771306103753,0.16178671006963743
2.866813766,-0.3045445495823573,-0.8462926073667336,3.3475054854609074,7.3135567848586875,0.5449775640678449,0.14977584968429417
2.886820051,-0.26097737026912243,-0.7554143382519278,3.38395040911023,7.347241275402515,0.554083288787171,0.13865620060360484
2.906811062,-0.2326693293223478,-0.6920741039183645,3.392438384919188,7.361381615936486,0.5462029165881026,0.12437279627256567
2.926812827,-0.20868724676626546,-0.6482521345644485,3.439398311162698,7.385913917145881,0.5498085934124155,0.10106517911899356
2.946883779,-0.1747381525302307,-0.6097326091159256,3.467354988576474,7.4058829625411615,0.5543309801357712,0.0784116776061771
2.966817877,-0.14753409810273768,-0.5516509123859399,3.5340646769850306,7.431187401641764,0.5603662494900844,0.05638223022257114
2.986826879,-0.10633033398301632,-0.4868957192828002,3.5350499028664917,7.446732745616379,0.5673754782746088,0.03550021956719256
3.006810746,-0.05946838617630845,-0.39265141356205585,3.5811931162324453,7.424005608217715,0.5734202617646119,0.015886148669014413
3.026809399,-0.03661598190727589,-0.3511717849540551,3.64894639431233,7.436924120551639,0.5808217985697288,-0.0027254650282409233
3.046872565,-0.007279714426207632,-0.27774464749108885,3.6803552141431357,7.431619156979292,0.5500755536517722,-0.014425142117305032
3.066812102,-0.003570517114637326,-0.21522872211789873,3.6815658804210045,7.406925901587202,0.5364365637288326,-0.029523319573364494
3.086829668,0.028465530808961633,-0.14145562568567255,3.701153424658545,7.420203790528984,0.5178985913283222,-0.042631870363874426
3.106811637,0.08218164551933602,-0.07652325596553147,3.7302584770414478,7.401874045954589,0.5139988163105036,-0.0547761224616343
3.126882368,0.10252337772604311,-0.010403094749370267,3.7410676844923043,7.35311015520147,0.49510015660264944,-0.0654920171090794
3.146880204,0.1499123691517487,0.0625153723070554,3.7810150916588796,7.323733944354387,0.4858257173928155,-0.07547085804092733
3.166818478,0.1869027540717451,0.1392019806198538,3.755060679540933,7.353307787994411,0.48043427237188263,-0.08512418146908335
3.186832212,0.2157660279873251,0.1895745762127196,3.7935264935391437,7.314762366713976,0.45259899393582087,-0.08796068813914067
3.20681361,0.2663056922018427,0.2590225812214228,3.8057126086817124,7.288748456947683,0.4338427803310562,-0.096061990528866
3.226808765,0.29006004798299523,0.3332571774423671,3.805255053291045,7.258160364760885,0.4197355819458596,-0.1030475372553559
3.246803268,0.3485222292023233,0.37556713006822606,3.7960350024962257,7.244585187030321,0.410848933084849,-0.10907120332078747
3.266811675,0.40437284892026437,0.4413129214135036,3.800975838392527,7.213588062896253,0.3921394970020123,-0.11386010654672914
3.286829398,0.445507365534426,0.5184385091188513,3.805811642928419,7.175789826194683,0.38831426513437667,-0.11821783666158256
3.306811347,0.4819441366184341,0.5543816926479247,3.7923351932807448,7.151776462152254,0.38247532416455,-0.12297135281512139
3.326878647,0.53169018628209,0.6194016826786175,3.759787652517447,7.119975139804561,0.3782259195997746,-0.1272111023350349
3.346861958,0.5773539945556392,0.6795826837470837,3.7482029335699747,7.074753541087702,0.35351671201514384,-0.12568458564472929
3.366863685,0.6254909634128859,0.7527319840054575,3.739932780642326,7.044419235321666,0.3391100560768135,-0.1294241764160127
3.386816513,0.6774873563609326,0.7979576498259563,3.708778710948909,7.01940264258905,0.3296253531718848,-0.1337427407937345
3.40684416,0.7355412124920654,0.8569881849266333,3.7151686205737717,6.973821183931532,0.3187708934358675,-0.13707336094667405
3.426825338,0.7939415682526262,0.8787380931817572,3.676145393982317,6.948727724491159,0.3211411941320974,-0.13992675558270917
3.446882956,0.8579006140096208,0.926271278127482,3.6484171454553405,6.90640767469997,0.3269492368699488,-0.14232212535734243
3.466819785,0.9078150457242007,0.9759781271811058,3.6265588617760143,6.856617383058709,0.3287915564825309,-0.14483552974113603
3.486814368,0.9818107090927313,1.0188906975345613,3.6221929242413347,6.821728906295039,0.3060588601580176,-0.14610228431649785
3.506808406,1.0446212232224572,1.0602434920264374,3.5911191716006297,6.758446417987756,0.2992404491479358,-0.14724105259377437
3.526813387,1.0936474282728812,1.0879195712576957,3.5562278275506936,6.730286028214623,0.2869518167397356,-0.14832463458565584
3.546892861,1.1437028538787914,1.1074104716705888,3.5175311416301196,6.69309879325254,0.289464163746218,-0.1491781056017673
3.56682004,1.219581074797826,1.1611062008930864,3.508950473187497,6.654036356019504,0.28533157536177495,-0.15025056798507544
3.586819328,1.2805678179750426,1.1765197993257461,3.4800681844340073,6.618108106821384,0.28515782732183936,-0.1510208483360779
3.606810164,1.3618462737235262,1.196910548702607,3.4459907738069755,6.563830781113058,0.2896424249191067,-0.1515616407245525
3.626876989,1.3961169143125591,1.217123619809888,3.3970111223839146,6.545701655888982,0.2754150561720468,-0.1551464991943269
3.646807718,1.4813231399734132,1.2463689635840964,3.385127418436959,6.488261667653791,0.26842907564524543,-0.15509419754162165
3.666812969,1.5341625116703796,1.2529002101353983,3.3373165415762363,6.456459519235085,0.2656108664240378,-0.15544170076593034
3.686832013,1.6204841996664032,1.2740009840284012,3.3065544840873566,6.413915820818703,0.2625154972662102,-0.15614276211913128
3.706817088,1.6646517812033987,1.2813802339794376,3.310226759912127,6.372295657233484,0.2599454432285756,-0.15807292988632032
3.726810322,1.7226497935409055,1.2762240028651124,3.269408930577502,6.359133778412835,0.26677776131832687,-0.15893757455120877
3.746899127,1.827721778912598,1.2920731948469446,3.2530055703645715,6.286812600066467,0.27523622396967473,-0.16146226531851152
3.7668137120000003,1.8540618496978594,1.2897059044142025,3.2317717417815213,6.268596057354415,0.28007126582934627,-0.1625457946329167
3.786833042,1.9288352854504338,1.311861462767815,3.2126879238757264,6.243431206472975,0.2705883020141957,-0.1654621737607121
3.80681989,2.0045387107159023,1.2784438708982868,3.1842706821172455,6.183456593835906,0.2672627847665147,-0.16854011221382942
3.826897353,2.0371821620214976,1.3050799394508714,3.147547181407924,6.152408596200931,0.2542470329997473,-0.1726215588232489
3.846883048,2.1236158001885004,1.284902541517581,3.1089796179825226,6.0841963738143745,0.26112647472107203,-0.17594060364519284
3.86681965,2.1960783481481783,1.2689694491313326,3.1157405155449642,6.07285561871427,0.2607912777590513,-0.18002216767236728
3.88686905,2.248918228375664,1.257562096673665,3.082910819281874,6.028292998098448,0.26910653179220534,-0.1839698708175689
3.906811846,2.2848528068069496,1.2489434335309066,3.0495269865634738,5.97593580419324,0.28150531607181845,-0.18768208341876313
3.926809773,2.341200425034218,1.2241773036112849,3.011872060790811,5.933981398155123,0.2841419217622247,-0.19053871382291543
3.946817996,2.3995412987306595,1.1803889739914424,3.0138757781699494,5.8738413651798105,0.28030451445933174,-0.19452065797787446
3.966811972,2.469082645987286,1.1754780608001123,2.988430798177927,5.855253817738872,0.2814629789771943,-0.19819641946897779
3.986813276,2.5005314513567614,1.1401220419360474,2.96101518864629,5.806009204171175,0.28143213676686585,-0.2027227353306172
4.006814064,2.558552739373989,1.1312059515673074,2.9489138331684313,5.739269473033607,0.2902512245281038,-0.20638632065628826
4.026879906,2.6076932555150556,1.078936922042678,2.932697664196487,5.689953504195412,0.30481231227970407,-0.20953541125096384
4.046891728,2.688367447348588,1.0519940685051201,2.9400595311202258,5.654809648190314,0.31907220521663576,-0.21329383992604126
4.066814013,2.717111420838172,0.9954295827081808,2.9111868025513234,5.6310715944565946,0.3424606704834031,-0.21529954919551117
4.08682104,2.7495472222177835,0.9710781303592905,2.8886674647340738,5.533068449939677,0.34558145765234966,-0.218073814221703
