time (sec),x position (m),y position (m),forward velocity (m/s),"heading angle (rad), from x-axis, positive is CCW",throttle (unitless; -1 to 1),steering angle (unitless; -1 to 1)
0.12682548800000001,0.028539328313978478,-0.9762058478467707,0.016897708354210228,2.2206224862657917,0.75,-0.22300269832785116
0.32680488300000005,0.0033617904981755303,-0.956272401676299,0.1203525071478867,2.1960933147934067,0.75,-0.15028305280764506
0.526747336,-0.11707278832708563,-0.8255369444277413,1.7161077885517826,2.0745628437077985,0.75,-0.11877402652001447
0.726743149,-0.3609395254484562,-0.32312755014429917,3.202627381050907,2.122916268518716,0.710895229781284,0.06708502520137274
0.926846833,-0.73932369313865,0.1750799557660651,3.465747746426127,2.306171971487291,0.34462809760513546,0.15020800687034175
1.126742226,-1.3073082584243525,0.6132723443361247,3.343980141811806,2.8108702521159286,0.2551262912498999,0.17388150683377274
1.326754244,-1.8946891390942,0.7411890688895382,3.075477747023893,3.1853805300639495,0.2463479820297964,0.17036752507758765
1.5267454169999999,-2.435198676451514,0.49028602908984587,2.8414404270729015,3.6902844105106003,0.05096918358097964,0.25384411237704974
1.72673781,-2.897382375266302,0.16897835480065965,2.6564309319799158,4.221164219986391,0.4013262534090804,0.17618030057915712
1.926743347,-3.019579942215678,-0.33480611554807826,2.7820948773158345,4.618749522327026,0.34438849987872505,0.20985170013775736
2.126755244,-2.923624755641093,-0.8910411182344772,2.830137312999444,5.051875902714775,0.35651579161664126,0.23625348999967424
2.326746038,-2.656385136710773,-1.332529729440891,2.8980223852840292,5.553782699186097,0.42133316307220176,0.2315591886348931
2.526846665,-2.103627463753927,-1.6204646561779543,3.043934610120353,6.027135753178297,0.4692832629699893,0.22243178568628402
2.72673896,-1.4436218130066005,-1.5724000840028605,3.2038231372418995,6.493720864480539,0.4802431013391407,0.205822141523072
2.9268137970000003,-0.9130524633742327,-1.3924617098789616,3.3441280135058338,6.918867326292802,0.40899904033368567,0.19461420074782754
3.126878705,-0.4889751593465261,-0.9191463296365603,3.248338749155617,7.360212131727409,0.38253128963088057,0.16734888986190766
3.3268230450000003,-0.245011747987336,-0.26482259222061183,3.397305116322129,7.5890140002174435,0.4485425963824759,-0.04349181225465555
3.526826331,-0.006440351783119604,0.31003976884040374,3.46264952262072,7.347509073086793,0.36128632300677,-0.1618060017523699
3.726739227,0.4673292212784131,0.9691780592431639,3.4607136502212947,6.9349590656148425,0.35609350194193856,-0.18436973680136517
3.9267804120000003,1.0663986637454865,1.267926457397845,3.326463150098966,6.53282802339574,0.36975920655653033,-0.17539981146318273
4.126751197,1.671868239181572,1.282502159044963,3.2782919914082704,6.071215887310785,0.34781058883880567,-0.18772178300402664
4.326755852,2.3068455819282674,1.0099499147543374,3.174689821978842,5.653704871590875,0.34980582861389525,-0.18517497303807193
4.526894928,2.7206140981512186,0.5529488802613185,3.1918434540199625,5.232823292431371,0.3283299360485904,-0.1849326316405874
4.726738587,2.949631184193029,-0.0929615160999829,3.096646453796423,4.734806007781923,0.3381215341383467,-0.2105978216666028
4.9267450440000005,2.8104252024545895,-0.6471463779257618,3.0900651964769184,4.286413381383239,0.37367721144005045,-0.20650127674585114
5.126752815,2.4046068978030717,-1.0610354748761948,3.0584078844561526,3.814275856871907,0.3938146670225416,-0.20504044436436925
5.326853084,1.9297099935849755,-1.4558963317040927,3.0977086251572716,3.417482868930784,0.40374118565650907,-0.20882132722997826
5.526774022,1.3075948063429899,-1.4986265650520911,3.0798846394239217,2.942651278379007,0.40177659384876624,-0.20286900590731824
5.726737213,0.6686945129218963,-1.188707179126023,3.1759916265842514,2.4707070045805355,0.35176451630319366,-0.19741311681682547
5.926806507,0.2923945009210288,-0.7126047202472828,3.24255757937261,2.075757065305241,0.4117845177828831,-0.14536660362523568
6.126761996,0.0032857507796517672,-0.1921792110729607,3.465282081732044,1.9651059719351878,0.42545391952055484,0.043610171236098276
6.326750762,-0.34273272670300453,0.45246540422220893,3.557522874458213,2.1795254122142267,0.28935092006192736,0.13786652820629822
6.526820071,-0.838587709497738,0.949527724824866,3.3829219131961343,2.594542336400105,0.24371348002402315,0.1673698603765075
6.72674078,-1.449625242576453,1.2089483247617887,3.1825208299095515,3.0805174747771633,0.28527869790049304,0.1616217414702149
6.926785077,-2.0592221283556964,1.1605356007429708,3.1229356997982882,3.4874798668752156,0.3179014519399313,0.1610010533390745
7.12675806,-2.571117526294256,0.7921033066135381,3.093902750659534,3.9080564188762943,0.32098817988674166,0.1740801981394219
7.326755043,-2.8822327231022244,0.3132763834105967,2.973092619181665,4.402238432544593,0.30274586320978153,0.1932589691114294
7.526762834,-2.942677737678027,-0.32385006258076593,2.929737826985291,4.814904534000821,0.3145397860271093,0.2089314297118992
7.726734121,-2.782585945149612,-0.8463059507256473,2.84787233522729,5.301982613886144,0.38521196490006826,0.22232685712855096
7.926764785,-2.3616759525916198,-1.1753924506336517,3.0306398282217835,5.7197650870923455,0.44928263332792073,0.2178861877081366
8.126755166,-1.7988083632346996,-1.3990809335671954,3.098443128383428,6.216021783947792,0.4509375163884492,0.21338720805317526
8.326763235,-1.1256251109603097,-1.3047864902192499,3.270027030836839,6.7284649641449095,0.42997867939321566,0.19780648060488562
8.526752765,-0.6542351459087175,-0.9114063112925619,3.1978771693063615,7.078747854074441,0.38770160884735066,0.17802594383878026
8.726738693,-0.33378588320723585,-0.3003365065115878,3.1965191733878617,7.599209165011278,0.4012428116072374,0.08738488340932354
8.926752734,-0.11650417498776204,0.2421877557316547,3.4037118596485865,7.560527252732985,0.4132397810907482,-0.1253086632638644
9.126742676,0.21423015993757935,0.8993795885216946,3.3889300556264463,7.231017063595914,0.3609099483637373,-0.1851810376514673
9.326763682,0.7373243149031128,1.3593123761520571,3.3565371823300816,6.718580764755035,0.3685224625844373,-0.1896903247322079
9.526755213,1.340165964457907,1.5012650123065627,3.301184969309256,6.280044012440625,0.38989926240932493,-0.19068104686918178
9.726742928,2.0502700486673846,1.329578954352803,3.2482396298056186,5.916422229979848,0.381199545322909,-0.18387407465456823
9.926748083,2.5134068731268235,1.0066156856564095,3.2321416290579887,5.470346179428504,0.3513158635011834,-0.19312367809593076
10.126762081,2.8521694845128627,0.4308365422482481,3.142028476439997,4.952776262538491,0.3400272474104346,-0.2069373180070785
10.326745272,2.914409841013981,-0.2184985048232584,3.1068814680494805,4.5073507026127935,0.36680727616054465,-0.20384047360099336
10.52674733,2.650545400996764,-0.7907535390736351,3.084933393153574,4.118087618986656,0.37612741279803114,-0.21185653802166812
10.726748537,2.199598461780651,-1.1759719722818747,3.1174925502190205,3.6287780460887133,0.402651895141836,-0.2103132842895871
10.926754834,1.6342839471120503,-1.3622077703845619,3.1416272051847662,3.199516862001705,0.3958544701776091,-0.20621278250165861
11.126744763,0.988377677529322,-1.3088110112893825,3.1741916678709137,2.7325969023565095,0.3432614229206574,-0.20733502231315373
11.326746271,0.5306525758341474,-0.9143146328214367,3.064885094785493,2.257738841148341,0.34925065950571843,-0.20700529890671138
11.526752629,0.15141672110453683,-0.4114602495164871,3.3211081634233937,1.9477343311837594,0.43808350752875086,-0.060467546263677
11.72673992,-0.15197871341001357,0.25770184078654396,3.5534031860691817,2.110380177241051,0.35909825336419043,0.09863372333667834
11.926750471,-0.5497183860082816,0.7884028999261523,3.491352451013034,2.304635810901417,0.2622941493813387,0.16788369847457174
12.126744401,-1.0533542476834494,1.2374985665877212,3.3156111228115064,2.801330371689001,0.24881648399131778,0.17884068395030384
12.326758486,-1.7564056561524004,1.2623953688821703,3.224485073191892,3.279076294122295,0.3320123238016097,0.16764822854568442
12.526763481,-2.277328109478033,1.1065261588339137,3.0777676415880584,3.665501780203938,0.32401786033316543,0.1834333018043506
12.726805544,-2.7617541323790933,0.6527774667563729,3.014563772538726,4.155683163400495,0.3153726064447337,0.18748962539396202
12.926757897,-2.977656624077077,0.17854686436320527,2.999911522092867,4.595982647458589,0.3281165914608744,0.20348062810672027
13.126747541,-2.997802665675654,-0.4517614569958544,2.9593048390512444,5.080436966237827,0.3529901291163108,0.20423098848283885
13.326754956,-2.6300556332462715,-0.903690690568527,3.016508224974411,5.580462305619472,0.4184457027277366,0.22404706945595884
13.526820078,-2.077011878457399,-1.2521040539476465,3.0992091443637433,6.04737133141725,0.4540122466972498,0.22038889346367743
13.726739087,-1.4471977686050592,-1.3065718708681944,3.1211558900076897,6.4549993543347,0.4347085867682316,0.20449891655504926
13.926758996,-0.8851407071091737,-1.0700086990089632,3.174135166872915,6.9155924338650285,0.4136342352104419,0.18707769483772488
14.126755516,-0.46376439212430576,-0.717934734277791,3.2074420184230457,7.402864462928713,0.3877998998870066,0.16249621070092315
14.326756086,-0.23664710713762147,-0.015776945534338543,3.2505120748178062,7.572348985320549,0.42727324898248553,-0.03428080536802563
14.52676043,0.023258152637815256,0.5841126177333007,3.423985741024642,7.34233209657204,0.3734690307096969,-0.15741118214827296
14.726793105,0.48212399717182364,1.131939825261372,3.374567459467406,6.9116679209563445,0.3455085910277057,-0.18499846846233298
14.92674386,1.0622501415352437,1.4427589593290893,3.3194340632815726,6.495538030545238,0.3780710343707037,-0.19466724969722213
15.126759098,1.6952384341441782,1.4191503502819653,3.3173648549910104,6.081007296047736,0.3759904301424503,-0.1951702889794648
15.326760365,2.3010935645927164,1.2648262310168954,3.3421138176731975,5.658069212938912,0.3587364554035066,-0.18653051431041892
15.526761609,2.7716186099967617,0.757989569394295,3.232364895485973,5.267399445345984,0.35076952437215214,-0.20369509763053714
15.726733804,2.938899214041057,0.11269556509141739,3.1797165546721873,4.783631277338647,0.3484029808581123,-0.2119243125698773
15.926755026,2.9237580263308587,-0.42605084438452046,3.1817800124966364,4.299777460650504,0.3727286263909647,-0.21479094692433096
16.126754819,2.542856639089121,-0.9682997080819081,3.1164470302084406,3.868748130495376,0.40408099398751535,-0.2161539973118897
16.326748941,2.0028291435675984,-1.3177207844889074,3.206636838529556,3.377480074316872,0.40133773722500277,-0.21326319197242985
16.526756979,1.4129316269007914,-1.324456661950679,3.146130550725274,2.9646003259001605,0.37568097758681723,-0.20920167172659251
16.726733261,0.7797823122129843,-1.141688274806052,3.1025354001695153,2.5103850890982597,0.36540252979687154,-0.2106331075150974
16.926747389,0.3338299625497717,-0.6662144097580247,3.141327511962979,2.113389057395415,0.3902930695854008,-0.16079081102513168
17.126798347,0.1582695646438363,-0.06091292886806124,3.425260060626241,1.9789011983732978,0.4374593401010192,0.042236233883740065
17.326744277,-0.21803723224542051,0.508977754858861,3.5161074799935124,2.1905660924697616,0.32725846311844214,0.1445533969965246
17.526748873,-0.7145632980579762,1.0277109992765259,3.3582617674692217,2.6310650376016733,0.249708310717559,0.16856755626412576
17.726736616,-1.4205860182024581,1.2194649500495094,3.209013946403331,3.1514882908792883,0.3158257306349143,0.16242024491910972
17.926758091,-1.958321778223881,1.19978078171153,3.1291052022478105,3.498112674648416,0.3420297055862858,0.15575248654534798
18.126743091,-2.5026812255814463,0.9188173904530302,3.0730416838014967,3.9550177296265265,0.31208419263148063,0.17216714543822445
18.326795963,-2.856016120131055,0.3227972728022772,3.004777562604031,4.380769357022824,0.3060727534495703,0.18856916630310866
18.526750353,-2.938138342860022,-0.21922594426233913,2.9731042906497382,4.82229214785149,0.32325353620181874,0.20176063389396964
18.726736574,-2.703094428044065,-0.8152370746730816,2.9197940294569626,5.330071590340196,0.3703839854831137,0.21563121894180598
18.926747335,-2.298369732499432,-1.1998535248312843,3.004461275571516,5.7997924329999515,0.4287270918973907,0.2212162883409809
19.126756545,-1.7025613914647395,-1.3399858876876383,3.1122272398811086,6.294777531732984,0.4493010670222724,0.2108644835100235
19.326752932,-1.1576626080632335,-1.2594910041447354,3.152598556183488,6.725400687583005,0.4165526362416963,0.1943511185844393
19.526763593,-0.5886482218161662,-0.871072448813127,3.1999643472272212,7.143736743609669,0.384642116741576,0.187234452955598
19.726734525,-0.22625273084442485,-0.2787833549006718,3.1832691531062376,7.557262110640899,0.4013616757358184,0.07957588927531381
19.926741074,-0.09924787347854379,0.3457023360134534,3.4659738940601272,7.489041190941081,0.39717239651594455,-0.1160707236685322
20.126796353,0.22453225861217307,0.9243612401141293,3.3794694925489264,7.104952474459208,0.3485598123142334,-0.1863362046275703
20.326748714,0.8167604517997779,1.310061990480705,3.3029553903671247,6.691767835145652,0.3639340407704417,-0.19074609732560716
20.526807424,1.4261245844690074,1.4695014381241196,3.290348427744341,6.324177251922389,0.38810960258572497,-0.18895658031121657
20.726752636,2.0388646786200506,1.3520347085812974,3.272462340554019,5.868402210369106,0.4000612519479238,-0.1913224217057928
20.926743903,2.619921254012025,0.9243783565885495,3.2742729088017493,5.437959971074455,0.3456940320205092,-0.1965425811595515
21.126739932,2.857511980163089,0.407040105459795,3.1761560656636494,4.993008170642966,0.3459288444178419,-0.2096477611207785
21.32677862,2.9569585080749707,-0.1809617245802405,3.1371632621495498,4.504299782212504,0.37771087146656057,-0.19532279870543345
21.52687227,2.6998962579502104,-0.7808130032387578,3.1063198085756465,4.036579485265283,0.38908490449642064,-0.21641914583317434
21.726738066,2.2410011701145645,-1.213140110819205,3.070182005660431,3.614432233079274,0.40581926130816937,-0.20381265411751184
21.926731563,1.6881592722076417,-1.360829727796059,3.176733268018362,3.1376654320343906,0.3967837642739025,-0.20930595345930467
22.126756416,1.0363297342213984,-1.2495420682291363,3.1885790808627568,2.766683006784775,0.35639005527600076,-0.20506930675690288
22.326745313,0.5198743708169719,-0.8817401328527193,3.073662933091357,2.2371223267349825,0.33128889868480377,-0.20753835234231352
22.52674074,0.1965363676351358,-0.31237219499443525,3.297120187479649,1.92652754222883,0.4304212190635187,-0.07177791459409993
22.726736405,-0.1410409985946435,0.2632734362679283,3.547074022478716,2.0550201991973003,0.35216520444820126,0.09711356332395894
