time (sec),x position (m),y position (m),forward velocity (m/s),"heading angle (rad), from x-axis, positive is CCW",throttle (unitless; -1 to 1),steering angle (unitless; -1 to 1)
0.131497477,0.2325769729586801,0.23659587692583392,0.013990620533478227,1.5514607794990094,0.1062760303844173,0.0398550629357316
0.33150054300000004,0.1736770022214494,0.1794622599513602,0.10988182003168662,1.543740391419985,0.75,-0.18851410097031604
0.531501985,0.18277240326851782,0.3756681490767811,1.6620458919253476,1.289900445051224,0.75,-0.32252764637729486
0.731496699,0.45633041949631176,0.789823070317676,2.7385037960127114,0.7736464132370502,0.7390745229627521,-0.2981549707122249
0.931554882,0.9250680084473477,1.0651911764418824,3.054644861834365,0.3074511748205271,0.4824557268395444,-0.24567321512214982
1.13149689,1.510369837333489,1.1870462855916877,2.951158174042772,-0.19060699696428346,0.39373672253660036,-0.2255464073270236
1.3314966830000001,2.0401888674651705,0.8868776378119563,2.871275891093473,-0.6424580968484727,0.34785650884443164,-0.22492974229356782
1.531544656,2.443255741935798,0.4382466708662818,2.832019426244484,-1.086471880459701,0.3709604448240245,-0.23785066596040483
1.731503295,2.598932130772338,-0.026995990301196968,2.768128235021259,-1.5902009563668758,0.43116173966061994,-0.2406863464420359
1.93149719,2.4198502031326,-0.5592623388182354,2.865287789819349,-2.1250014536535713,0.43328274131249245,-0.23790899072652286
2.131548244,2.04145411569619,-0.9925978354708193,2.8716076957804275,-2.640691276457859,0.4495633809211332,-0.23034195066417057
2.331504805,1.510663822409778,-1.2324275724306608,2.9290009479125216,-2.98290010216087,0.41150849842660797,-0.22785110150626983
2.531505852,0.8734223737271095,-1.2370133157294925,2.8647607823004275,-3.505781404883614,0.38099339171045915,-0.2242449146558935
2.731500769,0.4221985909334152,-0.896126973318754,2.897568471256413,-3.9143934905962947,0.39648798105773714,-0.2263669921410659
2.931500578,0.1061176784933291,-0.4110948866698727,3.063005429219879,-4.289984692651878,0.4920326920801045,-0.10383585622815272
3.1315014310000002,-0.14992409166617768,0.14129581600007612,3.284064204185655,-4.327187429682394,0.43108809166608164,0.07753679619189287
3.331495094,-0.49543951715011253,0.7664257364649854,3.4057125959113232,-4.003986786924129,0.32331546717827997,0.15991105883345713
3.531575902,-0.9974817953287818,1.0940595019208736,3.2537408930156944,-3.551418647720186,0.3050419771900653,0.18384572928075882
3.731508893,-1.6400331799589623,1.2491967393432206,3.178826370111971,-3.063770406781575,0.3887897774093224,0.18030731659194923
3.931505144,-2.267879715670192,1.146196817828026,3.193087856732631,-2.6465419950815097,0.4015130821337925,0.17289875432183996
4.131500047,-2.6975687705944162,0.7191066636580882,3.144875781319843,-2.197866139019364,0.37251490054177516,0.18606632269894302
4.331497491,-2.981740776910465,0.14278688864739925,3.146553188110532,-1.8020800750972752,0.34711001160162636,0.18727390590833023
4.531548559,-3.098047324410237,-0.4544512892316888,3.0432273565553243,-1.3028925636609605,0.28620454026772835,0.19308881069399553
4.731498229,-2.8131188271922998,-1.014863949095355,2.9712750588472954,-0.8937626758264784,0.31023960724471206,0.2067442510752218
4.931503333,-2.3317364850494133,-1.3690378815664326,2.9386132889642007,-0.3718866251072601,0.3915293997742236,0.23129136111832144
5.131503496,-1.7124053861155228,-1.4502212360444315,3.0197413324616678,0.05567060188576157,0.4458182774975265,0.22500745607340444
5.331501677,-1.2167519860544482,-1.3268070968844994,3.0826081989600347,0.5271079805850208,0.4782949841484495,0.21297988946507973
5.531504202,-0.7004195876169244,-0.8705734702910473,3.2153336386308173,0.9465879706442979,0.462764362289579,0.17745322954014478
5.731498913,-0.38929440786460007,-0.2658165613874311,3.4388721567186153,1.1968485720203492,0.49000522330827456,0.004153548100440909
5.931505036,-0.09388130397923827,0.35951552053282937,3.6412615996518403,1.0450318509051697,0.43337790762075756,-0.12953792064338499
6.1315397,0.3100891012088168,0.9625473552449753,3.5500677591649494,0.7341492935192498,0.3603743296351816,-0.16574441769766646
6.33149558,0.8780490212255558,1.313946280359887,3.3851289933727413,0.2898463893142056,0.3601833176281051,-0.16676549382286776
6.531538598,1.479053776758085,1.4111428275366176,3.3119171602135458,-0.14304896296643746,0.3514049659516943,-0.1648710123371927
6.731497387,2.1545700784567954,1.2813645177700597,3.0860947420452147,-0.5094525356284898,0.3165482479801226,-0.19744229450219114
6.931500382,2.5673861914507756,0.9107416185804867,2.9409433586627594,-0.9135754190028479,0.35158117031309594,-0.21604467917335146
7.131501546,2.8234894455769113,0.3199868406445802,3.0116083117016137,-1.3976455179212601,0.47969972602767497,-0.23824254206461387
7.331496513,2.7587376686778917,-0.2244546954326437,2.953580957456169,-1.8735855636372967,0.42859685182017504,-0.23669544695471803
7.531560251,2.416169977307397,-0.7195822384128415,2.9447508675143745,-2.311154240910817,0.4532701938795682,-0.2167608735746918
7.731505338,2.065198043713001,-1.0438334698930984,2.990217529601581,-2.800590670754689,0.436967381539359,-0.2173484118627532
7.931499318,1.3967971074101015,-1.1554165393782418,3.011879213880529,-3.241508062327193,0.39663365261103173,-0.2105325110464403
8.131501094,0.8538082128863055,-0.9971273441419491,2.7757209676686267,-3.7536753748077394,0.3001885895789887,-0.31741272976364654
8.331502313,0.49023100785827173,-0.49205772449812785,2.788870503313909,-4.210368963229445,0.46348311179762575,-0.18226310774049373
8.531503297,0.27938497115217525,0.023877126069130943,3.2410378120785177,-4.284161729353435,0.499013380318953,0.024217045612113342
8.731502027,-0.1029196578096182,0.5749228030865505,3.391480947792144,-4.100481893225068,0.37572935357581555,0.13482738407792946
8.931548142,-0.5549887242309356,1.0962176770213579,3.3664484813938262,-3.745612074201661,0.31849937513446563,0.183913567148453
9.131573186,-0.9918457998119652,1.3777122220387144,3.268298007540455,-3.329402186191963,0.3654655515636162,0.18284167119134667
9.331495067,-1.721133890792316,1.330384109293218,3.2139910650089663,-2.93713005132865,0.4304928826915475,0.18289533491899784
9.531546159,-2.2914570197995054,1.0364193096335577,3.238498364131995,-2.4664332863499405,0.3929848952254401,0.1866894891682575
9.731498999,-2.714591697468087,0.6270899152366026,3.255476653022007,-1.9510244437216748,0.3642769244226053,0.18102605500356392
9.931503206,-2.876152852423434,-0.026357162627106034,3.1457961476527445,-1.555941817575429,0.3393410229240465,0.18163940068706114
10.131497833,-2.792564817450558,-0.6450456096085498,3.0455214938418695,-1.115769695041866,0.28868402121619796,0.1946672500294853
10.331502512,-2.4251176538397075,-1.0747593342799018,2.880394417830566,-0.6902556016633341,0.305944317068672,0.2156248200252945
10.531515759,-1.9827065269689335,-1.395122801065783,2.8561386250085894,-0.12998259445517873,0.41881326883128245,0.2339895233633936
10.731507811,-1.2977060145083141,-1.3571440902883058,3.0355487235407725,0.3152043830279003,0.4634842476964262,0.22315186967106682
10.93150019,-0.7444163524409584,-1.0364664216574135,3.118195478802098,0.739209623862549,0.4618840864073055,0.20735106871034387
11.131512986,-0.40100044377188543,-0.5240827991780698,3.274001888781486,1.142864063949754,0.48517348838231183,0.13494744606990736
11.33155486,-0.2337718090323737,0.0920172466467777,3.5058639466595762,1.1878489539053885,0.4696846568365826,-0.07537434191751215
11.531502737,0.21801165356955415,0.7218715313889668,3.514549158136348,0.8836553540189788,0.3816295728413179,-0.16312700002339278
11.731574878,0.6106531599118086,1.2159884894412116,3.4054125873608068,0.46040916841251567,0.3988200198637233,-0.1610345477798002
11.931498113,1.3336822013163652,1.4070761120000226,3.2147464214377868,0.0740860115389966,0.3516295073572703,-0.16170907156419115
12.13150327,1.9695719006819825,1.3600949082496594,3.1248308322033442,-0.31721625677721144,0.32553467698308464,-0.18107622888426467
12.331500562,2.4856209515034857,1.0854626423847509,2.9853190756003483,-0.7432919420418617,0.3498807173198139,-0.20353554599156493
12.531564924,2.8166492089005484,0.5696591076339451,2.9293753222246908,-1.2535321860683775,0.3850503078158781,-0.22173606950457742
12.731497919,2.9396346791682415,0.027665659115484038,2.8573170768321607,-1.7216694856865935,0.4532161721799427,-0.2232836724716835
12.9315054,2.6520123566916856,-0.5011369010625802,2.968179456116666,-2.1206072703174166,0.47383760020164517,-0.2085363446479752
13.131500959,2.256321452825439,-0.9158043500867972,3.0098411174184387,-2.5795039808778726,0.43963997434423735,-0.2122921506245711
13.331507306,1.702959364526316,-1.0812627032269404,2.951900976098281,-3.0875234041259962,0.4125299713648468,-0.20752822067058146
13.531500384,1.0960435874711,-1.0678309639256593,2.935925243644482,-3.5112434300313287,0.375445101767793,-0.20512275260378657
13.731506393,0.679890396040356,-0.7461323756327634,2.849428629827361,-3.924183416974036,0.37018764661994424,-0.21088156179590298
13.931508038,0.3590559803034547,-0.32672347288622083,3.0315641725591305,-4.301277029010966,0.5103696804603306,-0.07868267242103937
14.131502478,0.011814613905855413,0.3306485309701152,3.3434095894381444,-4.247345931583938,0.42352738824714875,0.07598777722416426
14.331498937,-0.34082879434671726,0.8251542286920076,3.4442014034025337,-3.9420161543398136,0.3243689998625467,0.16844316548295854
14.531497977,-0.8613378992317888,1.2663115953936137,3.27480315968027,-3.5066770597091637,0.3488751922266647,0.19256254619628313
14.731516068,-1.4656957237157398,1.395687265356918,3.2707761332099263,-3.127059004070432,0.4079057761933769,0.1851395871434307
14.931496806,-2.1169473700801507,1.3047917702638936,3.2569805087491304,-2.678774779522677,0.4060487480473266,0.19175143191243119
15.131552637,-2.5915094167232944,0.8814362378309106,3.2658264264066483,-2.1770380136714373,0.38262289651796744,0.1904839073000789
15.331499344000001,-2.9032864342888183,0.335433401095213,3.130419839807435,-1.77911371358911,0.35499855321492385,0.17985465758681682
15.531498958,-2.9205195487165296,-0.2993780480178541,3.0741755723873814,-1.3738902027408335,0.3169661351912431,0.18717186134816893
15.731551709,-2.704234260057303,-0.8461507704343092,2.9862056565491675,-0.8504338459230159,0.30718698578347975,0.19460786711311248
15.931558658,-2.2373489003425533,-1.2141941060120247,2.9194223323332604,-0.4613742746921929,0.36329853877991375,0.222113962592443
16.13149702,-1.6466255094966162,-1.3739400491034708,2.9729363764222243,0.05152869929916734,0.4303056938445134,0.22653143209689997
16.331506246,-1.114444683156021,-1.1993699722304285,3.125040847172438,0.5202319397010784,0.4734530770675889,0.2162717687084197
16.531498352,-0.6745540409499989,-0.8006952322980833,3.1690815691133642,0.9629646791288687,0.4619857060250278,0.18236961358150444
16.73150923,-0.3358238923800719,-0.16833025899003468,3.3848376321375038,1.2383696829266477,0.5144902502061635,-0.0023363760165971276
16.931500762,-0.09232420522983797,0.4097599890820451,3.5593846230756463,1.0618331285949945,0.4301584124156748,-0.13131632510869584
17.131514201,0.3823154501600955,1.0274590510593364,3.469053569762412,0.6891025589800641,0.38770775827910503,-0.15181695630728106
17.331499073,1.0022158445334814,1.3870415957868838,3.3596896043160713,0.22793661870714083,0.37385552621486245,-0.15663009048706258
17.531507753,1.6563814211751202,1.3759073081274262,3.1768880569620994,-0.1380159000124324,0.339924259131403,-0.16394611077459106
17.73150594,2.2260807709169574,1.2580011393676362,3.0709365524815806,-0.5490660418618327,0.32618468283603486,-0.1862740471808534
17.931496843,2.623579920119542,0.857853275993396,2.850089098603079,-0.9718165678322215,0.3587377326875885,-0.20830148499827084
18.131499013,2.8236756728863948,0.3491054563497539,2.8422479299325074,-1.3941601142955986,0.4022401409816246,-0.21999241018071897
18.331499301,2.7992386368013102,-0.26137168068310784,2.979689747709775,-1.8673026868394231,0.45318450889480233,-0.21623504005658029
18.531500762,2.4612806917265395,-0.7682079009467202,2.963239026733027,-2.3338388098779133,0.465113507218742,-0.20641070028479883
18.731502513,1.9906971847167632,-1.0499790093825723,2.958767616410204,-2.7985029397439134,0.43459443747438287,-0.20010338654323268
18.931580514,1.3833616315005988,-1.1591054031376522,3.0056167287106454,-3.30154865599912,0.3961232020578188,-0.19880193940424162
19.131499213,0.834154355071186,-0.9588546747832701,2.8977014682430893,-3.6971606048426904,0.37756427094713735,-0.1999425359466961
19.331510046,0.43136838226404367,-0.5332669384398685,2.882101238742617,-4.12366703451108,0.4373603420239771,-0.1656152359428066
19.531563614,0.19111812258945493,0.01607440300127229,3.2606124451564242,-4.330088078482509,0.4961605559297195,0.021782164491678625
19.731543766,-0.10382248699200235,0.5944920049613404,3.3755321997665413,-4.186811294173131,0.35949629401867633,0.14019884214212877
19.931513292,-0.6311887473220855,1.0973143932217273,3.297055614377045,-3.7621934418082215,0.30290413432773305,0.18855362969533848
20.131499528,-1.1678393759938361,1.366465415957394,3.1914025672886703,-3.2600145581191344,0.3836249522756487,0.18370861679156036
20.331499236,-1.815070425449307,1.3443370995370885,3.240626903382649,-2.889770803427741,0.4214190057029161,0.1841541507572498
20.531540038,-2.467954171712771,1.1017385980841738,3.2714577039808086,-2.3999329506192297,0.3884209687196168,0.19734276236370324
20.731556202,-2.7974308235258234,0.5419059352808256,3.2148976776470595,-1.9825714347893737,0.36261333809261204,0.1893368777857577
20.931506401,-2.9792699623270353,-0.033260702030509244,3.1458427574776913,-1.5534234449948388,0.3245755141993124,0.1827487215920849
21.131497454,-2.840701428856429,-0.6204252422650639,3.0448167968999766,-1.1026018674334972,0.30684328602226135,0.19823596530651885
21.331506727,-2.478682516342093,-1.0670185043672944,2.8280851007817365,-0.7190940078203869,0.33005471594041447,0.2236705002473484
21.531497365,-1.9728648829592672,-1.3805385453274626,2.8682910741036625,-0.19099681892733786,0.3935048809705274,0.23490520741825155
21.731498437,-1.4014522370590665,-1.3379962136513466,3.0192510267160273,0.268891189433354,0.4863804843403164,0.2261131248135671
21.931500591,-0.875190623224534,-0.9879071920541423,3.158226724903922,0.7722489875454801,0.4543662332554939,0.20722137332987575
22.131552243,-0.49378973440144724,-0.5105589493895785,3.2514852773791634,1.1720330803735066,0.4896928938298135,0.11261733022329695
22.331497971,-0.21198862177704045,0.15783537322364768,3.4673861724404116,1.1046123661177727,0.5013890082605692,-0.07590222501519006
22.53149851,0.1313327293169474,0.725249642738304,3.594489251005123,0.8867191771856175,0.37989226014655625,-0.14384178647960724
22.731504086,0.7056298540797054,1.2344091459102655,3.520407628848495,0.502680202554461,0.36090070992568457,-0.1665758131601716
