time (sec),x position (m),y position (m),forward velocity (m/s),"heading angle (rad), from x-axis, positive is CCW",throttle (unitless; -1 to 1),steering angle (unitless; -1 to 1)
0.139562327,1.5580792411237578,-1.5090711977287876,0.13940937750802668,2.5119739212907604,0.65,0.04851677737882987
0.179450989,1.5274462077669073,-1.481925380272778,0.3249620949427624,2.5305698763780957,0.518860397915254,0.08881990637476204
0.21953694,1.5420540664140816,-1.4818846982552345,0.5323241753892162,2.5216131411699036,0.65,0.08160494207850644
0.259526366,1.5107199015137636,-1.4544276532100804,0.7460875543670122,2.520609572670435,0.65,0.07888241859209771
0.299439348,1.4628322076890858,-1.4517400937726128,0.9517976352543202,2.530222446171218,0.65,0.056856601881868224
0.339440369,1.4380658424694912,-1.415455635475373,1.1982888217280458,2.5527708896132206,0.65,0.024981807213960264
0.379435731,1.365373876338556,-1.380108082506695,1.3977277178838723,2.57655781955592,0.65,-0.008656370457667779
0.41943985300000003,1.326322481041822,-1.3373584902408033,1.675796360327763,2.575050095570579,0.65,-0.042095311768554744
0.459439737,1.269232345365881,-1.29753363993521,1.8623227138127612,2.5576717993532965,0.65,-0.0684868872382127
0.49943823600000004,1.2091382795392218,-1.2599851159458615,2.0471015959693046,2.5401908231322783,0.65,-0.10248485939419189
0.539440797,1.157273474133889,-1.223058468537692,2.179867434377072,2.5180994418467946,0.65,-0.13375177671035288
0.5794394890000001,1.0812741865785782,-1.1543923397904303,2.4070473681351583,2.4601148984364705,0.65,-0.15959270506322704
0.619462974,0.9971994817334612,-1.0883206720468483,2.5325197451298544,2.418004117222578,0.65,-0.17328162360132307
0.659440021,0.9146590449750955,-1.0038948837864798,2.695348230666213,2.3620494655547914,0.65,-0.19046617024771184
0.6995794900000001,0.8359144231066062,-0.9420562595694784,2.8337934128519997,2.2789554615064542,0.65,-0.20470740906507112
0.739438464,0.7962343758674908,-0.8412967611338306,2.9190779810810428,2.2364234344622913,0.6220783784892512,-0.1995616546287921
0.7794504910000001,0.7247814840553286,-0.7445584590942096,3.0513881676292063,2.1490746296990713,0.5858244941858318,-0.18043329818895965
0.819433201,0.6398033521582752,-0.6079212998082456,3.13864268016922,2.0902828619363736,0.5499449886183813,-0.1583184349591019
0.8594532500000001,0.600630406596108,-0.5142303081875486,3.183357345844812,2.07574579554166,0.5401904065691528,-0.13552496924074495
0.8994601470000001,0.5452592683318342,-0.46048356919415573,3.2415430869290565,2.05122185099041,0.49788929814734795,-0.091327890377043
0.9394347660000001,0.4701221853297254,-0.2523784072581533,3.3731696027886207,2.0318353832469165,0.4719805180873216,-0.04547506420919416
0.9794494290000001,0.401532303683256,-0.17851614150527384,3.4030266200229526,2.0285138712410817,0.48327115018441624,-0.011634216320394873
1.019465961,0.3319237417562884,-0.03662951040283571,3.489457830250068,2.023576857038133,0.500676389052462,0.016860229719441122
1.059457247,0.31671424434688933,0.06722487233674215,3.5244122346050006,2.0361067434874154,0.409874183964964,0.023592484090650404
1.099464852,0.24077509869086755,0.21208743792189214,3.5496208909220166,2.0336809953572486,0.38667499913568837,0.0550496412713894
1.139435286,0.166186132132248,0.3606522037629803,3.580330003261278,2.092418088746494,0.36284197970493615,0.0886351976926812
1.179454628,0.1026192287681719,0.4773003471083067,3.5905163445093793,2.0993941707691253,0.3314048933470493,0.1377471532351924
1.219461779,0.038595021119837994,0.56996651653194,3.5864251671763223,2.1835529091633803,0.31239147780390203,0.15379162115301198
1.259438877,-0.08566531650267295,0.7223033104414012,3.5533432485047447,2.3039998783081064,0.2962352085107245,0.1557988095835525
1.299437587,-0.18145316177724144,0.8322923799652728,3.5415462582544492,2.369541326321158,0.3075177660068641,0.16109174329491316
1.339438381,-0.24502034357533495,0.9168811885928694,3.49891740211778,2.417543029357501,0.2793834431427584,0.16097260217706671
1.3794337,-0.3530209383655495,1.0139543690074058,3.480560915797508,2.5294167563442964,0.26864223582057006,0.16103965544374774
1.419436466,-0.5060003241363309,1.1005141112435533,3.4062085109138236,2.595702148087358,0.27116879616621403,0.1662885432957074
1.459464037,-0.5788919940479721,1.162255059672511,3.392406954897975,2.669447768420947,0.2799613352740133,0.17553953317070328
1.499439168,-0.7029853906101198,1.2223441762741336,3.3502558190557163,2.7667524011477975,0.2758399185970794,0.17799024461418658
1.53946083,-0.7990698911431274,1.2908623630943676,3.2994772203314158,2.8803082512656415,0.2800215623711742,0.1737833183712959
1.5794358160000002,-0.9795432207473883,1.3095780290955126,3.261551729945335,2.958795619309134,0.29494833876368876,0.1826931044041095
1.619448791,-1.063445656192283,1.3377383999976475,3.2307423739013803,3.025885759350413,0.29313785281005994,0.1826363054677466
1.659442609,-1.182228361771374,1.3639430163503912,3.2163663300804597,3.1177395897989433,0.29861745072744306,0.1839836871836573
1.6995311530000001,-1.318515548945113,1.3518206605696628,3.162540230229483,3.197192081864044,0.3068866363924915,0.17889769582019233
1.739515026,-1.4887497083268613,1.3513016472433308,3.148734190647738,3.300940688174617,0.32385221115751,0.18966187862220146
1.779458774,-1.5704209154668998,1.3550626318474084,3.1203553316953285,3.364769397370777,0.31035497863850237,0.190904442349532
1.819486157,-1.69145977670458,1.3035515959894,3.12359540464503,3.4484935020958254,0.3201991353571688,0.19457745356457404
1.859433649,-1.8328979333652786,1.2798758936149341,3.096927831696803,3.5712764456105344,0.32596745364552304,0.19137248937479584
1.899436517,-1.9238232874851684,1.2363298249997339,3.0469875378885543,3.635774374703294,0.33752025550321446,0.19561155463882607
1.939437732,-2.0393662424778896,1.1612238105429085,3.0421170269055526,3.7379981798279127,0.3250613221119025,0.19867830385017646
1.979462184,-2.1475382164124164,1.0969735526047122,3.0257648153902954,3.831951441117024,0.32693159377745556,0.19438141161385264
2.019510577,-2.2492736995888634,1.001385915430575,3.0100533728457273,3.9081425874534528,0.3551031048833722,0.20350505010134218
2.059434361,-2.3071936101344153,0.9387609314413078,2.992784310986583,3.9939527339382637,0.3516913547693027,0.19639193848962513
2.099535384,-2.399344104302291,0.8642018479270708,3.00839694155039,4.082576997399582,0.34436581015548234,0.1993505509567527
2.139561755,-2.463901579936442,0.7595786574040568,2.979954596169481,4.1601698661755435,0.34504185360569833,0.19779023836791385
2.179433908,-2.5397295190357694,0.6289417740508575,2.9952820665787416,4.271198321818388,0.36310618232899666,0.21718455409208876
2.219434639,-2.5977993316160886,0.5142752345935437,2.97322751414816,4.341194084594273,0.35375277736541455,0.21746897681336366
2.25946645,-2.614612610394758,0.44694535306952016,2.985237744143569,4.433812406401587,0.3591795420900169,0.21761569877140316
2.2994365070000002,-2.646188527098693,0.3174649447847864,3.0078428730236273,4.506208780071662,0.37088461315190696,0.21072023104190224
2.339438558,-2.6730430930907554,0.21230661747561252,2.9717731117075292,4.606511552317172,0.37481045235528027,0.20481973456219568
2.379439732,-2.691172698280245,0.06152676249331301,2.9785072557076124,4.717322082829233,0.3671012607938748,0.21438751034910009
2.419465999,-2.688344978858856,-0.038312693819271576,2.967097625086378,4.7838152939961684,0.37631570116891455,0.2177029668060703
2.4595607470000003,-2.679021543339412,-0.13650378854818285,2.984367369725951,4.878474705051535,0.39435674388119907,0.2207856469021598
2.499454782,-2.6673940989504734,-0.28459811724964196,2.9919857091067157,4.978330563702189,0.3798740034994428,0.20840715507134497
2.539434376,-2.6156079331522233,-0.42390218051428336,2.9853734244186296,5.086752600617804,0.37866661411760405,0.21700748169852713
2.579446184,-2.568919143885843,-0.5287630993945489,2.9559784511819402,5.193158829484166,0.3847169964899416,0.21860810387989282
2.619563873,-2.541434166414718,-0.5966551818430277,2.9867637523133337,5.237482948309592,0.38628882372362533,0.21660990158456048
2.6594480799999998,-2.4649997920653344,-0.7037050914103193,2.9675005945629125,5.340810755453257,0.37619159859376655,0.2102235483923135
2.699437479,-2.410334215820719,-0.7964146681827164,2.9749946713805495,5.419870771989431,0.3797464632481576,0.21065417453145405
2.73946928,-2.3256622552217716,-0.9009477285278629,2.997439070440066,5.519975908981183,0.38895380930953455,0.21786290594015786
2.779464302,-2.2590860710877125,-0.9624573979901153,2.984933253948778,5.550198900469177,0.3856181458536808,0.21263453101031302
2.819460904,-2.1445393742042116,-1.0425108012701587,2.9409833699239787,5.676252225379863,0.36897714952645627,0.21497911647054121
2.85943437,-2.0424088622586294,-1.1409909910250904,2.9821302696172003,5.788178433623877,0.36253571324019435,0.21822335755051053
2.8994900660000003,-1.9608493802003444,-1.170214358888619,2.981396681714223,5.837751161549786,0.37863421338787134,0.22967731578938014
2.939438016,-1.8105940523766497,-1.2263934762657267,2.975548988523872,5.95193210153105,0.3639308317113468,0.22175501921337556
2.9794421680000003,-1.7279546340844985,-1.2876332020516632,2.9693786453178346,6.026684575006946,0.34891274931271243,0.2180069630384215
3.019435977,-1.6467161570410112,-1.2786749014306493,2.969749315739074,6.0915031581158,0.3532841410648785,0.2279666500739053
3.059557742,-1.5206406913486186,-1.3028179140521154,2.982409175564581,6.207611359285552,0.3692095270185616,0.2224450695900943
3.099436481,-1.3823485221108416,-1.3264333908857375,2.974850178959838,6.292603488889899,0.34826265702973874,0.22256976386920185
3.139436135,-1.21167346810139,-1.3384954873011947,2.920296646005938,6.414123578091353,0.34908043466554417,0.23338795195450077
3.179549388,-1.1449717827439967,-1.3035139813755485,2.9272261706365064,6.496740372306857,0.3527566494545509,0.2298949071995961
3.219482586,-1.0231713614484421,-1.2810499997460718,2.9032045168026315,6.60859456615937,0.3638099743459285,0.2219981601697544
3.259437301,-0.9039000105254481,-1.2161893136010289,2.910784781200248,6.7146960968278355,0.3584571511803495,0.21549639676291163
3.299452698,-0.7785752098132485,-1.1959303018406127,2.8755500841597947,6.797458261516639,0.3631122506231653,0.22404946207722215
3.3395483710000002,-0.7037394615321924,-1.1342956203879082,2.879774575304582,6.865737312481703,0.37630976268813804,0.21871824576912077
3.379525438,-0.6331578648481015,-1.0798951563139436,2.8981075176108333,6.947303000470377,0.38180025086554226,0.21318700252953615
3.419436053,-0.4981956695431968,-0.986284586998532,2.891527433313664,7.0581770691455334,0.3772576282734209,0.2169254991006367
3.459437662,-0.4443960942326182,-0.9385250438974507,2.8802330840487738,7.1153933455259795,0.38879203358003955,0.2272952721319897
3.499520727,-0.3514026117468777,-0.7993957823205469,2.887356249359676,7.2528979059680845,0.40584408026852287,0.23142210540215835
3.539436298,-0.2690249180090658,-0.7150888652432942,2.907851533827603,7.309428778935381,0.42573317616900436,0.19547017401799027
3.579524367,-0.24762897825572194,-0.6381740824183405,2.963785301578779,7.376449913410622,0.4515800408709006,0.16095364750085087
3.6195116780000003,-0.16302853554035213,-0.5163512474521287,3.0298809666539044,7.441628410064263,0.476402232123926,0.11190297576313535
3.659432278,-0.11178540355537953,-0.4031327740943855,3.113548207487238,7.452876797263974,0.49946024589787674,0.07075969953501474
3.6994334980000003,-0.07028536984468811,-0.2887468461676657,3.1830790830761195,7.497256843022131,0.4830600722165975,0.03589333415383959
3.739458258,-0.033106165588998156,-0.18960859274338765,3.225784059952483,7.4577320251314765,0.4644627909130895,-0.0095519045343069
3.779434419,0.03408174279766614,-0.05843698743407401,3.299978779895817,7.461860603830933,0.4567803122298926,-0.04338539524625221
3.819435379,0.06416337804597086,0.08051666513156584,3.349265365646609,7.4676199139625465,0.42450416442488437,-0.06481279589831335
3.859434906,0.14213354204290904,0.19393272174136927,3.3830039083846555,7.468852229601492,0.4055116245662321,-0.09250729825897633
3.899433655,0.1769791682329954,0.29878206518079287,3.3985539863387126,7.4421306145890345,0.3669805193131438,-0.12062476170651998
3.939452884,0.2171466255215077,0.4077688899400575,3.41823747882283,7.426290764507452,0.3562045538382682,-0.14590586307505699
3.97943578,0.2793710886085603,0.5401796220837416,3.404764761174842,7.354515362102958,0.3219115167418169,-0.16099841515384491
4.019434754,0.36211346082021934,0.6797295558782525,3.4255938833413846,7.301697214222,0.3045064638387236,-0.18344441458186878
4.059460493,0.4266971058960684,0.7764334949176317,3.3931372523753383,7.216665364838131,0.2862253740019387,-0.2020129505616943
4.099507005,0.5262041935697119,0.8775451509428599,3.3467190986721485,7.145107748989137,0.2897954288587525,-0.2142302485236399
4.139434551,0.589683558422951,0.9454572282462493,3.345555048726766,7.098338193120674,0.26293857933326237,-0.21603834625490415
4.17946012,0.6538943304800745,1.0206247309245782,3.2843263401753005,7.00997422252598,0.2549677509188804,-0.2217755673257104
4.219437876,0.8071154291267215,1.1527703370020335,3.2275841356597352,6.8784841240367145,0.26048801587906467,-0.22700046566746557
4.259438368,0.9204121586261561,1.2112732230614751,3.1506427766245126,6.791262963904377,0.2762083624131566,-0.23705053053875477
4.299433938,1.0514923068858388,1.2826028497598811,3.1208676522994465,6.663848352329584,0.27879363532686346,-0.2422034834948569
4.339530429,1.1549055538655757,1.308108413994392,3.1126948466152635,6.598138386671368,0.2829350444818932,-0.23252883545767328
4.379437704,1.2976262260416742,1.3631373014181474,3.0978946403560443,6.508332606090571,0.3132705808024208,-0.23556008023921027
4.419439314,1.394855472286608,1.3860499102516315,3.0684790863294573,6.405562400881892,0.32743613542728467,-0.22876752491862182
4.459435995,1.5057143992621136,1.3950577449310644,3.0337237309818996,6.342384234002644,0.32830361816169656,-0.23897048226251458
4.499459941,1.6235936371619095,1.4076376037105862,3.0268306386617096,6.258812838498215,0.34110430006451953,-0.23695432507659875
4.539461071,1.7445566173817795,1.3735803580099974,3.0358046911779266,6.171359329529466,0.36465851008911476,-0.24127410639845515
4.579437385,1.890653578100458,1.3303434456855978,3.0441772936279334,6.060001558278614,0.3649267741709155,-0.2478258298089242
4.619435639,2.0059110324580263,1.3277993403608261,3.0226775327206767,5.95751889410618,0.37024960746217045,-0.25087939317445546
4.659435624,2.0977897194144477,1.3005712376458176,3.026381447170749,5.90371820267591,0.3766829822703502,-0.25387950471589416
4.699453239,2.1784613102726476,1.268487981970853,3.026754818247719,5.826327081911087,0.38380433849240975,-0.2472080207583298
4.739460911,2.3238503915025,1.1693172789004778,3.0191122443743774,5.727493190083452,0.380524077782501,-0.24715501250987307
4.779433812,2.444448633443844,1.111682656952525,3.024506290140437,5.617819275996092,0.38265870399162605,-0.2542385801872298
4.81943365,2.5285199214813794,1.0166657803923693,3.0242221188947953,5.514088402336929,0.4030997136878069,-0.2624795673186495
4.859434772,2.580293185639953,0.9554981905107945,3.0413437234714453,5.448377215992702,0.3979517651443412,-0.25834414710368586
4.89943326,2.6931604141766536,0.8367187523459405,3.0217683980521914,5.334048801895238,0.38573156896687266,-0.25052086093347437
4.939457604,2.731479401677152,0.7488108411614685,3.032687351259899,5.2850204154962315,0.39353105113173475,-0.2502372704850405
4.97943861,2.7771306098945647,0.691457377209741,3.0352282522926757,5.218402645828712,0.41009838413280114,-0.2570764247291076
5.019463743,2.845345955097101,0.5371966896151689,3.0439649532436532,5.093842021354403,0.3902797405412226,-0.2523530715200417
5.059435133,2.899616397425071,0.43207347763239534,3.0170407912852846,5.015627204295542,0.38700490169065166,-0.2607053226289359
5.099439072,2.9077899055251137,0.3304926083683717,3.0316071043737542,4.925800421694504,0.4002729327294725,-0.267381174969886
5.139585806,2.946024035768564,0.18978879626379253,3.024330555261952,4.810727381236532,0.39575135326423705,-0.2567178162035949
5.17954061,2.9383847224907305,0.06124493206297231,3.0211894741099843,4.716682146831992,0.39548191487760037,-0.2558097894620233
5.219442368,2.936718157970802,-0.05601608327355888,3.0323109079051447,4.628021154354039,0.38959050750190505,-0.26216092550691344
5.259564142,2.899728317283622,-0.16534037416737488,3.0288553335696426,4.537808266597215,0.3994014279040553,-0.2565978778582326
5.299551381,2.893693451883332,-0.29994171834954875,3.019920204567763,4.455638348522914,0.38967354494259526,-0.25279114904769967
5.339450332,2.8626888048037142,-0.399483480136574,3.0048281831016057,4.361126227738612,0.3787827640990532,-0.2536626640184485
5.379439513,2.813600786462134,-0.4794916466890702,3.024445035655893,4.2929481626244215,0.37812280509360263,-0.2564935251062127
5.4194343400000005,2.748996294786144,-0.6486787493145734,3.03047713283783,4.16428272953424,0.39463227254625394,-0.25890028923486497
5.459559748,2.681523986040073,-0.7164505386828742,2.979663044989485,4.089103709934964,0.36978949176274295,-0.255213506026387
5.499441373,2.603853436175947,-0.8400629933738644,2.9826159386739866,3.959146666700786,0.36392931284485375,-0.2638615491919128
5.539434963,2.5251651637007364,-0.9315138080183862,2.9611666158586143,3.8799687881432714,0.36277325872244776,-0.250863800409991
5.5795616290000005,2.43956790603443,-0.9667154515641213,2.9985952883803093,3.79449127801497,0.38645512824749556,-0.25927599021408143
5.619549989,2.3407552910246907,-1.0599760181207152,2.957877091646297,3.6932934020952057,0.3666497657585723,-0.24820399898107778
5.659437233,2.247903758860702,-1.1117395713521465,3.003421758831137,3.6404128654684316,0.36431995118369137,-0.2506726282836601
5.699439936,2.1340261529692763,-1.1614790122282261,3.002390523199168,3.567605610068946,0.3700516240359373,-0.2612236032929263
5.739439959,1.9861264834902657,-1.2116927243385875,2.9954529452678456,3.423870577007434,0.37751925299079486,-0.25861391585083765
5.779435783,1.8843548050113577,-1.2370876442557102,2.9994451791363,3.3326090341287196,0.36166341135755153,-0.26268114131882186
5.819448072,1.7911732827727187,-1.258697726152633,2.9814837922602977,3.259440452524986,0.36388565958773483,-0.26909729064870597
5.859436667,1.6487882019844966,-1.2496045382946277,2.950502653450133,3.1370498855370093,0.3848771501974737,-0.26473395353671203
5.899436788,1.5516764627755344,-1.2545561131930076,2.9803224196495828,3.071949000517255,0.37517199815454716,-0.25933064050077953
5.939433843,1.412450095048434,-1.2401620395664628,2.9682387991079717,2.9348276834713576,0.39248782312597286,-0.2675272418003497
5.979538061,1.2994213551137554,-1.2151710708843073,2.9855059228817016,2.876059590005969,0.409862631442756,-0.2602040739956012
6.019455789,1.2174891115059296,-1.187799319476568,2.9582346318894457,2.7809339653750396,0.4282059549759551,-0.2675188920722479
6.059435312,1.093437894395693,-1.1266075796528998,2.9623795520954888,2.6785291470294643,0.42328771572383245,-0.2559857113838467
6.099433335,0.9604377554662415,-1.0570105863020671,2.9803762215080445,2.5645671647385266,0.4256504862973334,-0.2615664166413681
6.139432785,0.8569944011638191,-0.9895230022802909,2.9672901143240074,2.469372757897477,0.4502950481543029,-0.25949330989875474
6.179432681,0.7723065832766758,-0.9146188118214279,2.96630149930899,2.352239368257831,0.4534936833429069,-0.25329960698395837
6.219449584,0.7082700341733402,-0.8270889924852142,3.0093741261747984,2.2539547281274994,0.4466499215225297,-0.23683017062132322
6.259439143,0.6392799841476446,-0.7671529571397876,3.0180991867096147,2.204113474874747,0.45925291901647575,-0.22734489763400229
6.299503367,0.5673807270794415,-0.6424916740136196,3.055017024171501,2.1224635682594375,0.4702275030178127,-0.21884895895275305
6.339484495,0.5018870819720617,-0.5596260492817056,3.108107827858005,2.0536497297697553,0.4654306132383351,-0.17061048077865731
