time (sec),x position (m),y position (m),forward velocity (m/s),"heading angle (rad), from x-axis, positive is CCW",throttle (unitless; -1 to 1),steering angle (unitless; -1 to 1)
0.134488867,-2.6375261875229943,-1.3519968527732193,0.009217795117485295,-0.806106486442883,0.16334161974754316,0.28066630085817096
0.17447653500000002,-2.6518469167039367,-1.360597500700723,-0.005855850729529475,-0.8164158583645986,0.5305514783311815,0.20271161525813391
0.21447290300000002,-2.6456545907215423,-1.348824107566169,0.024867954806424532,-0.8126209352224665,0.75,0.19043349980226593
0.25447948400000003,-2.658426026188882,-1.37133457401404,0.34230977663395,-0.8167115949779676,0.75,0.18538081219994984
0.294477096,-2.63608801728167,-1.3719289318769492,0.5211989754644468,-0.7959925205977126,0.75,0.1952375995506359
0.33448170600000005,-2.590407831469619,-1.3981059554896234,0.8834816379740643,-0.7737334147271971,0.75,0.22573256703847677
0.37448024500000004,-2.5740675522348018,-1.4142786140008006,1.2351118805856744,-0.7373710772170584,0.75,0.2572801338895506
0.414503685,-2.5216588603218795,-1.4619600806579949,1.5625503300491277,-0.6666896346677024,0.75,0.28471128491675574
0.454479834,-2.4638795044618726,-1.5123279551234898,1.861094279970519,-0.5400641429634214,0.75,0.29966200288466976
0.49447089600000005,-2.3903237855490573,-1.5508868603722414,2.2159467016051884,-0.4209800025657047,0.75,0.3081983630367371
0.534475959,-2.3066932740245063,-1.5699125626867232,2.405175483433658,-0.3536056761619141,0.75,0.30951833012401064
0.5745048930000001,-2.227495261622607,-1.573489121198897,2.6139536586177257,-0.24843468782613648,0.75,0.2845380113596391
0.614477815,-2.0969892143171935,-1.6057529177144554,2.806980395838066,-0.10270934515715589,0.75,0.27209155810259805
0.6544852170000001,-1.9700208296005894,-1.5960997026464583,2.9537503112452823,0.03168893697724252,0.7354108806312248,0.2670674831200184
0.6944801340000001,-1.884206034900068,-1.5925827557614978,3.045927385300747,0.10433391180181552,0.694182908857001,0.25114123092964924
0.7344775880000001,-1.7395699916401124,-1.6085346708418264,3.131607121449386,0.20050427878937227,0.6219008124590443,0.23307188021756728
0.7744660170000001,-1.601466659083986,-1.5655634625033705,3.2041287111414913,0.3119153130462949,0.5681776903341462,0.2118126850991211
0.81452711,-1.4944405707011754,-1.5292770906466335,3.232940308259879,0.37259599957653694,0.5476751870749466,0.21224407733707118
0.85448873,-1.3839024120174037,-1.4850626342340671,3.283592081197459,0.44891454477438675,0.5374857510738248,0.20708682293540154
0.8944919560000001,-1.2749158922130863,-1.4280540855257136,3.309061232078792,0.5541079023018562,0.48363856643504327,0.1977639793442047
0.934475334,-1.1359974933430066,-1.3557742199848979,3.329155573413003,0.6530385459585084,0.4742858512224406,0.20419615762421625
0.974476011,-1.007906712400233,-1.2659956440588322,3.339945586331972,0.7326555162095093,0.4616643865235795,0.20340019711065335
1.014477873,-0.9402634293914051,-1.1989881873324653,3.347045966772119,0.8150063947873102,0.4665580567639896,0.20192070218665253
1.054481277,-0.8500768312045803,-1.1093472134752789,3.3569784602895463,0.9249848409827625,0.4357932304284638,0.18588583444111967
1.094482716,-0.763974980143327,-1.0043888795530296,3.3630535457254664,0.9818275466873408,0.4264451275990039,0.16666506989898824
1.134478233,-0.6813776226407455,-0.8559548348870079,3.380459481778088,1.0749054450598678,0.4334306081350438,0.16081386640487985
1.174484231,-0.6302964279653411,-0.7626017229015093,3.377833344982428,1.1453850504309686,0.4402269409197395,0.12795160339706338
1.2144884,-0.548467231974577,-0.6351094272516862,3.413910454225629,1.1703477142664849,0.4665100613425037,0.07739885060072003
1.254482217,-0.5189510929965865,-0.5060067793528124,3.4512381834882806,1.2115633175253449,0.49450138786071446,0.027017335644107725
1.2944892380000002,-0.4728153353423719,-0.3729292355721845,3.5132716198542893,1.2159827890986348,0.5315790848870885,-0.019235377068343506
1.334479607,-0.40504238732721093,-0.2510696257536145,3.5764098671482456,1.211101100306685,0.49592608536572763,-0.04904925671431717
1.374492245,-0.3479475668494689,-0.1110618408252976,3.617879845976589,1.174570766511522,0.48333663316772146,-0.07903628383463368
1.414503617,-0.31013540222456165,0.01230178160615766,3.6698372692895287,1.1396246571161324,0.46938206113513314,-0.10290470991733247
1.454480097,-0.20059499263373398,0.1395185136700914,3.6841641139456947,1.0716244816329192,0.44225914875850497,-0.12015456880351272
1.49447677,-0.15424694455886126,0.29960096395712355,3.689939995932212,1.0025289055079505,0.4156239754084642,-0.13570927181407494
1.534476425,-0.07801844543141631,0.4042607002804154,3.6902616478490042,0.9246558796953819,0.3940919868329039,-0.145343004410812
1.574473236,0.01097151944676247,0.5331803427987439,3.65973131847932,0.8364533161415977,0.3953311859160165,-0.14975204054996413
1.6145743590000001,0.10208256127992926,0.6386733731626817,3.6370144489897704,0.7631080585211353,0.3761870435025775,-0.14928421196565614
1.6544999790000001,0.2455202656065018,0.7649654234211646,3.6148523946005082,0.6643009424549707,0.3639007400722563,-0.15173090433640865
1.694555597,0.3098317456639372,0.8311675388648967,3.603199466603468,0.5944521360162968,0.36491126672964347,-0.15272107840824675
1.734481636,0.4294701066924518,0.9057260607292945,3.567830586692748,0.5004947344143353,0.38461332201124154,-0.1544008415432576
1.774545781,0.5548681226590021,0.9832808502598323,3.549160433825219,0.44100189111274024,0.36306830594320083,-0.14643040735180354
1.814473422,0.7008679700227719,1.0376037422320612,3.572197243225653,0.3458652084634024,0.3667265328078817,-0.15357530603135947
1.854479548,0.8142201838777505,1.092860493140641,3.5411551936813606,0.25371237177998,0.3766361549955004,-0.15430058732789476
1.894477191,0.9439678265084204,1.1606012551411025,3.501078929942108,0.1765341241027005,0.39887602536156186,-0.15587532661157577
1.934475476,1.0870215298506152,1.1470023882458493,3.519504465496349,0.1045437465750367,0.35570751842304704,-0.1539798587429598
1.9744781640000002,1.2283795287438408,1.203336366659695,3.4836231218470677,0.01794638075256911,0.3567861989628843,-0.15706890316210687
2.014483053,1.3455587909012405,1.1786779012664548,3.451429478050281,-0.0495427762750837,0.366065267686858,-0.16132126075271216
2.054484438,1.498207072912583,1.1711716327340544,3.422577022266206,-0.14761255338175558,0.35384769799186805,-0.16097945432046679
2.09448087,1.6436233251760644,1.1304347496455815,3.4180309916177207,-0.21675105970520883,0.34825684742303503,-0.1650246586386457
2.134491298,1.7690580029138887,1.1101803431403738,3.3577205392045015,-0.31303769795654074,0.3403076405754395,-0.1695753439059257
2.174527899,1.9188288549288461,1.0674153944217661,3.39087973509237,-0.43037492625018653,0.35643085590818163,-0.17386685281641848
2.214490652,2.05545842176447,0.9975287666673553,3.376876091970688,-0.5201053329133651,0.3412970773250793,-0.17253239394858272
2.254475155,2.1070325352693513,0.9648813505177778,3.3096430911978456,-0.5826485045908153,0.34361321735156153,-0.1755263454886406
2.294478608,2.2551050454055592,0.8906179677877186,3.3126168660736277,-0.6604724705630297,0.3435007581236482,-0.17089447870372168
2.334502493,2.372863735285807,0.8104283442779064,3.2624763010594364,-0.7950057593940353,0.35000559002358395,-0.17054544772860006
2.374474862,2.444451548287755,0.7271804548853543,3.264849301178125,-0.8312252669724081,0.35552240474781643,-0.1783249933787391
2.414477089,2.5098088620231165,0.6200932398769342,3.2551334446866322,-0.9453396536040944,0.34791302475755387,-0.17914836700344883
2.454476198,2.607971608270057,0.49482880710564286,3.237465671621168,-1.0626338011084213,0.3691613306255994,-0.17441819114248508
2.494475431,2.661649474162916,0.39440600599733205,3.241817052599896,-1.1185289279162942,0.36958640777727525,-0.17347479403210786
2.5344804930000002,2.7432105701161382,0.30091419937974007,3.218375852581241,-1.1924981798856216,0.3588070446818826,-0.17845752186770644
2.574473416,2.7754471517301966,0.17381877301742227,3.2226884653051746,-1.288282953772421,0.35856929170144275,-0.1757843875448282
2.614572332,2.8162466119321965,0.052392136022061005,3.219428642367209,-1.3827398293821707,0.37373623414180024,-0.18792504849284272
2.654472443,2.82376566159098,-0.0903048887260646,3.176018393776783,-1.4847607714188105,0.3701579572769913,-0.18533415434992323
2.694524122,2.833268190807876,-0.1789245159726468,3.1833407803306533,-1.5580619043752406,0.363190864918389,-0.18870137659900846
2.734484609,2.830402591087756,-0.3496839140434405,3.19589417956746,-1.6524790765154695,0.3678871109656073,-0.19324857454864913
2.774471727,2.8349671447904834,-0.46089670453254833,3.188728994179172,-1.7426698126189535,0.39285213455401996,-0.19581566229637493
2.814568254,2.8017404547343046,-0.6034203614006035,3.1699008582656005,-1.842302181458564,0.3847115107830481,-0.1920947072428453
2.854476359,2.759805415012325,-0.7013891788913155,3.1561916681466937,-1.9458491765748378,0.3731364508932626,-0.19517473756236484
2.894497216,2.703798488547573,-0.8342965113606117,3.1567787204122864,-2.03489058779778,0.3914548612448596,-0.19611063945571736
2.934475543,2.6337732133800458,-0.9759237702492498,3.1386833988601617,-2.1682790555350544,0.41616209685817496,-0.1965493324518438
2.974474083,2.5943547783343477,-1.054721866841434,3.1826016222980527,-2.216865741053274,0.3991972486859094,-0.19060089619686035
3.014478141,2.527184426525755,-1.14711959864213,3.150860043276175,-2.3213026154572387,0.40608693755473285,-0.19013375727063359
3.054490195,2.4186720695915525,-1.2399659803312266,3.1651257168366,-2.3987093587733432,0.4176117321892171,-0.18342985825241784
3.094484249,2.3446256965253007,-1.3158723954266045,3.1657007569079436,-2.469674775532014,0.42168921353919436,-0.19268667916972934
3.134476454,2.23912469753613,-1.4026829739756668,3.159342133124483,-2.572979898727878,0.4215937905233529,-0.1908747459497836
3.174483506,2.118764162017534,-1.445764037900556,3.188004191909348,-2.660010291468443,0.4241998499539785,-0.19146970458963153
3.21448167,1.9980393781951122,-1.526026892496737,3.1982833468940273,-2.7504471038366507,0.441271196917663,-0.19081975456883252
3.254486766,1.89356701457097,-1.580750797209697,3.196684331934535,-2.8428805074413366,0.4264116937652087,-0.189863168881176
3.294491716,1.7836397431490227,-1.589913459402188,3.185983702038434,-2.9359584853049814,0.4185847551541311,-0.18864797272738376
3.334482853,1.6671661903315873,-1.6296775357179727,3.19886136725207,-3.046285271983539,0.4153086854170062,-0.1880254170877194
3.374473608,1.4937063812033284,-1.6200055065105896,3.2202309429776195,-3.131682352076627,0.4336040775109397,-0.18782540232848302
3.414477741,1.4108496184129389,-1.6350992514760359,3.211734397853705,-3.2259697745317357,0.40572814988448586,-0.18485429335361087
3.454478974,1.2769138286694863,-1.6509020470167268,3.2197032400012437,-3.3138969404359244,0.4058119455196664,-0.18516289803931935
3.49457476,1.103220190574559,-1.6030844807172393,3.2163477023651974,-3.421918423427228,0.39925715366790904,-0.1782355519223955
3.534485178,1.0130427815063157,-1.5565899790078055,3.166960383360985,-3.499647659860208,0.27121603249686127,-0.2122665150650214
3.5744777990000003,0.8396890967372604,-1.5253564601945422,3.107408292793843,-3.5948050573621004,0.19495625877092995,-0.23385775410964388
3.614499293,0.7778748633138176,-1.48768562277014,3.0305468955478534,-3.6962605192246945,0.14928890045835014,-0.25438562989718605
3.654480924,0.6663998538523728,-1.426921492801813,2.9320246906573675,-3.8002905727295815,0.16023352799436588,-0.2903575347379314
3.694483289,0.5820103351886212,-1.3596381074925998,2.910878965584365,-3.9094648884064993,0.29903808139657273,-0.22178916323154652
3.7344837980000003,0.5205294751178101,-1.2649263174476801,2.893408174163853,-4.028605954404901,0.3867141268237983,-0.2055411029035935
3.77447438,0.40996342601782493,-1.1657106900606,2.902898937077404,-4.124998614803577,0.47332177174663975,-0.17760378761468223
3.8144774640000003,0.363638355065693,-1.0649598128014444,2.9851854781122955,-4.193282667232593,0.5406561090684036,-0.14924968849569858
3.8544807260000002,0.30355859712312744,-0.9689905656120973,3.077482282295684,-4.244952571740055,0.5436751169967181,-0.13037802995485734
3.89452589,0.2254327421703944,-0.8278572625471521,3.189315347346834,-4.314479434500978,0.5610338890529323,-0.1026793129407892
3.93447218,0.20169511050470904,-0.6990405010212488,3.2779240162587717,-4.3524762981385665,0.5568921576261381,-0.08008466652269086
3.974480534,0.1703697139194565,-0.6095198259771241,3.3436854381229413,-4.3941864210768316,0.5327804889104919,-0.05093835188304051
4.014487037,0.09577610271053708,-0.4664342359168276,3.398874734882741,-4.399061979137884,0.5044780545384316,-0.007249084710952548
4.054492511,0.0770533014241987,-0.3571390077169613,3.494747974173383,-4.409386660869095,0.4890390692707674,0.02793187950830546
4.094567311,0.02478958811378525,-0.22269897317199672,3.5887799073987074,-4.390907836917865,0.49873738533675455,0.05673972834591557
4.134473726,-0.028359931791383526,-0.06455909398175491,3.6392745297348843,-4.36059401061845,0.43542210887290983,0.07710301987867893
4.174478582,-0.08228526063525739,0.041985784900029195,3.674130523407085,-4.339253843125114,0.4044855255000096,0.09913075067080432
4.214476297,-0.13646908250962206,0.17522855080280217,3.720130368006157,-4.298189365114155,0.366170505671729,0.11873537865968277
4.254475971,-0.20277152485064837,0.3119950698506997,3.702551959417379,-4.250863692422782,0.33163618069718764,0.1294998715563072
4.294470695,-0.286786747973634,0.4899581117262146,3.697859135095689,-4.165148455212676,0.2992855308776235,0.1473337272889002
4.334477459,-0.3497776884089423,0.5743114523033921,3.675051304093722,-4.116537067770241,0.2696553921321327,0.16007319717269786
4.374479919,-0.42864898337821683,0.7139537392104125,3.6758505880481165,-4.033839498841165,0.2714110245025904,0.17073988127476497
4.414585229,-0.5150583567419347,0.7955347618311028,3.631541807510877,-3.9685584277244836,0.24951647799555512,0.1645145000588632
4.454482307,-0.6242472658410388,0.9020448378153759,3.5799322091076453,-3.8678138874272032,0.2284200862188771,0.17538715240720887
4.494473327,-0.7458061539299791,1.0009496207010207,3.528639482083401,-3.7680149194067334,0.22721503904056584,0.180535507296915
4.534485463,-0.8342140726017818,1.0781503920963575,3.4957449909985523,-3.68340671481105,0.2371048101189124,0.1844925505261819
4.5744817730000005,-0.9567269704832708,1.1444680398837261,3.4064998193814704,-3.5664075836421967,0.2359298137474454,0.18273602653924784
4.6144752239999995,-1.1074548608001797,1.218490961543707,3.3427314305995615,-3.4683110012706444,0.23763051526546092,0.1819413734522993
4.654479309,-1.203788933892447,1.2691396724558155,3.2623732627090165,-3.353676009040946,0.2548507058707392,0.18060852584424877
4.694532847,-1.3295761359719336,1.28382580224617,3.2616816395697468,-3.2709090282388287,0.29286876492407543,0.1793659817506992
4.734479766,-1.4446977445424678,1.3443541598678868,3.20237244548997,-3.202237689085743,0.2934485500905246,0.17345096732085794
4.774466305,-1.627791840334249,1.3289439795433522,3.1633623813831804,-3.095165168743694,0.3119919824147151,0.17524566406997907
4.814566356,-1.726350334064797,1.3343022846541752,3.1511736188513457,-3.0367293813644642,0.32466883997012563,0.17777752101768288
4.854484836,-1.8314363263760385,1.3170159963032664,3.150299246454673,-2.9290500554294923,0.3418945895700931,0.17620820552221605
4.894562924,-1.9828294888561495,1.2583851628802012,3.1270897359107073,-2.8548359948135604,0.3294842348484676,0.17292086599676973
4.934486891,-2.1116905088670026,1.25322762303849,3.1288969872169115,-2.754321071561342,0.3400296805318508,0.1836945979474165
4.974478178,-2.186186717435508,1.1919420321545326,3.130048100264031,-2.6959252555662307,0.35202294432405196,0.1888582505782683
5.014483055,-2.321870187819552,1.173281297433454,3.139343110757643,-2.5952607862024557,0.34944209164710976,0.19281707610238935
5.054483105,-2.4051998594799,1.0898955902795062,3.1396926895661457,-2.4883306955758813,0.33845036897877306,0.18869148813210046
5.094470898,-2.51263643737744,0.9999262384880903,3.122427160014124,-2.4275939308759757,0.34694057800223665,0.19703102677782386
5.134478905,-2.634924462948116,0.8962486548779407,3.131060632444212,-2.315090492257771,0.3606088593364624,0.19869541811016123
5.174479103,-2.6852826743990015,0.826290055793119,3.117527236254217,-2.2555650980242627,0.3420159669666752,0.19913099507361331
5.214493001,-2.7790399607967924,0.7470429786569694,3.0990272610685414,-2.1556865729957586,0.3452042151506845,0.20142885244721004
5.254475785,-2.826810220846177,0.6396129162233183,3.1067813366696972,-2.044061276628911,0.3573163477406578,0.20385134723561615
5.294487082,-2.8903851356491725,0.5215189641005874,3.0936057621307653,-1.955858428629835,0.3667324641652009,0.19563864546233933
5.3344857900000004,-2.918452584923512,0.37159452711998464,3.0845656403449464,-1.8500253669065891,0.3557263050024185,0.19855286520388457
5.374564225,-2.969292675921821,0.2618555327112939,3.0853993807216735,-1.7840408785437227,0.35023068047535916,0.20036096197738928
5.414564798,-2.9766734407690683,0.1630545814424485,3.1563870901436224,-1.6722835717199702,0.3721401390657408,0.2031861407666053
5.454479682,-3.0063010150702887,0.061995414660876894,3.1189869895731954,-1.5946358182830365,0.3625598597142075,0.20211804287150464
5.49447762,-2.9761788622130165,-0.08523550196990595,3.0833488743448125,-1.4935302760347569,0.3647827636852566,0.2049451781162515
5.53448431,-2.977491403521371,-0.20994482449756166,3.097844444993113,-1.4101812083882566,0.3443216219192289,0.2123633151648511
5.574501199,-2.955627401014035,-0.3168080398867154,3.0593254568397508,-1.3039907581699322,0.3812960898336076,0.21478347449858576
5.614495734,-2.9415753507990456,-0.4471294249674775,3.0752214817143773,-1.2215186928239992,0.3896691622070212,0.21978767196021684
5.654485904,-2.879218718677891,-0.5813560299208514,3.0643969654489522,-1.1160288527615665,0.38276155441623155,0.22117500696252174
5.6944909930000005,-2.8426897648569605,-0.649304245725926,3.051154183683522,-1.0381623301952956,0.4165388698268617,0.22086096232570518
5.734481875,-2.785329592402125,-0.7820451549439524,3.0819166029308276,-0.9478448884113377,0.4208014882801674,0.22251566621284025
5.774461941,-2.668946243148036,-0.8886210462713751,3.0800170629187402,-0.823331535752928,0.42460119912419775,0.2227159513456827
5.814560726,-2.621751353740203,-0.9591305848308327,3.0840766354964497,-0.7508443641783131,0.432174724501424,0.2224435861297148
5.854484617,-2.538548046980473,-1.039398260971074,3.1047542109039115,-0.6552294908250104,0.46168550952018117,0.22183667795924059
5.894468046,-2.398773708842203,-1.1372449495722043,3.117480380053708,-0.5573055334852514,0.4464933480532222,0.21281419674361224
5.934471618,-2.3037180454310313,-1.2002848964750514,3.1280887464793374,-0.4589179970469618,0.45087389506578374,0.2227049020857875
5.974476829,-2.18042398618362,-1.2465328526958972,3.1405987921456164,-0.3657829025878132,0.4690014609512292,0.22557878369271347
6.014499261,-2.0784984559954185,-1.302403038090869,3.157390700886713,-0.3046297029469455,0.4661410784468653,0.2147982729252842
6.054478894,-1.9567397192747389,-1.3183764244000036,3.1983780417582692,-0.2264577381082362,0.4492949357058981,0.21508121496276533
6.094470618,-1.8346726095920218,-1.3776038746846682,3.186164705641227,-0.1341863090875611,0.4521309313624112,0.21394091634752055
6.134472047,-1.7097319380906928,-1.349411751053448,3.2555240162515773,-0.0200348770467994,0.4658140591158492,0.22123035994405085
6.17448879,-1.5788043083338283,-1.3683301427230983,3.2438302710487408,0.07205647936454376,0.4520776736637587,0.21465075394936708
6.214486588,-1.449016342401086,-1.3669397458160006,3.2228830068496674,0.15153357894613073,0.4410037995404764,0.2134124998397826
6.254474166,-1.3249623570755968,-1.3351327710737,3.2241072732521374,0.27064091607265756,0.42911284373848885,0.2118333615724879
