time (sec),x position (m),y position (m),forward velocity (m/s),"heading angle (rad), from x-axis, positive is CCW",throttle (unitless; -1 to 1),steering angle (unitless; -1 to 1)
0.122753708,2.9803636166428036,0.00427160515281011,0.0035268228258512986,-1.5215933940713229,0.75,-0.6689579173414765
0.162764308,2.9599038557353112,0.014943616476175148,0.006705936226959928,-1.5127373189691544,0.42499997468383266,-0.07709241925253292
0.202808185,2.9696613927331303,0.006810091981194682,0.006548601443032532,-1.5188041574104978,0.75,-0.09625918145267073
0.242757774,2.975032631421758,0.00035826405895635505,0.0013813326292133436,-1.5044685083766949,0.75,-0.10277373860289198
0.28274306800000004,2.971485073481208,0.010063436253766921,0.022295615881692953,-1.5232925440317446,0.75,-0.115672664598724
0.322746083,2.9595966777056453,0.027768409221796263,0.17792092688645544,-1.532679336538139,0.75,-0.14543500455068212
0.36274778100000005,2.9756409689055303,-0.03533813563764206,0.46234908914850315,-1.5196391925203492,0.75,-0.17536160995893396
0.402800731,2.976106490407539,-0.047472973008693825,0.7944783248806655,-1.5758102460050833,0.75,-0.20490004405808765
0.44274442300000005,2.962763066227247,-0.07783227043663561,1.1298360551016209,-1.6043678428132835,0.75,-0.22626408503268752
0.482739646,2.9582499048087594,-0.15630545339217278,1.4154910899752104,-1.6987623139500265,0.75,-0.254613949442639
0.5227471890000001,2.9351570270747587,-0.20353985091692825,1.7233036831326116,-1.7611725877384476,0.75,-0.2761513955331446
0.5627489210000001,2.9098031551629884,-0.2631453754009384,2.0028095976147235,-1.8303056814109382,0.75,-0.28965342731605687
0.6027383030000001,2.867995336846108,-0.3331724085511473,2.283051415675617,-1.9525516333440411,0.75,-0.28183117996685647
0.6428034300000001,2.8554660201302466,-0.42647904233078293,2.40709102901207,-2.073586327040103,0.75,-0.27935164147399055
0.6827467580000001,2.7915715541963326,-0.5019687689029849,2.624820980788125,-2.1707880886320035,0.75,-0.2756827511019583
0.7227459770000001,2.7179999216510597,-0.6084593781359023,2.791056655187496,-2.2637884790308807,0.749057740347227,-0.26868066052994183
0.762746942,2.6445244687899616,-0.6851296481467546,2.890547779206368,-2.370750773066181,0.691537321462138,-0.25751383790034676
0.802808913,2.536077839959079,-0.783709536553103,2.9673568523918163,-2.4809857509203903,0.6195423470129026,-0.24716961868337206
0.8427542520000001,2.4530148823374427,-0.816289650279213,3.0200073161878596,-2.5916562727097374,0.5783167628652697,-0.23650784920336085
0.882784992,2.3498596004414987,-0.9076194691028441,3.052531537453171,-2.687468063675052,0.5487190930383583,-0.22474466019640907
0.9227430480000001,2.2329315434203196,-0.965939092099253,3.110889826296939,-2.751384921733338,0.5160950226435082,-0.21660242066915247
0.9627481830000001,2.1181900622933183,-1.0022561954350768,3.103246790857623,-2.8520059974438534,0.48703836387650956,-0.21173385430900898
1.002815778,2.015239575974449,-1.0453735367246533,3.164262351952556,-2.935931891128074,0.4953424937258652,-0.20902502590320132
1.042754011,1.910228233293643,-1.0372939405652482,3.1472586385290473,-3.0292939310990357,0.45302287700696425,-0.2047186146720272
1.082741885,1.74152330889998,-1.046095844094567,3.132839576010905,-3.1079592264235334,0.42483254327592973,-0.205690959472055
1.122793033,1.6189700335268689,-1.0696739313071595,3.119855049481563,-3.2207688370812995,0.40240813970286354,-0.20619452714280478
1.162748402,1.5136499479998586,-1.074705525476434,3.090326242653624,-3.291900469822997,0.4113667931742919,-0.20673420429838438
1.202797987,1.3826127152546541,-1.0238939517339314,3.091770328307576,-3.396670555143505,0.36986766403341564,-0.2029122208129327
1.242753048,1.2711393137995814,-1.0110049701203443,3.0368378798825235,-3.501652938858271,0.35628823615451477,-0.20205158202812162
1.2827927080000001,1.1293908883148307,-0.9733195615455171,3.028465863893435,-3.5766631597442324,0.3564597042279532,-0.20328690270078797
1.3227514390000001,1.0521698698352338,-0.9133435536767254,3.0009501672419012,-3.6847550228910673,0.35604475798170443,-0.2010428768833822
1.362747643,0.9423159826285022,-0.8599439210844391,2.963693866161238,-3.7930079539162023,0.34533100845319686,-0.2034986473715724
1.402808178,0.8592266683147572,-0.7879703863903973,2.914041627949337,-3.871764708968989,0.35110026813371764,-0.20717022869686225
1.442756517,0.7609711330345015,-0.6911321155556389,2.916545098007305,-3.963833742488344,0.37132947689515466,-0.21100561053082736
1.48274111,0.6713035995105731,-0.6279906743485062,2.916116386382824,-4.052841444462366,0.41188837344834933,-0.19380711404991852
1.522753991,0.6093162763488907,-0.5147546142042982,2.975282292443946,-4.134050929586065,0.46045927617993493,-0.1611354285448506
1.562746551,0.546935665481757,-0.4223772672616607,3.0145895721473455,-4.214522582158771,0.4985051493234779,-0.12914082152774853
1.6027893149999999,0.495624099156719,-0.3158913241649593,3.08325156009941,-4.257253346847019,0.5318348645549461,-0.09520001139701986
1.6427509869999999,0.4482679806507779,-0.1922860720474555,3.156128021049235,-4.283206687880956,0.525655250874329,-0.058197072873325185
1.6827451180000002,0.3738648015158517,-0.09216448530971247,3.2442042726458644,-4.30659407538085,0.534001985503949,-0.015838160881218546
1.722751266,0.3493267789374345,0.03747200503858894,3.3294690827910194,-4.289947844462784,0.5463139360763564,0.01962009536316057
1.7627496599999999,0.2764698922215245,0.1672157092975292,3.414483804004251,-4.308380231900721,0.5152534652052557,0.045265036026160076
1.802794312,0.21875697734657476,0.2805993277211729,3.442849257152598,-4.274259330517473,0.4762708284216607,0.0715453038145643
1.84276152,0.15278416522437283,0.4097504019706828,3.4942912472496532,-4.242566823481143,0.4483749880836012,0.0931341267779552
1.882808011,0.08262899283567028,0.5586268907780519,3.549061817182453,-4.206851875418745,0.42806921222404337,0.11088370093860989
1.922740981,0.025020797073001425,0.6678276055595408,3.5956459760996076,-4.190745873519277,0.38030853357170114,0.12925037113395157
1.9627576850000001,-0.07192206117016957,0.7815689660750832,3.5315694657350094,-4.111349910407089,0.3554161199322604,0.14561128531050782
2.002799812,-0.15255163569921082,0.9170878583283104,3.558505048045803,-4.057676813994332,0.33636681681570463,0.15882261881572335
2.04276,-0.24963126216758902,1.0068657779793022,3.5254088801513954,-3.985102303524835,0.3114697205393876,0.16991466051622686
2.082794583,-0.357925061413882,1.1054664297212369,3.527440327350054,-3.9152729324529334,0.3023508105688782,0.1797942953162622
2.122752986,-0.4391394236331574,1.1822448002403678,3.490372374967357,-3.8168593294638717,0.29747551598536354,0.18713470095060084
2.162752416,-0.5476632668983342,1.295586442191371,3.4787233009770766,-3.7228712037331904,0.3090938085530605,0.1919516117018524
2.202741702,-0.6867344592346145,1.3596939096820984,3.41791892496172,-3.6182455633104733,0.30682062887143535,0.19294715774630516
2.242752083,-0.7782490840554616,1.440448611786801,3.3940878855297125,-3.528543133527751,0.31068241835401855,0.1943842255918478
2.282739862,-0.903813255739569,1.4736096977637365,3.3521489023759705,-3.4393146647501953,0.33264793992682523,0.19409350125526859
2.322753711,-1.0273794781101127,1.5204412168909789,3.332638196951654,-3.3541858637487514,0.3677096109987004,0.19560824730182155
2.362753,-1.1673543089983638,1.5405057987628834,3.280577582670677,-3.283199557157734,0.3734058930374662,0.19401363179896366
2.402822492,-1.3166705944673753,1.5712344021796598,3.317759124168695,-3.1789292963410984,0.38935341787399336,0.19509358241670471
2.442763594,-1.4288624034895812,1.5831579760098096,3.3038587903723164,-3.098257892480817,0.40835333757287673,0.19701761991865774
2.482740281,-1.548497659857188,1.5905658619224972,3.305989885212526,-3.022186245388465,0.4338331456328369,0.19494515435718077
2.522748267,-1.6931175876466495,1.564085742729875,3.2712610105030757,-2.928377821094636,0.41560227124107246,0.19834486212571661
2.562747936,-1.8144089841327016,1.5067843202149027,3.303051816251377,-2.845879673462026,0.4199335082999846,0.2011176213390353
2.602738498,-1.9409426404532677,1.4871083919997394,3.2888698468097948,-2.7585867911192645,0.4440914806983493,0.20365723835613245
2.6427488290000003,-2.064143828040657,1.4298386147598152,3.298897683439147,-2.65891341593854,0.44284813527179956,0.19871604124098963
2.682740596,-2.19096276442676,1.3748670747152543,3.31325647252826,-2.5856708374413224,0.4292379160727647,0.19906319964631697
2.722751959,-2.3143365193902827,1.3219158148013286,3.2914777018805372,-2.538269407993527,0.43890059008653215,0.20034437890219786
2.7627478,-2.389822834563452,1.2196795673650964,3.336020967501034,-2.416702607769944,0.4566202127916697,0.20402096109635853
2.802748893,-2.505034526774874,1.1459598199106227,3.32584135208266,-2.3229050153601447,0.44205402211083916,0.20287115930560895
2.842765002,-2.580156889549665,1.075648299258684,3.361176766023763,-2.268718243304182,0.43029750478920564,0.20517516089875362
2.882742371,-2.6855851025884103,0.9509620263397213,3.317934389730303,-2.179912737103452,0.43017413212875766,0.2088688126440296
2.9227456810000003,-2.7528544896185814,0.8433620498578228,3.3752690275113313,-2.060176795458205,0.44731579679419575,0.2102071260894802
2.962841,-2.8162094084994607,0.706558594443029,3.355851392007911,-1.9706188849043382,0.4055799459419786,0.20436196452935965
3.002811757,-2.892300015308422,0.5823336064957112,3.355518808925002,-1.9032900637797583,0.4026503895921776,0.20539834820742708
3.042754051,-2.934370445156455,0.4534194643845323,3.337108067895941,-1.7946402080493384,0.3825932180956195,0.20420119655069732
3.082740507,-2.938912927596631,0.3348948665035625,3.361510894742615,-1.6978951481419695,0.3683454021057812,0.2086619439767009
3.122745715,-2.938137757434638,0.19992127020604156,3.29307716711953,-1.6351235526611598,0.3474363276541787,0.2047896474824699
3.162748955,-2.9716034076331037,0.05903055722921692,3.2665042397237594,-1.5406678456103846,0.35015374358586254,0.2032347239190662
3.202745946,-2.9636252915466668,-0.05447388318421548,3.269091864700524,-1.442221085446764,0.34126739841498677,0.20138247855557262
3.242751216,-2.9496691177188548,-0.20518453989573884,3.2366036332702306,-1.3607460475384394,0.3315979158722735,0.20546035466174958
3.2827424179999998,-2.9309232955766276,-0.32148182016749166,3.1847197815346577,-1.2759731026582677,0.318417809169165,0.20663213964486163
3.322762674,-2.890329605067621,-0.42908823307258626,3.1683538850426225,-1.188215991752715,0.3125551250230177,0.20795008152874664
3.362807944,-2.83848841039404,-0.5393641737073472,3.165074963901493,-1.09659533313946,0.31756361312511056,0.21363956732865047
3.402742145,-2.7834440805681413,-0.6740594802164978,3.112439862340503,-0.9831757998099725,0.30978929053176274,0.21718062519195722
3.442752555,-2.7179729240206605,-0.7882736061984783,3.096680410275085,-0.9078655462073612,0.31366769525277094,0.21975168735339343
3.482738988,-2.6281026192286254,-0.8784273883729733,3.055361117604008,-0.8134369824521309,0.3249181100377531,0.22198247290185852
3.522744997,-2.545179930212061,-0.96062475631711,3.009280340804109,-0.7087648558862225,0.3375617008998835,0.21611625242993648
3.562745093,-2.464600511729345,-1.0382645642053085,3.0279778989873027,-0.6322859963247992,0.33704930724563636,0.22054951244975948
3.602823147,-2.3685125477960054,-1.0913438634145178,3.0069172662771955,-0.5695948611585846,0.35881950564992243,0.22712260976597287
3.642750876,-2.2591779728287413,-1.1787455010370753,3.0286230285401103,-0.46602772978386264,0.3955681257700293,0.233420464296622
3.682819957,-2.15818753791278,-1.2111448680981787,3.006021214464051,-0.36221440351011763,0.39293302180184836,0.23722376950957563
3.722784711,-2.0345450767828086,-1.258580022782944,3.0270584470920427,-0.2967145704450675,0.405813504781011,0.2402526723965196
3.762751446,-1.9358196540525896,-1.3009710503437302,3.032959666373426,-0.19397491974784248,0.42044321080905767,0.24253596058489255
3.8028100680000003,-1.8089588499866005,-1.3238801380096155,3.05499705729897,-0.08211510883416866,0.45074434096673344,0.2364391394647117
3.842753242,-1.704648621078077,-1.3326041316287005,3.064101678516566,0.014581734550579421,0.4358258756650569,0.236426696734357
3.882784174,-1.55273731249786,-1.3363461501424547,3.0995950498375713,0.08978385100780498,0.4472853859831366,0.23700922672705663
3.922749528,-1.441965408890367,-1.3068783248948679,3.1299548770783607,0.18202014994222973,0.4656011288444462,0.2385898837762856
3.96274872,-1.3086661787782572,-1.2718474624533127,3.1495959900601656,0.29057845616379674,0.4672540903416758,0.2392683659086408
4.002814626,-1.2058597833906743,-1.2444045818947032,3.1597393077840836,0.37203540789252004,0.45631890183783935,0.23663837536263208
4.042753557,-1.0779793761307883,-1.1880386919428476,3.1507812305170213,0.47268002700163503,0.4587947591203381,0.23332169274355816
4.082742679,-0.9795358570826234,-1.1239759459736547,3.1936696598475263,0.538201313852196,0.4802336706915516,0.22996061890178782
4.122749585,-0.8617714033416208,-1.0465865270131047,3.2034543484058577,0.6530756394028632,0.45753619959013786,0.22662727513952344
4.162747823,-0.7605215010225564,-0.9763754125684126,3.2023221503572477,0.7340281440015504,0.4600546301528774,0.22453762191743126
4.20282255,-0.6579340181757489,-0.8963743912087117,3.23157495411713,0.8252235501039965,0.4603830533851382,0.22086238896421223
4.242752902,-0.584497693449222,-0.8125332672864238,3.25825207986797,0.9186013459007701,0.4821000569751662,0.2048133996543244
4.282740057,-0.49190295908319726,-0.6976765738639611,3.285123870540718,1.00418656226743,0.5090865773749705,0.16702379313402285
4.322748074,-0.40925940922905035,-0.6014311149094327,3.3631941784763075,1.0685656652983204,0.5358987281266008,0.1279582183595085
4.362749932,-0.35215868124754696,-0.47833492429183666,3.4113135479541072,1.1008986387379107,0.562228311370139,0.089748600367698
4.402811273,-0.2862444544820747,-0.35850735741878836,3.4645246845085675,1.1400807880290165,0.550666046704493,0.04958102961637558
4.442749013,-0.21736321915146434,-0.20828921727597013,3.5256100311192218,1.1281031707341844,0.5519266960491893,0.0073322860304756675
4.482790655,-0.1702631211219575,-0.09009548188560215,3.593912907337648,1.1348224987066386,0.5518797364807384,-0.027409784265379638
4.522749835,-0.09999362931846835,0.029502217282629997,3.6402675445930845,1.090269750746961,0.5315290234574661,-0.04473289234355962
4.5627464710000005,-0.023814831489528482,0.14010101623950696,3.682823001452693,1.0536344947455056,0.492574530859263,-0.06731157452530362
4.60275234,0.04515716276702823,0.2722409725761965,3.7439241899017945,1.0124047132397365,0.46914742127407516,-0.08685551817300928
4.642763075,0.12446102140633103,0.3962978442464341,3.7437681898743795,0.9579354311805582,0.45859141952092586,-0.10253552430342341
4.682745409,0.19698838360221216,0.5329230595234448,3.7329935886065084,0.9096148925713196,0.41699143522281956,-0.11258407928649491
4.722740312,0.30339212006886107,0.6558531705540865,3.7111344048122463,0.8365403252776508,0.3856763067332853,-0.11965934074157401
4.762749803,0.38052505225317745,0.7760320094971421,3.6870207317425154,0.7414162456557429,0.38253609829503127,-0.12489754028077787
4.802825595,0.4860813538965044,0.863217589410907,3.6835064058114693,0.6788132506902371,0.3721464854521578,-0.12618372905939804
4.842763373,0.6034973667945623,0.957198147849655,3.6350470715941645,0.5965692398831655,0.35489135388518406,-0.12962757393978236
4.882799819,0.7546574959327508,1.0500650849848217,3.600675250705712,0.5257482851850982,0.3468469711759461,-0.13155525167921264
4.922745437,0.8507572988126755,1.1219379929698843,3.5650084851253308,0.45786953523110013,0.3506125705970202,-0.13263200478255543
4.962746038,0.9768551095936818,1.183242786997474,3.50453799383358,0.3895902009723811,0.33686732380669376,-0.129279681658824
5.002812135,1.094979990778204,1.2273960707308487,3.475381273445839,0.29854857650819694,0.3253441570142105,-0.13173158648398342
5.042744865,1.2186289286696939,1.291968862384838,3.422484932558919,0.2127084000173353,0.31458642569052214,-0.1344086733415318
5.082739221,1.3719641064696613,1.3022321516053854,3.3623155088693144,0.14249590984084662,0.3247105930163875,-0.13729735260602594
5.122741498,1.506401085715388,1.3549863757073404,3.361106021880313,0.06437438276779196,0.3057145031423094,-0.14383844684885747
5.162736271,1.6289275344783531,1.3294345690674674,3.3026373531404403,-0.002179157902811254,0.2930430238355785,-0.1469862744764934
5.202749641,1.7728695408496964,1.335958358774999,3.2155022747961794,-0.08734649830390583,0.29688015836603066,-0.1510479787329653
5.242751376,1.8937442290504791,1.3247296475044739,3.215871751736121,-0.17655742693744303,0.3043070990605653,-0.15167466427800208
5.282803997,2.009069633241986,1.306580430170008,3.193975662649683,-0.26947002403230824,0.28202700031477157,-0.15756406727913955
5.322769981,2.1504194303370556,1.2780483068435196,3.1377633198657264,-0.35301298099536926,0.29073453119702936,-0.16351439674981036
5.3627470630000005,2.262674843826074,1.2153822078147034,3.0895459091111475,-0.43223686180725934,0.29142239079378124,-0.17137553126139227
5.402774146,2.3763903451391086,1.1688314487340365,3.0483031745208633,-0.5298706888856941,0.3136337338885071,-0.17185781800882213
5.442745513,2.481816698498086,1.1023658775231506,3.0222906309036004,-0.6148742772114412,0.3075713005529831,-0.1789900357347144
5.482800064,2.5582665278764956,1.0333394189408218,3.0178595026879678,-0.7098074025842641,0.3135946516701103,-0.18779021329141138
5.522742052,2.6680734949482727,0.9729823232875614,2.961553330034173,-0.7900938119900512,0.3417911723121416,-0.1958603106659612
5.562745689,2.7302775114556286,0.8725307542787835,2.9526652917762926,-0.889530520137442,0.3685915671272729,-0.19965012132248647
5.602744086,2.818024302888831,0.7907470819555984,2.9303440862248005,-0.959306464307455,0.36406099385185875,-0.20504876968233948
5.642749409,2.882543928029704,0.6974351217638385,2.8808537572645463,-1.0563485844407774,0.3957161877808326,-0.20990128532188224
5.682746241,2.916511031008551,0.5958245806769538,2.9409027802017174,-1.1623177105600366,0.4270589372810678,-0.21434549165586864
5.722742544,2.965680512910956,0.46156581143819886,2.935910002539858,-1.2409662997114965,0.44750160867702726,-0.21710167316039336
5.762742715,3.000678470157104,0.37158235827180225,2.967256201876146,-1.3377060937244551,0.46966972659088163,-0.2175838349000286
5.802746092,3.01502586616086,0.24226436023573303,2.953236417212844,-1.4516275001544527,0.4741882032638738,-0.21672966720571024
5.842745981,3.0386763836468087,0.11944767698849454,2.9697644201807516,-1.5253677316119787,0.5086398266240483,-0.21440491018969815
5.882741616,3.0427473366447524,-0.0007555329101906656,2.9928400512512385,-1.6414088223850065,0.4922582481021561,-0.21097540222004657
5.922744364,3.0394676249354213,-0.10111631723248639,3.011098003386107,-1.7236405769640604,0.5010287414213462,-0.20925013292857167
5.962746038,3.010646244072469,-0.23951435225950646,3.046853283194294,-1.8284077905909661,0.5132460017519233,-0.20967038243331088
6.002778273,2.9606740726961522,-0.35209093208137976,3.0531978417858543,-1.923562932708217,0.5241683791471743,-0.20602428150901425
6.042753766,2.916848447725635,-0.45322528908601417,3.0696088092092353,-1.9831885570101373,0.5095222499875934,-0.20583577986532287
6.082743516,2.884725651624238,-0.5699746943616368,3.1173275651849384,-2.094015377923938,0.50232793821241,-0.20555332486707706
6.122745116,2.83162839460335,-0.6719378751759632,3.109599991532888,-2.1941174360821893,0.5260807400234203,-0.20443487228229634
6.1627464849999996,2.731197422813556,-0.7982079034817876,3.159704148454466,-2.2708394049974974,0.5167801482133136,-0.195752271665541
6.202744217,2.6751176766411064,-0.8581440695056056,3.115732720533993,-2.379950021324932,0.49067234193616555,-0.19509256650406911
6.242746938,2.5699162451660427,-0.9532706965363538,3.1394224973236615,-2.46582613687599,0.4971877664987766,-0.19383223083844522
