time (sec),x position (m),y position (m),forward velocity (m/s),"heading angle (rad), from x-axis, positive is CCW",throttle (unitless; -1 to 1),steering angle (unitless; -1 to 1)
0.128514306,-0.029792159092799704,0.37789026184397206,0.0008818050046337485,1.7069717102801687,0.12002676229218298,0.14323412461067575
0.22855129400000002,-0.0023359481661021954,0.3887294522533432,0.06415850473494737,1.6990091795520188,0.75,0.15542225490295575
0.32851162500000003,0.01706155484860198,0.4541111172686224,0.9308337438187402,1.7077246323354527,0.75,0.1981287396762746
0.42853718500000004,-0.07018229781164342,0.5748603724471325,1.74486590428092,1.8446593620018186,0.75,0.2561183110074609
0.528505275,-0.1171265828458169,0.7506062446498822,2.52428348402345,2.0977673379728596,0.75,0.28162867147999476
0.628512441,-0.32105069430144395,0.9904659610545173,2.9457540250869547,2.369035868527922,0.6031385409059733,0.2551330265093723
0.7285218050000001,-0.5927754017859552,1.1656053771143557,3.0890813482055326,2.61965574443689,0.45275652167049907,0.23152363504508428
0.828511949,-0.7903851358534002,1.3050817159220456,3.1024834302022883,2.837913258226737,0.4203114332359034,0.22586544619323928
0.9285303650000001,-1.112591457478114,1.3834226125568043,3.0882001121866147,3.109416985184742,0.4050531344247476,0.2145415236160644
1.028519091,-1.4309190393917894,1.375160944476469,3.1396324661906756,3.291644543503745,0.40845561055589696,0.21128815298476006
1.128507066,-1.7277446781083616,1.259667098395401,3.1548123316559233,3.550417392648638,0.3961437790845676,0.20988790238942484
1.228515574,-2.0283929708211312,1.1145139216937923,3.1356623685949585,3.7787479161080126,0.36740051503674154,0.20484788228804227
1.328503801,-2.3164706463502047,0.8570244439621727,3.103638562171099,4.037819268288692,0.3698243279764249,0.1983780801527918
1.428507919,-2.420806837111739,0.6342203936999545,3.093356451646506,4.268383878510642,0.368157623758229,0.20499901974433954
1.528495742,-2.5433234748367313,0.3340033861625819,3.064552928843903,4.506659368094675,0.33406352024776054,0.21297068349450526
1.628541651,-2.5681618030157307,0.0731490767063777,3.0511441074100287,4.663057608920077,0.33038372087003665,0.21053333118144585
1.72851068,-2.5657185216264446,-0.24729903686638363,3.0229264262407045,4.925758791005505,0.3529630523155757,0.22258249856070894
1.828520525,-2.484623541396142,-0.47399961927812784,3.033759728643193,5.17608763048626,0.359112127609074,0.2265832896260365
1.9285156200000002,-2.316362269949258,-0.7562570463675696,2.998218943315714,5.39507649325346,0.38755521717318964,0.23534954214348042
2.028524007,-2.1787966179922735,-0.9802439333105187,3.0079599206026333,5.618834676745252,0.43169454724056,0.23320811696448837
2.128511164,-1.8570227875799044,-1.1383222132454367,3.0488616848199634,5.874049040040633,0.43534713864451857,0.23226628354436846
2.228505804,-1.5747501690042394,-1.1981874072672107,3.104543661579964,6.11543809742205,0.4343498405902522,0.21330522753016584
2.32850814,-1.3206104481273673,-1.2802195885038652,3.1288779779577376,6.324695668888912,0.4573720376743429,0.22456091600428932
2.428514184,-0.9800681131132638,-1.1656104894678803,3.1215838789728476,6.562619120721373,0.42393860023269303,0.21557407899545264
2.528516733,-0.6854519607187767,-1.109803653259686,3.169999655178567,6.795050229641217,0.42237559436954925,0.19923792021387798
2.628517336,-0.44714303031871644,-0.9041339027280143,3.14416529258024,7.054933327581442,0.40078976190777077,0.20090260341583271
2.728510855,-0.18016673474694495,-0.6827789930946716,3.183466060381457,7.257606018276716,0.3988400635054977,0.192231884897884
2.828546511,-0.01965073467375552,-0.41747493857264023,3.187780422634505,7.440666927081731,0.41424791428067537,0.13727772595143475
2.92850953,0.061339619337189566,-0.14017977239232565,3.2773428250569165,7.520014325087313,0.48941791698330006,0.006964746220969116
3.028516812,0.18159179896950067,0.16707630259977393,3.3824103513266,7.49586091614009,0.4509348599009298,-0.0874806150951108
3.128522684,0.31915575915831834,0.5094658050061545,3.458068204520719,7.337684499557361,0.40239136180514745,-0.13797088459299545
3.228531988,0.46076258775207907,0.7987779664027304,3.425716347193606,7.170338096222845,0.359296160980066,-0.1625867190503532
3.328521625,0.7123446523147122,1.0618912613921478,3.4111589962291546,6.941190420193158,0.33704614981507447,-0.1718325700389153
3.428509348,0.9791365512446456,1.2419360133720596,3.367160963875741,6.694094444053277,0.34270843646950383,-0.17229644724392826
3.5285004090000003,1.2963172360448898,1.355051099392917,3.2900495220060155,6.496961666265099,0.3676257465007144,-0.17414537598395824
3.628522973,1.6809732649965687,1.4297058440669628,3.2401082227683795,6.230953746336469,0.3544939426064837,-0.16719340965771445
3.728500092,1.9372500968709518,1.3880324747282906,3.2244793501237257,6.04702073076596,0.36710767399678573,-0.175880094953138
3.828502952,2.270608484447547,1.3115638226653668,3.2186174327558517,5.843401113620898,0.37786522963664226,-0.1852920250225757
3.928564561,2.5649742472385424,1.1460252184867599,3.2240299289589203,5.658493363653753,0.3670102119402367,-0.19133085621048326
4.028509862,2.8142331421512448,0.9521121700136141,3.2307172874525287,5.4248529493353885,0.3669793478066225,-0.18740228178207202
4.1285102,2.987964702102575,0.7087577594043765,3.184220674969471,5.209570600613048,0.39969482200117146,-0.19800371126493369
4.228513594,3.0989540483923697,0.36442958399393005,3.2068149035413915,4.984622938232033,0.38506308393878386,-0.1989974640661496
4.3285058880000005,3.1581722461839004,0.07732798337964311,3.1822340462199943,4.740178624356847,0.39217874364351674,-0.19477522149016088
4.428506015,3.1177659915794296,-0.22362452277580944,3.217062632293429,4.507210296151597,0.43588740158084477,-0.19502006123613447
4.528511742,3.035474491855612,-0.571637270250164,3.166276964264604,4.23204210032242,0.43550965770814004,-0.19489419535846966
4.628535667,2.8727589223606675,-0.7882175508867822,3.2841688801775737,4.057998668448343,0.42720331151323476,-0.18848112799238728
4.728509798,2.6482708317747727,-1.06021493191302,3.2971188564521925,3.854230218913511,0.46627277224801494,-0.19173013507719128
4.828508772,2.400916112912377,-1.1909930424348987,3.272831482068281,3.5720238009746508,0.43266515855355264,-0.1849816299602924
4.928515452,2.067558652342259,-1.4070404493980773,3.2830502185737838,3.357851968032155,0.4112342203228483,-0.18076549388453025
5.028575773,1.7429304599602058,-1.412821454353572,3.2761097438770306,3.125645576787586,0.4035590386831126,-0.1780642938121728
5.128515216,1.398460498022472,-1.3930962594083651,3.3000213274609567,2.9178582173064753,0.38536390541784155,-0.17007243984328732
5.2285178,1.057927546248747,-1.345059617687758,3.116135745017422,2.6733701538900863,0.13974274129058334,-0.23024647808412874
5.328509707,0.8458692756205376,-1.1297737962624512,2.934238533364489,2.3875869632757603,0.2579037414199555,-0.22488873199890974
5.428534866,0.6481553249430638,-0.905858020408458,2.9344750785043523,2.181638002185123,0.46286523710236704,-0.15701243146271823
5.528499051,0.501956433293163,-0.6384307947250037,3.1302003239525007,1.9879112865712674,0.48692091565584095,-0.10960048259521364
5.628509113,0.35734238195793255,-0.3989751974221592,3.3243509620864753,1.9182563130578327,0.47013955535935115,-0.03847054438867383
5.7285283830000004,0.2133526687854077,-0.03789226038167097,3.5008723495390286,1.8749708972310437,0.46285598352262225,0.051592877979892586
5.828502402,0.10398498096042548,0.29218486263723026,3.601074865140041,1.9766900109979457,0.3918195867315346,0.11135527441995748
5.928515234,-0.06832635523584785,0.6157936679042098,3.6566698050880744,2.109153921635278,0.3145072151476264,0.14561051015311907
6.028505475,-0.23086172381854028,0.9064917636588756,3.580550755776363,2.299291276921662,0.2759108518274698,0.1736760029018278
6.128504732,-0.5319753834153171,1.1033403848839702,3.4842910879639213,2.538513854290598,0.2553270185537812,0.1831907515242044
6.228505766,-0.8249648445073848,1.3037659491420563,3.348597567701913,2.8079734073195013,0.28183427967849367,0.1774842413149042
6.32850642,-1.1117434339208447,1.4263437173204656,3.2218590440249835,3.0460500823991845,0.32032363191757673,0.16448743985679914
6.428494681,-1.4938912893819103,1.4206761152047727,3.1847924634181273,3.1973504063256915,0.3679902975255773,0.1675130843608535
6.528498475,-1.7832826203785441,1.421473359308816,3.2042564997984746,3.4228604125496362,0.3665380435181836,0.17475554974100238
6.628509677,-2.050568470062058,1.293291021690036,3.183018203581727,3.6017243222562563,0.3439839251896154,0.1740193734042816
6.728508152,-2.3386549258568192,1.1644548546188878,3.181238757641561,3.89361064996028,0.36413024600009647,0.1812777117122889
6.828505742,-2.568338020978508,0.8531690802848311,3.202874858030423,4.065264726277134,0.33039369308607996,0.1900549696713398
6.9285016630000005,-2.689382446996985,0.6089650624473789,3.115631331618925,4.349482285089995,0.3302350286995348,0.1955191054328647
7.028521569,-2.7883063940722317,0.33255869380039543,3.0725051284802927,4.548052632458926,0.3680383146856651,0.194461621716327
7.128509204,-2.841426452866744,0.05676321158147503,3.0598736808831557,4.789442181878763,0.34622043010730724,0.18897815811729246
7.22850944,-2.7810722542326203,-0.27556398546064076,3.0789541057783723,4.957620662983109,0.3697613466117142,0.20725495650410272
7.328505416,-2.630054616725772,-0.5612823329912371,3.065344847903433,5.2382950844574445,0.39022210031146376,0.21503283049542563
7.428521351,-2.4733867505622436,-0.8121708788952479,3.0701731233552,5.483410217630873,0.40135119727821916,0.2168376011304149
7.528547302,-2.2098312585532134,-1.0617745289750498,3.1219540859508577,5.7102287559211735,0.42134362377621987,0.1977471371395367
7.628510087,-1.999351673381201,-1.1531753566413683,3.0861011510414134,5.936031080854113,0.4580351934872706,0.20611920640597858
7.728517511,-1.6827624933600875,-1.2841579726379457,3.2032409338700827,6.1572377949126995,0.4414592511846856,0.21604018331625294
7.828508004,-1.3421962865610673,-1.276329809222298,3.1781504705142396,6.416335673155498,0.4267045491840872,0.2064228373696674
7.928529026,-1.030683010915163,-1.200242023674982,3.187178495408021,6.627823398480444,0.4292378716483631,0.20525363333584104
8.028557337,-0.7628472847230108,-1.043048157844009,3.1827444568578027,6.828946480394436,0.4015609511746382,0.19243655719725286
8.128510888,-0.49947429047806857,-0.8851822905196159,3.1757909775162303,7.074639693753208,0.3924322716799001,0.18078388590266647
8.228506,-0.3428814803152292,-0.6429087970666238,3.153503098544837,7.310369751588632,0.39942750857681164,0.18747952909050208
8.328521655,-0.15576218512637172,-0.3270060393361487,3.2403887173600308,7.515716626428744,0.440760305608665,0.094683160910932
8.428538514,-0.07137082483315665,-0.05867229043677624,3.382436900221154,7.544254248331899,0.4589503268035127,-0.004622633918894786
8.528523909,0.07229457760550097,0.29686280191949793,3.440711083174032,7.499489552436124,0.4591114666618835,-0.09345192929970562
8.628527964,0.1556110006270989,0.5854998944885272,3.4794920563956966,7.403365396239363,0.3670502115115235,-0.14315407163792415
8.728513476,0.4004245328407061,0.9268535379679934,3.551003102362082,7.172085164072935,0.39090388898513545,-0.17448994554272235
8.82851341,0.6222955633370962,1.1515022808633573,3.5050509538039436,7.047175697717224,0.3506073166562477,-0.1850244303432939
8.928524634,0.8322518158968877,1.3712498699324716,3.530275593742562,6.842260461518141,0.3252663961005224,-0.20146055046328554
9.028503575,1.1822727238865585,1.5704400672343586,3.4441236936254622,6.612517848064625,0.36557128800208216,-0.21754255930152197
9.128514997,1.5302884929057876,1.5994445844136933,3.368275391746143,6.418854291560883,0.3476953105173568,-0.2223351497193377
9.22850444,1.8102877564324202,1.6606208288586908,3.2674890179016476,6.1366384833318905,0.3613287587919402,-0.2143140934449347
9.328506728,2.1300710519439554,1.5758888726656164,3.1800708390614085,5.89128193758046,0.39728536159869493,-0.19559282329992103
9.42852113,2.4021879108130526,1.4186600640455744,3.185666015810062,5.6578864305887455,0.43328856377527664,-0.19178023146445822
9.528497738,2.7059927952080067,1.1929516610879676,3.1910440979060724,5.424521495113789,0.4391300750668675,-0.1992722490520126
9.628507923,2.8499000002532244,0.9252824694099167,3.224931714914962,5.226666144887919,0.41804474395157104,-0.1903361048591838
9.728508146,2.9844732464249395,0.6790277551405162,3.2443772412633645,4.991816944545698,0.42460008958604967,-0.2077061906053923
9.828505969,3.020852121015633,0.3720296389179335,3.2371160303755273,4.77213360104645,0.42379435827398326,-0.2073684552302764
9.928510383,3.0295898853858785,0.0018615462228728404,3.237267195640978,4.508251104175425,0.4087594026250652,-0.20014246483009157
10.028506853,2.9421076266031756,-0.312288371246861,3.23291916891726,4.283061994363906,0.42981078818528595,-0.19133923622032156
10.128516611,2.812392140785336,-0.5620106907068076,3.2620131901929885,4.102511489456233,0.4434893035167848,-0.1951103340093998
10.228503288,2.625437820814172,-0.8092646375613233,3.2253472851253595,3.862008706844452,0.4192917129276049,-0.19377358149968374
10.328507513,2.3364167104174776,-1.0140909068126591,3.287780810270827,3.6322677514725767,0.42596857898992196,-0.18070016339654715
10.428511379,1.9958112889364021,-1.144627917240996,3.292044421068689,3.4348549512201956,0.4144762888202935,-0.18680055124666953
10.528521199,1.7094875448124067,-1.1657241963726397,3.3065524347566133,3.217951542922507,0.35891450213701903,-0.18131352107396667
10.628525249,1.3847866061274945,-1.225654529681458,3.232393562105516,2.9771553375658746,0.34845768616815515,-0.17891279475801974
10.728511096,1.0608885201021176,-1.1050093676460218,3.197005424571271,2.7440409982167346,0.33620389748359464,-0.186904997705168
10.828509396,0.7765592185609053,-0.97683290186163,3.0610978973469307,2.5171982028349804,0.3242188228421605,-0.1896560031393285
10.928517643,0.5547845787935594,-0.7076613539179843,3.0876183720562396,2.304732663588967,0.3338800434685189,-0.1841717664687611
11.02851447,0.3578665899961897,-0.4926082351204089,3.0689350226960004,2.066393842391467,0.366855086640826,-0.18113197390235
11.128507137,0.2301405840698797,-0.19624975437165895,3.189298933600903,1.8730726355639307,0.4454369047353921,-0.05516190925262793
11.228524509,0.10343085684506925,0.08303842887217514,3.434269587368951,1.8867420583926824,0.4671204692482531,0.040888976707952884
11.328511071,-0.003419409123287002,0.40995845295245703,3.546690458779306,1.9547515434552178,0.4094939501888716,0.11533955824215522
11.428512678,-0.214883599958555,0.753676981353078,3.578495157453178,2.0914869796229243,0.3132837802108031,0.15245104518342098
11.528503632,-0.37179059514725293,1.0435301281404326,3.5126604826304835,2.325344937581607,0.26726469114913,0.1686455383734457
11.628506832,-0.6734802144746738,1.2920447992812796,3.427651750684777,2.5334169363422148,0.26168893301705126,0.18476359228039818
11.72851697,-0.920549085540689,1.396102294287811,3.336634123953847,2.7594859321846688,0.26772180043668264,0.19178946309904035
11.828497129,-1.251395970643895,1.5421811026150996,3.2119822588564193,3.0389665861375446,0.30762843427902364,0.17422739915785163
11.928507687,-1.508951812294492,1.570589215744245,3.154293567096623,3.2251111941586426,0.3642300901663111,0.16749558726186475
12.028510707,-1.8333250725423877,1.5115413676805312,3.1087113006714433,3.4804592288554668,0.37247383188751226,0.17594868525880486
12.128503956,-2.1246620050476808,1.420033719298204,3.107942531083039,3.6499577370896135,0.3955915600357928,0.17683119756493001
12.228521675,-2.3782362119259735,1.2546265758171293,3.133623704539571,3.854877537528912,0.4024009561373894,0.18739816199931575
12.328513546,-2.58461172290374,1.0351493969438958,3.1607452151035234,4.073698278575763,0.3707485537321418,0.18825011468275543
12.428508614,-2.752455333582295,0.7513597948888256,3.157394068363134,4.323544265892844,0.36073859290126054,0.19696898755249748
12.528500292,-2.8939101298542864,0.44461820421905923,3.118832492134745,4.521985041722124,0.363079316040058,0.1988762593763347
12.628514411,-2.880889328313093,0.1291153095704377,3.114365181169585,4.756452688881352,0.35013323881121666,0.19416890566950876
12.728510463,-2.851488821462931,-0.14927264439937354,3.0581446484447463,5.015996516472941,0.36729843532366657,0.20325355523355704
12.82853626,-2.7371092446874217,-0.42740916491384306,3.1067553256365685,5.236097336781075,0.4073121722028496,0.21051792108697157
12.928522332,-2.5946571097255045,-0.7401063941881695,3.09208070527226,5.459004697418844,0.4092325605517646,0.21086351296385686
13.02851139,-2.315952293928186,-0.9109247756790788,3.107019792685373,5.696184690577049,0.4300120151426173,0.21253778687225353
13.128508695,-2.0511957815036475,-1.0459150241628339,3.0983130916012716,5.932440183608367,0.4637582209208304,0.21259450826714854
13.228504727,-1.747042275218458,-1.1656733865370588,3.1623523675315344,6.166951776331803,0.4382267255392286,0.21115541999949808
13.328533488,-1.4352325093445388,-1.1436661160093708,3.2011940869648057,6.429224229816065,0.42261912811830993,0.20912807445847378
13.428509255,-1.066721966865257,-1.0946419497142938,3.1575375027812456,6.618504359120696,0.4076475700787274,0.19433164894146815
13.528502493,-0.8461135618041947,-1.008170941007934,3.1668492441558596,6.85845732304099,0.4022933738026582,0.19105613868787824
13.628513432,-0.5535133512112691,-0.7548761607058204,3.1550649909163315,7.053762215488893,0.3811966734044007,0.1772676845689495
13.72851291,-0.34463472887220387,-0.5445349039559769,3.175010267862817,7.286905147593683,0.39883233403795415,0.16876988008209368
13.828509737000001,-0.21279737012535332,-0.22040660787931315,3.253164200909487,7.465786581396743,0.4242829996512871,0.09112201380958043
13.928521048,-0.07331961294926613,0.020625757536793212,3.2873572436185614,7.530029833288234,0.4421359547652501,-0.009853153917144843
14.028509863,0.02482532886737806,0.38011593587281606,3.4213078216566215,7.451530309003086,0.432226996441056,-0.08281124270592333
14.128509938,0.1531823442189674,0.6371969632631377,3.5000858292879453,7.353592276164915,0.3992885808548612,-0.1376002663579238
14.22850987,0.37322294459427063,0.9576637064902649,3.4952223774298563,7.145947050945307,0.34902063104703845,-0.16096914219282588
14.328512907,0.6087746933195307,1.1907404141350466,3.418471763832037,6.96799370163129,0.3422133303924577,-0.16695124032997144
14.428522075,0.9109305295659328,1.4135057913569016,3.443520356059482,6.684921766642318,0.3486498042489511,-0.17020632857039383
14.528591721,1.265614312858165,1.5051160561691588,3.3054535481031193,6.435935675363057,0.35338206611398304,-0.17412771048977885
14.628505147,1.5861705867146794,1.571357131698953,3.334030805732651,6.275410044868689,0.3807075241196481,-0.1550128867925298
14.728510059,1.8705015019243731,1.560716864122009,3.301515887147303,6.121270562592024,0.38171753882047144,-0.17468516552479668
14.828506153,2.1532877355749056,1.4642970762547378,3.3114438801851165,5.849627929571589,0.3758436238224884,-0.1833274992204462
14.928510096,2.4829590435305926,1.2661377993824596,3.270219282593246,5.667883185656868,0.3796682500402521,-0.18587745582066514
15.02851758,2.7438231951067933,1.0532770832015015,3.272247311989569,5.36848249106272,0.3839104483198779,-0.19196855767805382
15.128525119,2.934591783165347,0.8032575784723407,3.2659345178900905,5.182300996335377,0.38246024074227797,-0.1945459634331464
15.228508531,3.061558528663596,0.5110485183030943,3.2245197836499804,4.947446659210035,0.3863349851339157,-0.18860744430345297
15.328514051,3.066586762494715,0.20661831361126354,3.2232360635882253,4.711821773270052,0.4100193585740574,-0.1967803181737135
15.428511306,3.073714752825222,-0.1967518466657503,3.2094365090056347,4.5383157483181975,0.40640461797831334,-0.19376341332288124
15.528496227,2.9530252195414732,-0.4803801232980892,3.2099508613325365,4.242112043588642,0.4231452783338802,-0.19797239760821703
