time (sec),x position (m),y position (m),forward velocity (m/s),"heading angle (rad), from x-axis, positive is CCW",throttle (unitless; -1 to 1),steering angle (unitless; -1 to 1)
0.12968695300000002,-0.8640994930753327,-0.8964164580983016,0.0005746812356708892,0.9241121970312386,0.65,-0.2997692247976138
0.229686931,-0.8641547858485048,-0.8962819275909243,0.001653334929919024,0.9241390244989524,0.65,-0.015046569527323158
0.329686187,-0.8539219219865685,-0.8825891524444359,0.37966819470418167,0.9197361826438671,0.65,0.03876371791489318
0.42969132200000004,-0.8141071856867677,-0.828801758800009,0.9007424078733737,0.9364992318537246,0.65,0.09839066354896386
0.529685119,-0.7467690217550826,-0.7281743745404721,1.4525771194921233,1.0168430477146153,0.65,0.12624337697619703
0.6296897410000001,-0.6618587903758701,-0.5769863519361219,1.9620910948994033,1.1326636686009628,0.65,0.07941920108235367
0.729692235,-0.5665156055569419,-0.37448832715535246,2.4699968154313283,1.1805832009031005,0.65,-0.008048228679607378
0.8296884750000001,-0.4563269890999812,-0.12597425313121305,2.89720350131133,1.1564339083226363,0.65,-0.08329916608538704
0.9296858010000001,-0.3185613955092046,0.1526425211480196,3.260114497109606,1.1023002267868767,0.65,-0.12025226261058228
1.029691934,-0.16464142679847482,0.4142594210793488,3.4430093724758093,1.0063333338297757,0.5682185007999923,-0.15727255371497126
1.12969955,0.0460151234614867,0.6927642253736914,3.515924799801991,0.8523845779378297,0.4334747452117904,-0.18636818719364434
1.229689055,0.32768446823630215,0.95769362433615,3.503338908771243,0.6374941004818218,0.34534934453246424,-0.2011697320774693
1.329689994,0.6220261724164765,1.1402203556062847,3.416286182599002,0.42241136156690506,0.31494257809510295,-0.21522624955089362
1.429704305,0.9074204018160175,1.2455489516181872,3.351728150620985,0.21583896115733125,0.29415171042469873,-0.22220585479754767
1.5296900070000001,1.2653636611443455,1.2892576960393516,3.2516642610829405,-0.03004712049667308,0.34001133115659365,-0.2341086163221543
1.629688737,1.5837058862755988,1.249485471890854,3.182893279893736,-0.2621200907019093,0.42255070503482595,-0.2446634690103685
1.729694571,1.881088938678017,1.1373722446966967,3.1854981068625814,-0.500491165771465,0.45740949982634643,-0.25412960154860054
1.829684506,2.1442679824725595,0.9588115444755962,3.1985308184923973,-0.7394929751399927,0.48930522381911573,-0.25536895996647363
1.929693285,2.34001030545048,0.7476624737983781,3.2032715499020337,-0.9522980537954888,0.518750961179734,-0.24690200431764175
2.029688487,2.514684843432797,0.43872271977308835,3.244520674133536,-1.2088365670598709,0.5067520456074476,-0.24319769179537293
2.129685886,2.603043705800073,0.12619855424495274,3.273072826528245,-1.4354296602343337,0.46794236889248664,-0.2352703871429807
2.229693739,2.6186829786365915,-0.19889264832497106,3.259912926170793,-1.6572916416769263,0.4408308282226337,-0.2326070710376982
2.329685951,2.562398207953478,-0.5186296866142317,3.2383466066501603,-1.874886075258456,0.42203970139268976,-0.23515701756965432
2.429689976,2.4370217819309183,-0.8161908509848512,3.2203239905902175,-2.0991457948484618,0.36705545189620253,-0.23423836014212546
2.5297858939999998,2.2505078008616555,-1.0759326334872337,3.190757201599862,-2.3194265360343205,0.35701337818864054,-0.23799375109024704
2.62981538,2.0146509188916695,-1.2861763962260035,3.1466573076206856,-2.532123131554815,0.3341425547174722,-0.24792914271922048
2.729689238,1.7429231542190509,-1.4348139775694224,3.078174286304707,-2.7668473170187924,0.3153467616445909,-0.2631482681447477
2.829804511,1.449988905346554,-1.5133367852220518,3.014824037156795,-3.0141868749398784,0.34823047613948305,-0.2722286303630121
2.929691418,1.1510784497037099,-1.5189818927452403,2.9909467165130725,3.022570590234474,0.4190401811892035,-0.27677642710343314
3.029687476,0.8594273753239704,-1.4525118789635643,3.0126067992922843,2.7761131005848663,0.4754062228503214,-0.27423299755277125
3.129689194,0.5885806185588693,-1.316903531811259,3.0529856246376563,2.5151115538064017,0.5399931465137905,-0.26882359370031633
3.229690549,0.35548550341157753,-1.1160068983756595,3.1025329709194778,2.2362185291183847,0.6029026932895714,-0.2636553239406048
3.329698708,0.17112148848624062,-0.8600924413015864,3.2378536466437504,1.9964892232092046,0.6416474230595035,-0.1497738379034699
3.429768406,0.03131730492860951,-0.5586054195854385,3.461301364084763,1.887131824570198,0.629503029153367,-0.04226405681875026
3.529685932,-0.09051923479683342,-0.22177743665610775,3.6606120584348516,1.9491004897535553,0.5900637662184428,0.055240552414893625
3.629699244,-0.23407366798790688,0.12205788652159716,3.759045098651861,2.0244564718681795,0.433708409436793,0.08826319914019778
3.7296837590000003,-0.41110273706386535,0.45603570848766356,3.788202492683395,2.138236356672896,0.330999144511639,0.11876223800435654
3.829685687,-0.6266594990649866,0.7647071123828375,3.7374923497532055,2.2976818135615686,0.27934973425856585,0.1504138517314249
3.929686175,-0.8550341983646822,1.0046686263319649,3.628778531233596,2.48519020985417,0.21286410596175276,0.17212666532915896
4.029689886,-1.1717270506730006,1.2299188771004508,3.448162273721021,2.736914411251769,0.19317913781138293,0.17811469570367663
4.129686627,-1.4823295922012822,1.3562595933268307,3.2909655435704908,2.9690713100966826,0.22792847644807473,0.18369158926595475
4.22968648,-1.7979714097645774,1.4040458206182784,3.1379424875666375,-3.0903929378609596,0.2455667426631134,0.19282743297905397
4.329689246,-2.103026006483827,1.3754695068772622,3.038281854625114,-2.877007476636383,0.29287770077877895,0.20359363980133421
4.429701085,-2.387429006258422,1.2786083162662296,2.9932359289414214,-2.6691243247878154,0.3707355929310108,0.22207984593023747
4.529739494,-2.642323775855567,1.1215616731745208,3.0010984316340212,-2.4336576457244825,0.3871808347201929,0.2366310632422349
4.629696566,-2.8548838529875495,0.9102601911742295,3.0229287062346644,-2.1960897877659193,0.44283446627023426,0.23490864601890407
4.7296978460000005,-3.013728255530518,0.6530060599541353,3.069170216782342,-1.9440019867560818,0.5216843694976676,0.2434480062538301
4.829687428,-3.110288632927083,0.36153954243997083,3.112661992817758,-1.7140807250655095,0.5297672070061523,0.22300676956404317
4.929784992,-3.1401102064499775,0.048795684254493654,3.171826054148977,-1.4793019159954044,0.5375690831463529,0.21532564908627658
5.029704339,-3.099791221548457,-0.268556748720625,3.243229457209177,-1.2444785619621843,0.5557070114249524,0.20699889636508262
5.129697111,-2.9898883643269554,-0.5739484771240849,3.2753579697246433,-1.0292105237487714,0.546249075215997,0.2043504302144719
5.229697058,-2.8136815125605463,-0.853357219703919,3.315961750998087,-0.810125042995179,0.5018868343133659,0.18845698149592027
5.329704794,-2.58047461149558,-1.089581931834375,3.341940050599809,-0.6179941980298613,0.46661696235550415,0.18773910784125172
5.429685097,-2.3025563525340815,-1.2729130416591479,3.329235380072905,-0.41757887586655623,0.43278424881799094,0.19071133397275666
5.529686511,-1.994164210103639,-1.3932280004870479,3.302729051423734,-0.19946957952072858,0.3817066869443332,0.19373230357568744
5.629708394,-1.6711310891676254,-1.4433706277965093,3.2345067498346465,0.020468193662887456,0.3620239739062767,0.1929908135402412
5.729691526,-1.3513353808389823,-1.4214924998338077,3.1834423442738644,0.24402529330975653,0.34405822546921894,0.19963026330558592
5.8296835940000005,-1.0513546754650356,-1.3302235417131258,3.1096528860901413,0.47972774923507,0.34692873050805206,0.2041202688794873
5.929688905,-0.7852060462205065,-1.1755722105764563,3.0750198953411627,0.7053884134438959,0.3922817231460876,0.20350511404029806
6.029692542,-0.5609822956066787,-0.9650975096187399,3.0847764635571724,0.9188591183216885,0.462796543827569,0.19170631259147894
6.129685264,-0.3791179914443627,-0.7078291033505943,3.221467818631822,1.1020950063554105,0.5814097969249092,0.10195790488459217
6.229688638,-0.22883358239804405,-0.40942436451829706,3.4381619552616494,1.1735499688495872,0.5954394445963602,0.012209781785119441
6.32969809,-0.08163027021608796,-0.08447958553799392,3.6542968191505794,1.1529500138183981,0.5405166520142688,-0.07615113630707526
6.429687876,0.08235607356702854,0.24886657613428123,3.750180215636186,1.0947858848861483,0.43987647950582814,-0.11387979772633317
6.529687341,0.2719962951362713,0.5730084447890038,3.7519207312154674,0.9753592501085299,0.328640427371375,-0.15042824252877668
6.629686005,0.500046849368076,0.8651057536686121,3.664853781226316,0.7952034968242878,0.26708400590513376,-0.18138565943569374
6.729746337,0.7674525775366444,1.1048969888181304,3.53640706234409,0.5851255532166552,0.23118754301065683,-0.19122588495980855
6.829701922,1.0669395888180508,1.2764348663813267,3.4023468616218606,0.36111620700386493,0.22488461430976503,-0.2058223883097773
6.929686018,1.3839600897745188,1.372092885629952,3.272627055398711,0.14400798535404918,0.2746667814966854,-0.2180948808636164
7.029688935,1.7042613257385881,1.3901026815470539,3.1771190525826545,-0.08460554318015827,0.34577209480639104,-0.23784726113196197
7.129686494,2.0127651726725206,1.3330707545597487,3.1283681831915677,-0.3245271384159031,0.39428927322543017,-0.2525132567559897
7.229685666,2.2966733544467166,1.2048265867986392,3.136645530073628,-0.5647353439219214,0.4721497856915731,-0.25181441527107923
7.329745938,2.543003423685392,1.0121756775863258,3.1451651559133174,-0.805829961670258,0.5320838294894544,-0.25221274952885453
7.429777388,2.7420258455264577,0.7653232119450367,3.197433421247035,-1.034428946333711,0.527834910667601,-0.24567695716241708
7.529692619,2.8818279587024094,0.47582853966399924,3.2500752975635203,-1.283639817108939,0.5205997970327834,-0.23929241273080162
7.629762517,2.9517242545465425,0.1602689972463682,3.266447236890983,-1.5280411169568597,0.5270329106151878,-0.2303223470480469
7.72976348,2.9464108007003063,-0.16506626952350534,3.264097314571683,-1.7466498962640964,0.4983610756811861,-0.2181238045332175
7.829688629,2.8681890182518797,-0.48355535074698297,3.2811910816859173,-1.9469233034340858,0.4592617582614409,-0.21943736114392068
7.929688567,2.7225777463852503,-0.7783585578970683,3.2896979421420576,-2.1620871521540743,0.43951569107099037,-0.22464615425044443
8.029709311,2.539705160320006,-1.0101275233415077,3.2816149082981436,-2.3586690404430817,0.379745183532508,-0.22722296357394672
8.129690563,2.2623097967479606,-1.2350569377833636,3.22004650066293,-2.6010491599610344,0.35590179144322864,-0.2374826385287601
8.22969392,1.97401203754277,-1.3749601581554243,3.1904203459557747,-2.826702902538794,0.3710870540391091,-0.23817608437771723
8.329684726,1.6661214093631203,-1.4453905440528294,3.1573830051010354,-3.0496212814629557,0.3569006136681859,-0.24654906734785126
8.42970741,1.3540186200681301,-1.4430536591779226,3.119097563208973,3.0068312691054198,0.3943934098820166,-0.25571947663081646
8.529791301,1.0527878976314196,-1.3691243609856478,3.1167530475210294,2.7675737660409157,0.4653828331482847,-0.25859933739299434
8.629692821999999,0.8020038375141244,-1.2443803590065863,3.127531474528216,2.5403842722689287,0.5198056537924829,-0.2597080556089821
8.729686088,0.5374165128826883,-1.0221207505063594,3.1768215645969295,2.2594762287749512,0.5695888094833234,-0.2245251793244248
8.829687691,0.34565718682329766,-0.7618234288764563,3.2776389155132204,2.0430839316956177,0.6182495562427244,-0.16725588017726412
8.929686002,0.1949815194045676,-0.4562183076613272,3.5358680185548854,1.9531478068777552,0.6043053900722707,-0.04646697826946787
9.029687406,0.05592792007485025,-0.11896833567118723,3.7312099612816265,1.993416469649403,0.5203992094022518,0.03699945844642099
9.129687967,-0.10407363917649394,0.22421739316793238,3.832570816283942,2.062952699560111,0.4418863199559402,0.0793157287266728
9.229685439,-0.29634926413276835,0.5565217510419247,3.8435588284533613,2.169592938558793,0.33005188114129363,0.11445532963737494
9.329785118,-0.5249858170820093,0.8623760192253406,3.7826870865816113,2.32852684631162,0.25351438429109846,0.14787609301081395
9.42974345,-0.7923652963473676,1.121630451649542,3.682035240089875,2.5387947321267292,0.21673286439750175,0.1690807617837832
9.529689233,-1.091831632472701,1.3170137305565635,3.5087051676029444,2.763523983488706,0.19861950977273218,0.17400765989696165
9.629691041000001,-1.4111978593718486,1.4371064754014238,3.345970880631556,2.988755700630921,0.2113352234530659,0.18050489877772635
9.729715281,-1.7019436121259837,1.4780322660797456,3.214166141556376,-3.087686715097813,0.26352678474862545,0.18099716583735764
9.829687687,-2.044285593841066,1.4434388447652848,3.080867378786351,-2.84022528922688,0.28993210450178564,0.19604129943691734
9.929687167,-2.3298500973396377,1.33826322716037,3.0341364601883947,-2.6316502666266075,0.35294608806429234,0.21288722078047703
10.029690618,-2.5828090820133958,1.1708318666165083,3.0518752576751993,-2.411454981673005,0.41951536710855264,0.2205908248756007
10.12969071,-2.794497123547309,0.9499890127968718,3.0802287993857624,-2.181852850140372,0.45470659640626804,0.2290636995228988
10.229692145,-2.95314799651833,0.6851464595253567,3.1176959023928963,-1.9436826685364947,0.4796338021276079,0.22586312541080072
10.329702634,-3.0494337664090305,0.38693275110111836,3.1587038321903296,-1.7155850588298853,0.5179402330903038,0.21353581297344795
10.429699325,-3.079621072273243,0.06820737310322869,3.2318603775873167,-1.4929333760917947,0.5274345223149687,0.21240316591516095
10.529691306,-3.039944901562352,-0.2542941491198789,3.276882751848845,-1.2608366171181014,0.521063088340481,0.210855131759692
10.629703668,-2.9314441655003947,-0.5654111580915084,3.318590148433043,-1.0436732426553423,0.5084830635569911,0.19845164394473228
10.72970613,-2.7577918487092914,-0.8478320988571002,3.3296199364914685,-0.8333513921512682,0.4893036091130501,0.19444995730749648
10.82968566,-2.5274686430418845,-1.086999622137484,3.3213794048748073,-0.6315589703453267,0.4599035479929804,0.1927370829149132
10.929685501,-2.2521878223681187,-1.2725467163676072,3.317242328261028,-0.42966223593237113,0.41733286914063256,0.1890735757451967
11.029801066,-1.946107202447211,-1.3967549994419577,3.299939759717209,-0.22177466548660169,0.37995690400126,0.19695764999056964
11.12969005,-1.6244669955183668,-1.4522350527889418,3.247816640200625,-0.003755218698910233,0.34458438185223195,0.20283361661600058
11.229687957,-1.3049504561433434,-1.4363331833726574,3.183897007330514,0.2234356596564354,0.3289751225092884,0.20484701215005952
11.32968543,-1.003850620843641,-1.3512743972589178,3.101070116146421,0.4558105245002456,0.3508486747293199,0.20960692940630427
11.429687626,-0.7358155678549302,-1.2018053928219707,3.050376443167509,0.6806874778344227,0.3730134644738425,0.21710267540620307
11.529723517,-0.5092549498928511,-0.9969561452646196,3.065319568756299,0.8997706274951209,0.4846011055157307,0.1845986754737288
11.629691132,-0.32038556821028785,-0.7432981489420953,3.2436082887462367,1.0646670047581872,0.5851348854168573,0.11996596538368366
11.729686641,-0.18923671307501305,-0.5092873312147992,3.4420593175450724,1.1228792986213918,0.6198766705967785,0.013800746370394657
11.829684523000001,0.0027797630205984485,-0.12371629265323685,3.7034607916433067,1.1233474926506402,0.5539218866980768,-0.04710030004642136
11.929687018,0.17506456436753168,0.21092227869418723,3.8001998784573945,1.0825351801453396,0.42283872192847205,-0.09739566350112451
12.029690691,0.37049817164737425,0.5373158291232782,3.795913325123463,0.9671917917741519,0.32887215200897385,-0.14476559600191097
12.129687969,0.6034173994968058,0.8332144809083942,3.727855394758778,0.7980530663559434,0.2466756385382959,-0.181253403218967
12.229686262,0.8745110851776489,1.0772015908497872,3.5835963940961357,0.5863882335786756,0.19951529739648946,-0.19077646034738224
12.329690222,1.176051957327968,1.2514092917939341,3.4167495285220304,0.3566532551654489,0.20304718992511864,-0.20128801569335528
12.429708953,1.4941446137132393,1.3469898866604753,3.268022972786253,0.13347218276647524,0.23678986453102696,-0.21752976663048787
12.529688038,1.8120032097240375,1.3630749660297141,3.1379460028441337,-0.09918216788862017,0.31553156844065716,-0.2390629172128801
12.629691734,2.115751710911563,1.3026297733424284,3.087445842070894,-0.34100535454857656,0.41490524168553045,-0.24838163385082637
12.729685756,2.3942435743822177,1.1709701629076406,3.1103265624561356,-0.5811128398633133,0.4690457946832219,-0.2530272792687111
12.829685096,2.6355895033506114,0.9753175003890263,3.1453246596628714,-0.819962534523412,0.5069895626286257,-0.24854290362197712
12.929689218,2.829028129795701,0.726105722817655,3.1826231752958662,-1.0578998200814418,0.5650727255935646,-0.25109924059605393
13.02969217,2.9626520816883346,0.4349409802059643,3.2151968697817366,-1.3103464281227732,0.5262413852300227,-0.23598764309682535
13.129688172,3.0241479626935837,0.11859333537879907,3.241142037375286,-1.5624069273550336,0.5046416676370568,-0.2279599208064146
13.229688926,3.013985380156623,-0.17312527187770382,3.265015754684787,-1.7735608730314443,0.5166878290141239,-0.2113278447803657
13.329690259,2.9193392706422423,-0.5190970598845358,3.2748247836907565,-2.007009423805539,0.47125436528615966,-0.20488134536783265
13.429775804,2.761402183918147,-0.8056838556713888,3.278003654567863,-2.2149082777701823,0.42647126857488504,-0.20576020475708165
13.529756935,2.5446077528333175,-1.0513459876864,3.2900668304349394,-2.4208450988501333,0.42689799589748,-0.21388578946327566
13.629756469,2.2816261823398967,-1.24429496093107,3.267321753152211,-2.6324278771159997,0.3611529686978258,-0.21795240984663095
13.729777825,1.986733321104539,-1.377236029403938,3.2189785309859693,-2.8487202262620226,0.34321276455342,-0.23112433006042848
13.829687753,1.6745331222398174,-1.4412957562474815,3.1670540920585126,-3.073670518213242,0.36171136760015504,-0.23942048973774968
13.929685826,1.3604410558006204,-1.4320144183690948,3.138955623660043,2.972291265186077,0.4005315269063074,-0.25180631718805263
14.02968942,1.0589530628078765,-1.3500124850056479,3.1335384892058595,2.731407590401467,0.4551563242772605,-0.2510640167578269
14.129695554,0.783184545293768,-1.1996869165211181,3.1624091214472916,2.4799344526067197,0.5167735684991696,-0.24308096247256158
14.229701279,0.5482437618863089,-0.9867594414208689,3.187900480789322,2.22071931432535,0.5358561287096001,-0.23242343397289728
14.329685405,0.36676604816972974,-0.721695530917324,3.277851349316784,1.9879708513046337,0.5880400087018539,-0.15137951299617844
14.429691758,0.22867944350424882,-0.41170426156703444,3.4784814240600253,1.9044887648585318,0.6092862692704304,-0.028777146161973178
14.529707943,0.1025293363420826,-0.06967859474101118,3.7302705999070374,1.9591985379941443,0.5390163791574261,0.058132682340700376
14.629685495,-0.04866106959392289,0.2770997344916763,3.813288882470865,2.0453328421040577,0.402160353218117,0.08907925621827487
14.729686015,-0.23538226938788878,0.6106386792733146,3.827353708146808,2.1654807615372285,0.31274165347635013,0.12226732046120393
14.829754515,-0.4599743480535284,0.9159817148909353,3.746348106316648,2.3258712358039517,0.2708428256094993,0.15111569215660936
14.929686696000001,-0.7240601680220298,1.1757988359472977,3.646574975448654,2.5213282113176962,0.22159066082492157,0.16784847300524813
15.029770803,-1.0212213239499464,1.373803013178967,3.5096386743340293,2.748528931930727,0.22859396785764372,0.17491425214446202
15.129686703,-1.3396527564329106,1.4981529822408814,3.3581698261967183,2.960536746838869,0.22444225321091718,0.1845961399531054
15.229691956,-1.6638744701297805,1.546187458776043,3.2335904070714947,-3.101168078697755,0.24649691326482007,0.206641040291791
15.329738717,-1.9790687458545546,1.5199376258002357,3.1410378084368378,-2.88364012412641,0.3055005227240421,0.20846937682024352
15.429689525,-2.2729300520188636,1.4248975955776326,3.079547105360173,-2.6772249152003122,0.33997455186540887,0.22262794346631698
