time (sec),x position (m),y position (m),forward velocity (m/s),"heading angle (rad), from x-axis, positive is CCW",throttle (unitless; -1 to 1),steering angle (unitless; -1 to 1)
0.12548532,0.15785539908682186,0.19996371790912504,0.001176251510627836,1.5416758801198593,0.75,0.4751964944805464
0.22543003700000003,0.15788838616428447,0.22847999081295658,0.6313935557761078,1.5422622361849867,0.75,-0.13305978706988064
0.325433423,0.16225081558069596,0.339844379661264,1.496288445127916,1.5154193635231334,0.75,-0.1798070686338887
0.42546507400000005,0.20062242309502712,0.5248945967007671,2.1899570519222746,1.3258198129308556,0.75,-0.238775101499295
0.525496847,0.2988472370737621,0.7532370387562818,2.70541297663519,1.0762105756678217,0.75,-0.2459532244590719
0.6253968440000001,0.46489675809831504,0.9887153308788579,2.981015992457638,0.8369763206509017,0.6182744079002741,-0.22232236057737914
0.725454432,0.6900202243726204,1.1946154174859203,3.102531016859019,0.6067289584308329,0.5168330258418794,-0.19384263646935937
0.825475841,0.9603651662913791,1.349571377110536,3.1383449076814967,0.3789688650801322,0.485181435567925,-0.18803026606601236
0.925472968,1.259343236673156,1.4402950726235209,3.117312358688751,0.14922873066782294,0.4243110808545343,-0.18214100602496036
1.025490058,1.5696136029226415,1.4608808696093598,3.10485007345816,-0.07333915758627013,0.4091759919752881,-0.1697980261060469
1.1254747090000001,1.873877608042148,1.413066196345984,3.0648474303581694,-0.28782388353691124,0.3699050148573615,-0.1764107586382356
1.2253935550000001,2.1575241136060193,1.301223980018936,3.027869943782282,-0.4984883684188967,0.3453186366627492,-0.18571632595352366
1.325478524,2.404499777161293,1.1313234900337932,2.993964848764434,-0.7302756435879911,0.3590368844439554,-0.20232646251490974
1.42540945,2.60304521201437,0.9125771787501543,2.9427630888756418,-0.9638846074003367,0.3903943702835675,-0.2076955983124835
1.525437577,2.745817388832516,0.6562741620876563,2.941051320478851,-1.1919782667238,0.4156712178809211,-0.21238979515087192
1.625437657,2.825525708097871,0.37318596504518753,2.969815513139209,-1.434510911518275,0.4626246597992301,-0.20754207514254952
1.725478144,2.8373830425359894,0.07645594916926506,2.98291841694874,-1.6692508847619902,0.47565439325138065,-0.2114601205890064
1.825398126,2.780424601752385,-0.21802846742257476,3.0098153669326937,-1.8996817103296917,0.4767044197862835,-0.20884893129386833
1.9255105000000001,2.656965368672001,-0.49489085426554685,3.0615450721951287,-2.1339383541363826,0.4806251948584731,-0.20397442446798592
2.025451918,2.4720097845007243,-0.7378644205353662,3.069423049164076,-2.365815922818957,0.49136174535672333,-0.20083133221098695
2.125444009,2.2342916652537577,-0.9359626364762065,3.1082918046098302,-2.5785291011505374,0.460399550449353,-0.19176446309376427
2.225460629,1.9574031261298124,-1.0805479369151414,3.1339674427991824,-2.793988669995426,0.4354234603828823,-0.19476271305825815
2.325401902,1.6570773329200186,-1.1619260189875162,3.1102074453044692,-3.0265041414047884,0.42510681729274274,-0.1965614615801357
2.425493354,1.3494988541047965,-1.1734483539550808,3.063164226154357,3.0287894610338637,0.38118476894351183,-0.1936911794488485
2.525479591,1.0518397192123892,-1.1154909239964053,3.023022308579504,2.8005063708759312,0.3553273464009504,-0.1905288051104603
2.6253996820000003,0.7809392349447224,-0.9935473552714138,2.9511821924600334,2.5670499818705186,0.37673817860892034,-0.19804835582296967
2.7254495160000003,0.5503789768821464,-0.8151785466830775,2.904639363550544,2.338041599699999,0.36728721279509075,-0.20098968348666893
2.825462973,0.3693568291099295,-0.5896886658833936,2.9210814712266817,2.1185696955894575,0.4463816325016921,-0.16419563527490177
2.92544249,0.22789427709719265,-0.32482620156041525,3.08040312019868,1.9730795800004381,0.5314608192851048,-0.08865775072970733
3.025477003,0.10417050196105453,-0.028791310648947094,3.2873480683379808,1.9362891309925612,0.5194528933284636,0.012389805383131315
3.125396515,-0.026430717187535938,0.2826067598049421,3.428728647898308,1.9654359305200249,0.4371495539959549,0.08100644640515882
3.225359575,-0.1798691615990323,0.5928026073669633,3.490306724084406,2.050789380668872,0.36916001174262214,0.12910062805214786
3.325423537,-0.3659925397141066,0.887272998446697,3.4773045116040646,2.19991969302008,0.3126221102434937,0.16962479143358905
3.425492649,-0.5924807433809135,1.1471028176719347,3.4310104192096795,2.4049750635799803,0.2811513591569872,0.1935073645542437
3.5254833320000003,-0.8587722121485689,1.3533691772653162,3.325551778613969,2.6471920179578796,0.30148341566225495,0.1995333798428926
3.625405664,-1.1558682748906586,1.4918264162037638,3.2579593807629714,2.8865411979167095,0.3313865171353762,0.20148711097366598
3.7254685910000003,-1.4706818813737106,1.5576035882706611,3.1959802226299705,3.110116647474958,0.37974025446220955,0.19835749687012236
3.82540693,-1.7912066201700105,1.5485377010624797,3.2220927789520903,-2.95633352170328,0.42303098310979387,0.1970611376356713
3.9254111490000003,-2.102818200292619,1.467997119160944,3.241617277324834,-2.736145142953082,0.4331222637417994,0.20381667849853788
4.025500063,-2.39038374025631,1.3196233799615331,3.248401973947374,-2.5293960870820604,0.424317433159448,0.20350244315133265
4.12540514,-2.641428798689887,1.1111842600676385,3.2993424206081015,-2.3181736045078742,0.42499640920638376,0.2072067052008706
4.225447282,-2.8436208909840053,0.8537298829613432,3.2780534743147056,-2.0877688539764354,0.4179021759632271,0.20889051065184958
4.325421957,-2.983477463161673,0.5596494215654271,3.268417620278302,-1.8598151935997598,0.38327762030933005,0.20418836649811273
4.425450507,-3.053197323447027,0.24400329669477228,3.2136886400994817,-1.6475784541986171,0.37374465364392123,0.19381247852126363
4.525472431,-3.051992751056243,-0.07769688718117054,3.2218571425999376,-1.421176804632368,0.3463198953878794,0.20284230824905775
4.625398863,-2.983879472610955,-0.38654852400821,3.1415655136638563,-1.194158194259684,0.3204412652551961,0.2098650117523162
4.725398951,-2.8513223510233496,-0.6677177347569441,3.0956719648184765,-0.9733495622640612,0.3183405533345175,0.2122218378298613
4.825471503,-2.661701459232504,-0.906809844488078,3.045654267370911,-0.7385509140201569,0.33346778088477735,0.22362448474157404
4.925477581,-2.425323619416629,-1.0911126095030943,2.9911521490893147,-0.5128059626502788,0.3625021488354424,0.22975892470431492
5.025400658,-2.152886144952304,-1.2154178885815727,3.0224378620688124,-0.28936811790751504,0.40860941774251364,0.23536133923420263
5.125497928,-1.8563890639987146,-1.273896147333903,3.051079123585762,-0.060821389283663714,0.4529908281430926,0.23514324710338302
5.225491277,-1.5486031895940997,-1.2630729738346027,3.123884273202458,0.16933098372918717,0.45712732808287204,0.23565028559098414
5.325382549,-1.2458992915207898,-1.1819717091847406,3.1686687727700886,0.4058107070395745,0.4577463052751977,0.22892724266005518
5.42537979,-0.9663290475035582,-1.0340846921328857,3.1806011347410568,0.6425159566991409,0.45528020021637877,0.22508372180126549
5.525374837,-0.7253517878088891,-0.8256023070401418,3.1998087378526012,0.8669508631871624,0.4477662501230384,0.21435622206305457
5.62545831,-0.5327134395923414,-0.5664240150150412,3.276105162332643,1.0694910694001813,0.5015391804327834,0.14028955923000752
5.725379821,-0.37865617442588023,-0.2676872522895761,3.4400938623163233,1.1469647551700302,0.5385871890661263,0.03778209273729825
5.825463391,-0.2311078300946962,0.05372633215427964,3.607196428990564,1.1201609297405164,0.5358475539594444,-0.05263067228208074
5.925463446,-0.05856147897654053,0.3763450246217273,3.693740029992883,1.0120790005783207,0.45372132069071835,-0.09773641938497497
6.025439493,0.15253928893574703,0.6799385762757354,3.690214925241419,0.8589194067434743,0.4020108447849429,-0.12340291083198708
6.125410197,0.40476837430447205,0.9444718551692249,3.619020379222069,0.6727723438171649,0.3807935616796926,-0.13681154827733732
6.225460338,0.6944904791407834,1.156398722797647,3.556109002060011,0.48053440524617164,0.3532749318742983,-0.13725256502864328
6.325393337,1.0121506647500003,1.305363226398906,3.4684688558977985,0.282615849878985,0.3317799369433623,-0.14241068013522354
6.425400191,1.3424699554377852,1.3847895890963076,3.3546033635336445,0.08585786372456763,0.333635783959783,-0.14561905689830615
6.52544055,1.672348496357267,1.3949938784972418,3.2623189647554267,-0.10557400675203615,0.3067677648693219,-0.15150668569341108
6.62540722,1.987677753702353,1.3389952587830098,3.168687113377162,-0.3056758428321227,0.29706047130890534,-0.1678358195132999
6.725414875,2.2749680570198314,1.2213922249156317,3.074613552902239,-0.5171698062890383,0.3167905234089379,-0.18284529528208027
6.825406987,2.5231225429015667,1.0480360831416213,3.0009166303769157,-0.7341385355531531,0.3279597886376481,-0.1907659931375521
6.92540448,2.7230242694781777,0.8282962798842639,2.9556277414291907,-0.9548333175379904,0.366890908398903,-0.2113149150883293
7.025455502,2.866319417296154,0.5726850632416713,2.9301962232495784,-1.1924616587605574,0.42283647694690024,-0.2197926334202257
7.125404056,2.94439745741787,0.2914825300605084,2.9197331034070313,-1.4439499967034266,0.4458804032941415,-0.2207811898680598
7.225407185,2.954317883530871,-0.0034637366790593164,2.978601568051216,-1.6720288973102806,0.4853347059689306,-0.21292149776750463
7.325405648,2.896214538058222,-0.29751448862212104,3.011864655473164,-1.8951346005191358,0.5029112945670638,-0.21573834717027124
7.425466915,2.772764219171731,-0.5742447473831822,3.0474730641961987,-2.128144925722604,0.48266760412530485,-0.21321642104924246
7.525406448,2.587409221376187,-0.816602855958467,3.0599335169523365,-2.3703689575363978,0.4788768407359455,-0.20639004855162119
7.625403349,2.3493757594429643,-1.0108645271852685,3.0990131870316486,-2.5947812194769484,0.4892149420789937,-0.1968037264255349
7.725403898,2.0716508766406876,-1.1500718594915396,3.1344960483053206,-2.8068699129948196,0.46048491061413294,-0.1922686258916703
7.825397159,1.7702481871151332,-1.227368435834313,3.102483284492249,-3.034461250927924,0.41881341333958,-0.1925559621939151
7.925395628,1.4621268811886494,-1.2352603673603761,3.068814416077376,3.0181556876544255,0.40314449323369456,-0.19163448430840313
8.025396916,1.1639251571351332,-1.1746697920760176,3.018804126190393,2.7938518411049404,0.39126957130151646,-0.1900073003599791
8.125402871,0.8911469204550014,-1.050350774530312,2.9870039349919364,2.57221718701908,0.35752324492083987,-0.19492282807082553
8.225399614,0.6568861174382103,-0.8701438023584726,2.950270320251371,2.351686148881917,0.3735035801016426,-0.19503680150305913
8.32544344,0.47149343616546613,-0.6445880668071368,2.924772995817867,2.1280219049898923,0.407083670383348,-0.19819313257026255
8.425402172,0.33253498225521155,-0.38102691338406636,3.0712605861844406,1.9584252507940423,0.523993875000377,-0.08477241558913487
8.525523025,0.21387363921073632,-0.08492140951001119,3.264654515818448,1.9174059129597743,0.5292974623244464,0.02002704637769674
8.625408892,0.08801879940216129,0.2277959740618434,3.425178064509487,1.9526770253419397,0.4720148979442276,0.08627140316119429
8.725402509,-0.06251118295998905,0.5404372429216374,3.4952608412414,2.0478154774481356,0.38581575988587585,0.13518723397766352
8.825402276,-0.24851820290280216,0.8361996438008777,3.4870099862643507,2.2020320093374592,0.3165891223153153,0.17168406202864697
8.92538891,-0.47604590112679535,1.0962613789482212,3.43647110412751,2.4102970974877427,0.2949447375785057,0.19259853977769326
9.025393825,-0.743593362331537,1.302350705012738,3.3370118866117138,2.65279751013623,0.3090053778722657,0.202320479595598
9.12540685,-1.0426275006619652,1.4401270001620161,3.2783397782167385,2.888414773349072,0.3460181250612717,0.19660092237952764
9.225435139,-1.3602915077084194,1.5047135351630494,3.233304415242699,3.1029819708440822,0.40967350679205905,0.1916993119510595
9.325372983,-1.684646292328509,1.4964984351560382,3.2550227695826583,-2.9777077452673106,0.41949738086168437,0.19955084617138336
9.425398508,-2.0015947488930923,1.4190699653122094,3.288448244062811,-2.767588262458216,0.42223768449602855,0.2070609625515278
9.525398799,-2.2963391986071526,1.275456232957016,3.2927549403288943,-2.5596679069752293,0.42722133586562894,0.20188790692867883
9.625399651,-2.5551394766138853,1.0723989690090923,3.2998526413890645,-2.333154622368949,0.4153409155625488,0.21167721577724807
9.725403225,-2.763530533205845,0.8196228534597042,3.271664421285791,-2.104727102708258,0.39267518746733904,0.20875341205730544
9.825401251,-2.9090594137746435,0.5292386050677691,3.2416617683635764,-1.8702291333098946,0.38535845238138217,0.2046841702517699
9.925395135,-2.982848485242773,0.2163357205957628,3.2047934153318036,-1.6462554093217059,0.3751399757376196,0.2007180402653864
10.025398834,-2.9859096981132636,-0.10198644203994939,3.1830532984482214,-1.424301367718924,0.31765837076011033,0.19907190662535051
10.125417389,-2.9203467289488056,-0.4092513302637973,3.122531367609951,-1.2044196464758081,0.3225749867071513,0.20475420842698802
10.22539757,-2.790750705442795,-0.6886828922536147,3.0580571413915942,-0.9752630365730035,0.3112183174484512,0.21486273862996338
10.325404477,-2.6044805658756287,-0.92619132384318,3.0130875248973004,-0.7479295967350371,0.31793535021642283,0.22275019059122023
10.425461565,-2.3709758984675324,-1.1097020006949316,2.97187504965627,-0.5254766604460035,0.37544882429867427,0.2278049587466031
10.5254035,-2.1014974504048998,-1.2353481836851934,3.00309895732723,-0.30191151339007577,0.4067313543125287,0.2401486949843817
10.625404207,-1.8067530131318297,-1.2962573690946144,3.0397909291487366,-0.06687423961738329,0.43850522905540046,0.23932026825799035
10.725399844,-1.5006526910793483,-1.287662124696016,3.094302494904533,0.17425449138496563,0.46295352798171596,0.24063129085120968
10.825405749,-1.2011904194096708,-1.2070741089549573,3.1240859820160614,0.4143959258246162,0.46281596800978614,0.23283712892459896
10.925427508,-0.9249225503293909,-1.0585220762940564,3.155989880522804,0.6364795826990912,0.4671742877440167,0.22229645950860205
11.02543965,-0.6840548148110683,-0.8501824818807987,3.223104259740511,0.8485643483705277,0.4791363135412785,0.2030920315340801
11.1254008,-0.48727086897237587,-0.5907672829432791,3.2973634804325704,1.0552494335906983,0.5123195418916494,0.15272876747894937
11.225398872,-0.3420816726296002,-0.2906002440841192,3.3783471413598742,1.243783794368742,0.5126445891800743,0.05790444029321032
11.325398491,-0.22373918432000836,0.033869521495565005,3.512490370289877,1.213463296844723,0.5315325009179909,-0.08708969042340589
11.42544735,-0.07492481177514015,0.3557543279495826,3.5911644469020243,1.039373833375771,0.48847041839456395,-0.1326322475579312
11.525409246,0.12425583309988823,0.6527587785133834,3.574342255627653,0.8518103322389468,0.43395478641393886,-0.13480480386528812
11.625478487,0.37078563901683914,0.9070157753350382,3.5237517335309847,0.6619599111095646,0.4040562020044214,-0.1317944351429398
11.725401909,0.6559822706581178,1.109226583619901,3.467400165176495,0.476400698704756,0.39990769193813824,-0.13707895107111392
11.825409997,0.9694912048165847,1.2509959552563825,3.412286778565247,0.2827420033055651,0.3796465425976073,-0.14041368280723673
11.925405204,1.2974440346647924,1.3267885759400813,3.3214421413179602,0.09102677453141689,0.3447884101545309,-0.1417448728701623
12.025396656,1.625892415661195,1.3358416405912161,3.2574351168044493,-0.09948595888671356,0.32915090596388075,-0.15033260587302028
12.125398133,1.9404197362324282,1.2802510422445512,3.1616949396403466,-0.292728130313243,0.3123519010029784,-0.16552098443911747
12.225398359,2.2284255880229975,1.1644010868736507,3.060297095165035,-0.5041621091845105,0.30104283095852824,-0.18234661161143076
12.325409294,2.4765657379864057,0.9932973361338416,2.983540563122529,-0.7314180280515029,0.3313982544057062,-0.19837210969241564
12.425440295,2.6740576667280935,0.7757757043169803,2.9149803935781375,-0.9604493671695632,0.3673957450742271,-0.20822036908711855
12.525401438,2.813864880750519,0.5222151215010283,2.9079440372787633,-1.2018196643399994,0.41227199649151436,-0.21816602460488135
12.625430617,2.8883632841710973,0.24313343378497404,2.9049946912225764,-1.4468765891441828,0.4567863607818323,-0.20692499634311065
12.725398644,2.89572704211171,-0.04927535622155671,2.9526610158766955,-1.6712271626433468,0.4796795748215979,-0.2107602168323189
12.825414832,2.83578225571004,-0.34012862128617904,2.9786106738170983,-1.902013425986256,0.4830308457681189,-0.21309446807557142
12.925398363,2.710450284026356,-0.6130725362166344,3.030973814107606,-2.1375944849583575,0.47890692998446965,-0.2016485549643745
13.025402947,2.52383864666966,-0.8525585209627726,3.0629312417637493,-2.3655531970829555,0.4948740724317159,-0.20350626261175256
13.125460396,2.2850704430469704,-1.0474579028140671,3.113131435528599,-2.5810605004081792,0.4684251251581038,-0.19799037649728954
13.225401289,2.0079871371789983,-1.1898401655483646,3.120511662068399,-2.7927365630517014,0.44279560687651937,-0.1984562537031202
13.325401756,1.7081659980049817,-1.2690920964454269,3.094986661603199,-3.0246650915988162,0.4266882327934618,-0.20058323833658803
13.425399524,1.4022697799128885,-1.2781350395950917,3.0644503569408807,3.021356391039478,0.39439775397259025,-0.19702098082396274
13.525445711,1.107560799857348,-1.217400235494504,2.999361818569451,2.7892492024136066,0.3786390188551217,-0.19318880897517282
13.625394062,0.8392956808522096,-1.0924449657375375,2.9473548996309322,2.559822945740375,0.39484409051793357,-0.19452735104146357
13.72542756,0.6113290510735321,-0.9111913152414409,2.9109673631991035,2.333079010650783,0.38287085699858403,-0.19908858187269396
13.825404911,0.43083656402571924,-0.6837163989296907,2.935190823570002,2.124133041273602,0.4630856229709327,-0.16265511558304657
13.92540152,0.2871949885647759,-0.41817504378880643,3.1070221984842217,1.988494882613327,0.5198177074018003,-0.09009236668720892
14.025398885,0.16034344789865798,-0.12297817462281688,3.2974679029964995,1.9469137758125064,0.5311252704560034,0.010760076943981785
14.125411697,0.027113670477941564,0.18894520126905281,3.4574454655857654,1.973442416952066,0.4520889875983377,0.07698325717587867
14.22544408,-0.12865004704545113,0.500732703190703,3.5081666803264047,2.0604697986740637,0.37695282356914306,0.12402175537414352
14.325403422,-0.3169775947904816,0.7965295891665974,3.5056635958336897,2.204699587672876,0.3291953730132859,0.16512202885950844
14.425438979,-0.5449172266582304,1.0581344027877992,3.4475180736519175,2.401764084335334,0.28603919756533963,0.1901708973598132
14.525405756,-0.8133468152415642,1.266651918565105,3.3683640945616236,2.642008454042571,0.30262396255114016,0.20038743914333157
14.625407899,-1.112477560875798,1.40707841195591,3.2834492387438896,2.8812983493391564,0.3367854112552176,0.20211383463213567
14.725435793,-1.4290650593269545,1.473468517491187,3.224636900825026,3.096254959779648,0.3728892333755929,0.1939436703225361
14.82540103,-1.7513725348626201,1.4666788525618635,3.2275999983464407,-2.9813918684295984,0.41145381404722886,0.19919277523003495
14.925403411,-2.0655680012646678,1.3894775049598962,3.2466349128437395,-2.7628163200927327,0.42585630983236733,0.2091102761287741
15.0254371,-2.357336955063683,1.2460514163399297,3.2654817503640654,-2.552205975351642,0.4114400482388166,0.20900921124042793
15.125404463,-2.6117172400825592,1.042666452551477,3.2625060145316938,-2.3243634097847568,0.4165175158164003,0.2086849130691828
15.225402754,-2.815539341719975,0.7898607612686819,3.262126968202991,-2.0935202291905584,0.40697234282445127,0.2102376429395991
15.325398953,-2.956692567519946,0.49941495898519633,3.2481488250960333,-1.8745962712759345,0.3824091857519491,0.2042912792857908
15.425429068,-3.029329085812042,0.18707246954270096,3.2107962643803787,-1.666370140654212,0.36736572136012074,0.20520618254677156
