time (sec),x position (m),y position (m),forward velocity (m/s),"heading angle (rad), from x-axis, positive is CCW",throttle (unitless; -1 to 1),steering angle (unitless; -1 to 1)
0.134903104,-0.821173988000311,1.6537097314637599,0.0017218842467492603,2.461933391985167,0.75,0.5509403372453416
0.23490801100000003,-0.8224538986910742,1.6546632114981825,0.10519017596769377,2.4639529994735727,0.75,0.21435571654154686
0.33486474,-0.8659744061985698,1.6820044783720323,0.8871208937863513,2.511053408043569,0.75,0.2546083664104452
0.434862911,-1.0070817491395299,1.7475380267017862,1.8317245967909055,2.7380617844810176,0.75,0.3035233192406682
0.5348077010000001,-1.1963639853224657,1.7912721673989378,2.382834181254912,3.0093682559479946,0.75,0.31463709312272603
0.63483142,-1.4601195692259685,1.788301240913646,2.8123251025523173,-2.960525390231995,0.6503625064510508,0.2930295111107131
0.734893686,-1.740051695097735,1.7103283799975313,2.9572492331432345,-2.6865240374995407,0.5134671883394948,0.25398451270470496
0.8349130060000001,-1.9960284743076806,1.5583571692046847,3.009354532735357,-2.4475310806031345,0.4575737462530309,0.22784530913462767
0.9348113050000001,-2.2088627345115692,1.345014735426559,3.0218652351496305,-2.21140639821033,0.4202070254337693,0.21646344277995602
1.034828973,-2.366464664681459,1.086292249020443,3.04431984651002,-1.9756898413918969,0.39496728812405935,0.20518018229623913
1.134818931,-2.4596469781526724,0.7962130907043921,3.0655231687171276,-1.735291977311803,0.36815799832026963,0.2027521613347981
1.234908062,-2.481928196445273,0.49315781625288607,3.039073509619052,-1.4938211159973094,0.3431560041537613,0.1969627856190319
1.33480851,-2.432725583396424,0.1946972507038935,3.01146708226748,-1.2730330906582223,0.3154594804568801,0.1893271449529164
1.434806183,-2.3178438891649997,-0.08142472270782546,2.98701919447946,-1.045325287055506,0.3190723637963942,0.19250590933732598
1.534826929,-2.14496372817776,-0.32137398821825675,2.9490989767124987,-0.813085947712133,0.31332728223695605,0.1926951245679773
1.634824752,-1.9238205831899426,-0.5128481982074061,2.9100177381759833,-0.5755741209714651,0.3040628023448581,0.20268713330874558
1.7348194860000001,-1.6666665115791586,-0.6451472355296336,2.888801971655655,-0.3373514368104254,0.3120192188028453,0.20123865109845152
1.8348090240000001,-1.3875040345677658,-0.7113673031152697,2.8696047971781256,-0.0948298994092679,0.3320283205884491,0.20410828104725898
1.934830615,-1.1014815524736448,-0.7089010387477319,2.8655829721117962,0.1286428095764209,0.32048979831822577,0.19451514409132822
2.034815843,-0.8239713347148487,-0.6410415528750828,2.8753872437598123,0.35137688118157184,0.3203023383104089,0.19525481929929883
2.134813516,-0.5674644271667839,-0.5121422562591582,2.8679525763006573,0.5841183510898736,0.31933664958935626,0.20672764893276932
2.234811072,-0.3286884495315787,-0.3078088175813699,2.8487303909133597,0.8472689873038665,0.2944429013029158,0.20822913007755192
2.334809851,-0.1780488518608267,-0.10133662000496453,2.8420801065645245,1.055321042660353,0.317243642287131,0.18124536341683517
2.434839431,-0.05113478749987209,0.18473598464585114,2.8707965090759062,1.256829602962171,0.3381352748584386,0.12474735877233153
2.534808106,0.020847434037960848,0.4351707135699501,2.934259234562891,1.3076244492287674,0.3413171930531773,-0.015901639695389318
2.634809478,0.10250553518757652,0.722139373244859,3.030308249627241,1.264146901454478,0.3370974469892501,-0.10339879176491389
2.734817948,0.2130672370394339,1.0036100883468488,3.026448372398,1.1231441081156694,0.3246080679505431,-0.17690815215936043
2.834912929,0.3876939082197962,1.2862507517279809,3.0134235484310405,0.8983480854325996,0.30876997240587184,-0.2069695489720736
2.934809174,0.5746255684323464,1.4801953614726855,2.984333099447367,0.6847448559438926,0.33673390129791325,-0.21365430044858605
3.034814377,0.8224996613451425,1.6423414040507922,2.9678401928544416,0.4415314758005186,0.37620746783815173,-0.21650288988415087
3.134808602,1.1025013877085048,1.7406999358876325,2.9908630027904772,0.20687600243250398,0.39500172725959726,-0.2062744088168298
3.234810023,1.401321114891658,1.7722634006166433,3.033091933869114,-0.01939534243312366,0.4011852439114082,-0.19745288253902205
3.334811094,1.703724944780319,1.7364817665355994,3.064236259757071,-0.2344125636616065,0.4191545242487904,-0.19312434276008233
3.434840658,1.9953113316837439,1.6362082037315397,3.0955382150106425,-0.44649364102931394,0.3862890187805092,-0.1915032405810072
3.534862383,2.2620045681082304,1.4758783283913266,3.120893217674688,-0.660783501972036,0.35629503829251824,-0.1850837102172618
3.634807994,2.4895354011314654,1.262045700561579,3.1438550293225496,-0.875544212024037,0.35215631669516256,-0.1888601395380592
3.734810488,2.6654421685933056,1.0053463546694756,3.1021111565841792,-1.0942172695360617,0.3428845765370216,-0.19559911093435928
3.834823305,2.78240734715297,0.7182617538782937,3.0859477887078546,-1.3086517540240197,0.3315376263436778,-0.19408691716393325
3.934820929,2.8349047105429643,0.41448882051035996,3.0789705101007505,-1.5327177733767527,0.3276287600947857,-0.20219629032071237
4.034893938,2.8137286853199126,0.07855134109209501,3.056287463487023,-1.779519919130573,0.3381090866226311,-0.20449303693793602
4.134822102,2.7357669961661104,-0.18358101058435222,3.0328582052955673,-1.9824928375400344,0.3247234596266373,-0.20595306716851133
4.234808055,2.5898400472404277,-0.44719156274285754,3.004261290316716,-2.2126291468340322,0.3743735376055328,-0.20817392189553438
4.334834559,2.3874227605565808,-0.6688234092816083,3.001501874264991,-2.4461746204816777,0.3533766686120402,-0.20893848212454535
4.434812613,2.112183427875249,-0.8526631752688546,3.012027978309892,-2.694681746074842,0.33618370227930566,-0.20276733705896366
4.534813264,1.8598165583133712,-0.9487104901867282,3.018805966420752,-2.9028688879701234,0.32892313736106593,-0.205246131601205
4.634817939,1.5647897411897,-0.9916460477729658,2.977132292203561,-3.1393318913822323,0.35247086174277875,-0.20423826389725672
4.734844141,1.2387656451358489,-0.9598453785104003,2.969178377327409,2.899936745849863,0.3171906371168719,-0.2003530693211991
4.834810447,0.9588047042271042,-0.8629641238563026,2.958615510867655,2.6820086759329205,0.31197821256851843,-0.19152498859830805
4.934931307,0.7308260449084798,-0.7262530680420812,2.9438934439977453,2.4897020156260594,0.3049314523714935,-0.2063436205006881
5.034822426,0.5168944849470465,-0.5264298962142202,2.919961960215582,2.2647426110965276,0.28313061190766076,-0.2148588145421247
5.13481517,0.356355838247627,-0.2866602963784782,2.888339601386048,2.0322052672902733,0.32464894672210304,-0.1677732481391768
5.234819717,0.23882152278152685,-0.016212689382709224,3.0250389782824985,1.912371748692921,0.36811970748261696,-0.06619319656170648
5.334922465,0.1284967581657201,0.3049153378267182,3.1443134215994393,1.8938545506082087,0.3591418287491983,0.05284047713888096
5.43480913,0.021635550997427838,0.5723385406895629,3.21733504531013,1.9822474786026134,0.31175519817784564,0.13296574826671326
5.534922838,-0.13597518244767254,0.8547176079504915,3.2313922066665057,2.154356090400798,0.2893837223483009,0.17202695439409135
5.634814556,-0.3396666590708128,1.1031030139183324,3.208030826335018,2.382418760561836,0.2782421070909332,0.19800777108115425
5.73481706,-0.5875386006269273,1.29730758445116,3.1140542806574625,2.6461192565287943,0.28429735645988236,0.19931605734874158
5.834878494,-0.8965161142867951,1.4304849236343233,3.0303590191600183,2.925649533312331,0.3264870562634298,0.17888968499104987
5.934813719,-1.1640225869632679,1.473674101523601,3.0315720211881545,3.1181476278687787,0.36895403307809144,0.16980741457005508
6.034820083,-1.466252559024085,1.4559142628604513,3.0525556538094456,-2.9679621845307134,0.37368369091642706,0.15684912811848514
6.134810543,-1.7626895218176937,1.3750490932174861,3.090809085218311,-2.7695326665701656,0.37236937828178923,0.1652729150277648
6.234830259,-2.0386046012472394,1.2358694083378727,3.0914136909683534,-2.5755178460372368,0.3442386430511042,0.1780546134457703
6.334810675,-2.280650692778273,1.0430976842771127,3.0918757194088435,-2.3475561567216583,0.31756471492245547,0.18570243664172276
6.434803148,-2.49023227868122,0.7796848540620952,3.050962619476491,-2.0830784008368166,0.30797538827396365,0.18194533798491036
6.534893747,-2.604733176523786,0.5340268750883205,3.0088715044487824,-1.8744452231388278,0.30268292238812766,0.17376592598430174
6.634815241,-2.6687427697634107,0.24439494339931916,2.9664613011466336,-1.6618422370722494,0.30477840604349726,0.17970252887421603
6.734809993,-2.666994755308797,-0.0497677843673693,2.9453608906626045,-1.439954886946067,0.3136575316776477,0.17327823465269787
6.834813206,-2.601764346327283,-0.33471652602799173,2.908843628097554,-1.2206338198326832,0.3126070746537679,0.19314068584287705
6.93491637,-2.4748720985900396,-0.594426322382145,2.886393867276185,-0.9810307723970854,0.30777498484668936,0.20436430241091272
7.034823848,-2.292523707260018,-0.8148614443959383,2.8523146187193302,-0.7373739415218519,0.3238483415290321,0.20139311970763865
7.134818985,-2.0644284039207292,-0.9834920108834075,2.8410096970345258,-0.5045422993031597,0.3487132633894594,0.20014407535646206
7.234873142,-1.8019094415358916,-1.093963378417058,2.873905020632727,-0.2756453247234767,0.36985392912839377,0.2004949104450226
7.334830118,-1.5175715756426165,-1.1419223981458912,2.916052064444793,-0.04100664970050464,0.36380553134545734,0.19491403569936658
7.434841055,-1.2260946997189055,-1.1236768066486051,2.9410635714743063,0.19464382700053146,0.3915570783505246,0.1989675370405347
7.534819289,-0.9450980108853738,-1.038330776465587,2.9445362713024905,0.425586954886257,0.35040296515829006,0.190569597236739
7.634926744,-0.6896175091086523,-0.8921836781732821,2.9447058388104934,0.6528716429346709,0.3372158835759222,0.18678824141469805
7.734819009,-0.4747843054957826,-0.6923072001431777,2.9415165274625967,0.8834400034952508,0.33283420736378067,0.17898298404145718
7.834882017,-0.3119107104535863,-0.4495886256505288,2.902615915559139,1.1161211538358584,0.33914869310757384,0.18633087285322977
7.934808534,-0.20490693816186778,-0.1768162739908782,2.942143011572275,1.2950394545886847,0.36195213809025817,0.09081314109679964
8.034889739,-0.13180751742087501,0.11431101542407002,3.046686118021312,1.3416424817117611,0.36702608346489846,-0.027450803269578824
8.134832797,-0.055260564159258424,0.4141471359633113,3.12780603113527,1.2854113706880093,0.36672877526103864,-0.12065907440576126
8.234894231,0.05499156760709327,0.7079314493847793,3.1340646109002526,1.1300942865994563,0.3164870366340623,-0.1786392553686594
8.334819149,0.21348263345992313,0.9779065930155573,3.12089845168182,0.928489186046583,0.31190888909560144,-0.20434339691744408
8.434896884,0.4209237766686667,1.2082432906104523,3.088243314964612,0.7081368094214678,0.33630396815463276,-0.2111853975501107
8.534905508,0.6716651505169325,1.3862255621497528,3.067995655973331,0.4808340141362887,0.34987458636423613,-0.20584515318078309
8.634814003,0.9554665872227533,1.5016273941326148,3.0729981191848394,0.2470695114546881,0.3642006913931875,-0.19940553780861522
8.734821264,1.2587621956728035,1.54897479972535,3.090403950975599,0.02039750905048735,0.38145747789746276,-0.20147946662126548
8.834810333,1.5667403351390548,1.5270915191924213,3.091184417736597,-0.19727361217977774,0.37791835567698767,-0.19783299726531017
8.934825761,1.865206831117677,1.4401205044102716,3.118015133719037,-0.39768638637873055,0.3639951004582185,-0.19219055551958658
9.034831057,2.140007868326859,1.2937964801945976,3.110923935552566,-0.6065691258661889,0.34244295332348157,-0.2009387531165146
9.134816266,2.3764771302788694,1.0927503637847287,3.0999057551129585,-0.8242069314341262,0.3473983905773751,-0.20595997546589104
9.234811217,2.5642205723723017,0.8475439350079059,3.078156894618029,-1.0374373982633829,0.3153319978900346,-0.20587801114855966
9.334807915,2.69384880806152,0.569919975586423,3.0567766015689615,-1.2608388932541827,0.31486709221719544,-0.20150796859998235
9.43480244,2.7615553240620923,0.2431645573480168,3.0313280820323714,-1.509441341105769,0.32798685677777006,-0.2177539392677269
9.534914102,2.7553244810432074,-0.028948932259479435,3.0257672618990386,-1.7062014928035458,0.3139995909148548,-0.21328561231291507
9.634822197,2.685569449270807,-0.3208616960294367,3.0000548250220516,-1.9271846283433305,0.3125889307753776,-0.21434732584382782
9.734891077,2.5526219795937055,-0.5870409449025132,2.9628026757919215,-2.1619570580730674,0.3295357641700494,-0.22384971390349423
9.834818438,2.3628156592835676,-0.8124769659617981,2.9563445591549318,-2.4011905606804174,0.33254190617942614,-0.23065811418907914
9.934835238,2.125610196492726,-0.9879782661636463,2.9560826818589656,-2.6319925179379084,0.34306023106706124,-0.22338322054482912
10.034846957,1.853960638529025,-1.1060344986586008,2.9780785966318364,-2.8631788356678074,0.34823524425096536,-0.21559880399140097
10.134871859,1.5626049882956061,-1.159097506126481,2.9776790513101736,-3.0943217230662117,0.3533513903274558,-0.22336573501167767
10.234821646,1.2663181941551829,-1.144216257356493,2.963202914187722,2.965535883549917,0.3308664345107307,-0.21841210544319986
10.334822608,0.9816222847401724,-1.063414106412053,2.958545814638904,2.736371987006207,0.3375421204782082,-0.2164254860586311
10.434860961,0.7241018110094581,-0.9210081408290003,2.9303745162039982,2.505685313400575,0.32037885205501027,-0.22135625099313552
10.534919309,0.5073530928495561,-0.7253899318896414,2.920563478956268,2.2800867256812807,0.3098797530227752,-0.21589285636187752
10.634826086,0.3418030931458439,-0.48712047100557515,2.9057856625455134,2.0518128059182583,0.3392484229939912,-0.18209862490285708
10.734832734,0.22152446329620645,-0.21557970368113344,3.0444774910931898,1.910984317098972,0.3920449060101538,-0.07032900658519757
10.834870242000001,0.11495765962521348,0.07907732895288927,3.209516383553928,1.9146993110193375,0.36764185451989645,0.049090409741955096
10.934830337,-0.01263634246831103,0.37793210404682576,3.288280253136221,2.012980726144213,0.31897449792077553,0.11702236715705285
11.034902937,-0.17759319203011756,0.6639034118421708,3.295975334906609,2.161746902817392,0.29790669202488357,0.16268500286800838
11.134815174,-0.38590018904979684,0.9184034238716036,3.2722468041828066,2.367424028524141,0.26196979831142464,0.18712083616643882
11.234816425,-0.6355534231178261,1.1219526392663266,3.188295713248089,2.6151702527748597,0.31910925308504384,0.19694633124134717
11.334835274,-0.9173756662762752,1.2587972111574655,3.092842062189028,2.86809662000653,0.3102101102379986,0.18990746500860697
11.434802211000001,-1.2159039933788995,1.3219993669355465,3.034753463637144,3.093250334529306,0.32788510540607346,0.17472260110936289
11.534897284,-1.5190534844935144,1.3130994491517773,3.038886343455246,-2.9792661741628232,0.3432311789616409,0.16399630003138194
11.634815906,-1.8133606508664137,1.2372658260906204,3.051015908704646,-2.7675375769743726,0.36377121704334675,0.1676535829952153
11.734816159,-2.0856062779767592,1.099481247897765,3.0456897647170376,-2.545168923806369,0.3274228859677315,0.17459690948303783
11.834837629999999,-2.3215165591829767,0.90769195980959,3.0325905529173367,-2.3322850923903884,0.30889285997688326,0.17631388705461387
11.934820179,-2.5106189409911694,0.6706205799083466,3.037427744948763,-2.1120398251764376,0.32878958651118173,0.1798894654813852
12.034809182,-2.6430978020536084,0.3995839905347332,3.0123221744060755,-1.8977223772660827,0.2938001657540097,0.18267751241341135
12.134812187,-2.7125235724692605,0.1084757747435861,2.99183368308799,-1.6759082680563995,0.27681449643214967,0.18649015653279796
12.234809134,-2.7153094235376116,-0.18697917380488915,2.9461943219389415,-1.443092304281081,0.3086263895035346,0.1986191912381842
12.334817912,-2.6416696509679807,-0.49847017296072826,2.8941653210574554,-1.2058080795336612,0.2919607806465183,0.20076301484295972
12.434810332,-2.5242855594006572,-0.7295038538220383,2.8577978032994142,-0.9675990446367106,0.3037325537076054,0.20127114785906033
12.534814896,-2.340989367922669,-0.9482097362613197,2.852160636937655,-0.7338816075323371,0.32463453325440156,0.19165019287178464
12.634921551,-2.113160624034275,-1.1177158629834203,2.841431538272142,-0.5114903713932617,0.3528265285537749,0.20459614882235067
12.734814248,-1.8495335935910613,-1.231002846075782,2.8996235544074405,-0.28396062042992004,0.36995010374464576,0.20325283130795335
12.834814249,-1.563245723306677,-1.281531482523311,2.940018219724847,-0.04777881662160281,0.40757323026846787,0.2106211856189638
12.934815965,-1.269956984471821,-1.2649494060444586,2.949827664072312,0.18720520334647156,0.37185852292145655,0.2014641630674902
13.034919716,-0.9857802358015191,-1.1818343174427706,2.9599192998813044,0.41579516726138566,0.3533411883821558,0.19675503182989146
13.134819227,-0.7265953806459977,-1.0363570296469629,2.9890427361859135,0.6460505069774258,0.39042853426737895,0.19491711357468403
13.234808636,-0.5052294479140029,-0.8360987130124732,2.9955682856280403,0.8723025869253949,0.3572715569338168,0.19160755815733588
13.334860161,-0.33459200118895366,-0.5909465184540881,2.9935187211033254,1.103644743194461,0.34857534565511733,0.17521879529135817
13.434805467,-0.21369541790199692,-0.2851518235394756,3.006697124016138,1.3203789049811445,0.35862530240469415,0.11069726840423566
13.534815567,-0.15241690310195405,-0.018204259223972317,3.075300474091448,1.3764376134022305,0.38789807486581096,-0.034365797738289475
13.634809128,-0.08558814872780761,0.2888187137072903,3.181360468395392,1.3357980924569517,0.35744879723291845,-0.12978507648666815
13.734808503,0.010771822252629903,0.5920154396041641,3.1866487735966245,1.187640226321051,0.3143818099740927,-0.18328570853296042
13.834821299,0.15614764402242165,0.8749708348722409,3.1738752099170067,0.988709303591019,0.31905737158854475,-0.222459143626183
13.934810861,0.3770339023471045,1.1407239579521906,3.1310816458385693,0.7319329059594498,0.3217148274617591,-0.2273203339185033
14.034816065,0.5999484408703946,1.3113270259118424,3.1187868479957066,0.5163363022441155,0.34836949355987684,-0.2237238483603425
14.134822306,0.8812223614512614,1.4399049857667219,3.104074978725712,0.28346422608219307,0.3717361287297962,-0.21895711171980728
14.23489146,1.1840447570780714,1.4982413289261058,3.0922272507226283,0.0580354403496847,0.3759525132196727,-0.21064383882582693
14.334813081,1.4937209483162264,1.4877020629273778,3.1078222427540325,-0.15886356881164182,0.38287236487196286,-0.19091403621614536
14.434803021,1.8248927516112599,1.3996048283562859,3.1176302478626354,-0.3839482862490509,0.3755320724832477,-0.20356896536175675
14.534811071,2.0744968761417857,1.2716379565686973,3.1087557096593383,-0.5718098023282144,0.33523120238348464,-0.20508514274424214
14.634808959,2.317031765317186,1.077483418950262,3.09818253203242,-0.787141631082461,0.321777053816919,-0.209500182207203
14.73493569,2.528226019025262,0.8121074861674328,3.0745871369254187,-1.022370986380575,0.3377870332479848,-0.21871965134069393
14.834832448,2.650143374251703,0.5651612723918243,3.054540658648259,-1.2193019206337814,0.31085617446428865,-0.22038448150179193
14.934844876,2.723774839680861,0.2717174584806221,3.0165942604802645,-1.4502197566400217,0.3095343483034704,-0.2233209941379521
15.034817673,2.728717132988376,-0.02820475151925525,2.9988347514921427,-1.6773402741117818,0.32633451543387815,-0.231125738838637
15.13491258,2.655339705008987,-0.34666614740403123,2.9652147348647038,-1.9320948045175612,0.32627735567474303,-0.23496610371242135
15.234811389,2.5366154729121435,-0.5850463326835145,2.9679493916452997,-2.1466274795108324,0.3324311703493075,-0.23404906040726242
15.334825827,2.3490836527018932,-0.8124697396687933,2.9596324706548693,-2.385816359384561,0.36754588474527544,-0.23662219482985428
15.43480745,2.0883535146016126,-1.0058107408198622,2.9615609728189574,-2.6320956993412046,0.3456162891877411,-0.23157397035224284
