time (sec),x position (m),y position (m),forward velocity (m/s),"heading angle (rad), from x-axis, positive is CCW",throttle (unitless; -1 to 1),steering angle (unitless; -1 to 1)
1.138100522,-1.2525144500733836,-0.9928210183444841,3.1447897398901166,0.3430668367350134,0.4708845273262964,0.21290750245521303
1.338102213,-0.4670214527872606,-0.8170819421584283,3.2062687191634702,0.7562119245723701,0.45048731950787463,0.2067056946793942
1.5381074460000002,-0.30651893053772533,-0.4024551995340325,3.263212403381006,1.1859523640428018,0.5388498836013905,0.09385233933468176
1.73810228,-0.042941915087567215,0.3729481299051124,3.8117546913298894,1.0804869747056565,0.4910523442376935,-0.07158762784846394
1.938094413,0.522493215978172,0.9554818583058224,3.795915180005805,0.9816377592397711,0.35862811345185114,-0.13624385596354732
2.138101656,0.9322807118401873,1.4006489827845396,3.718698639535791,0.6785337360555294,0.3118363295898144,-0.16836897187773717
2.338094486,1.4732261719826407,1.6756089375494292,3.2300719677864937,0.09284439911639498,0.2963884927227663,-0.17341552208685454
2.538104793,2.090034921568068,1.7407987424291906,2.9806976864408314,-0.4594427809348811,0.3051537895334094,-0.20375178482810785
2.738106415,2.74345399426933,1.416625999689518,3.2021601777750024,-0.7095694669496073,0.43478769459872074,-0.23274443705168849
2.938125842,3.0311427788783565,0.9014245723565697,2.982975776442005,-1.085049447335973,0.5304819716537156,-0.2330990437547685
3.1381043220000002,3.2426697127463653,0.2774785086205179,3.0776376565844963,-1.553057068184354,0.5620356560300944,-0.2269449492433112
3.338108839,2.9810867307157065,-0.358959274095391,3.3503492120213085,-1.9464554148269366,0.5184888551908221,-0.22568710390529512
3.538110299,2.40426949647522,-0.8137189260312683,3.1973122267088208,-2.631022257634167,0.4776827087384276,-0.21042887340003102
3.738098269,1.8573143581221105,-1.1497688934435872,3.2155907252851774,-2.922300454179142,0.41202780382492116,-0.20227174121033054
3.938122898,1.2091716148629024,-0.9023087476839398,3.2082258283704217,-3.3429049780722506,0.34871745305535196,-0.2037089583432576
4.138104509,0.6710505477424247,-0.8086314902519351,2.83918406393533,-3.939277809907125,0.35266292370161395,-0.2213849012413863
4.338161563,0.5081063478166313,-0.2744469141719933,3.154728035770263,-4.253903585204224,0.5623960107044622,-0.07997486508016254
4.538096593,-0.011290072095519273,0.18279517170076406,3.559458336903192,-4.247787724739574,0.4636275141340147,0.061175615436460676
4.738157782,-0.2423986770794623,0.6981354081792397,3.582398184113717,-3.9675534269211057,0.33307961734063546,0.14439488517275537
4.938105367,-0.9561772420428147,1.287776052478618,3.4548917115960385,-3.7184003932555636,0.2901246261655998,0.17372929421990754
5.1381000629999996,-1.6509240363090754,1.3682560440141487,3.21236580725351,-3.0799968492653016,0.33582553490669587,0.18151935489707577
5.338103341,-2.3703200182149313,1.3519909542148523,3.3586155719064803,-2.657930875974582,0.4265576534066572,0.19105796325006447
5.538104804,-2.6669023662075846,0.953604675366117,3.172544140744574,-2.1941506393917907,0.43163697504101767,0.20571675047616214
5.738095419,-3.2640889870073524,0.255871771119923,3.351156678885019,-1.66236081122933,0.4231707557698143,0.18627233467856588
5.938100547,-2.806920222028448,-0.31452042656202234,3.343964065251667,-1.285084031984355,0.398731943104265,0.1871676620507197
6.138105093,-2.636042266109111,-0.9830767042192079,3.1145704334663886,-0.6635687002285897,0.3468644156746744,0.19942336206917696
6.338172397,-2.2890678359376686,-1.3579205796390206,3.0751185943647736,-0.2926154019649489,0.41507094340043016,0.2060798820172083
6.538140159,-1.5677969636425393,-1.3113210623139604,3.1320145207621573,0.1666309852512186,0.465705938938833,0.1994255517204068
6.738105334,-0.9650016459225085,-1.128165733173259,3.3282993110060834,0.46766796789242043,0.46068837479518854,0.2047953466789688
6.938103315,-0.4527749774682681,-0.7149790166440169,3.3436466906596185,0.9463991245487695,0.4712232647295137,0.177163499603132
7.138102985,-0.18221367748778455,-0.17187995812212165,3.5701939530030846,1.3069999599619717,0.552169200524969,-0.014912377178509443
7.338146021,0.19488161352457442,0.4069264715889008,3.9043318415109924,1.134874012998656,0.424127794149542,-0.12162202659096721
7.538138554,0.43519511124840776,1.2199629198349418,3.6826808786224334,0.7486328438449964,0.3371503612682278,-0.16008684889496777
7.738103279,1.0960852653299529,1.4527300193233257,3.3733531155834897,0.3056074214759688,0.2980038550444685,-0.1730221284961992
7.938114274,1.6782504891529515,1.719548657176651,3.1726170483519947,-0.05988135060248108,0.29145773026125116,-0.1850821419549582
8.138094478,2.337376858322241,1.4416160876810047,2.911919195530065,-0.4508407857034978,0.3373449063735614,-0.2166796110466027
8.338106241,2.8140150502308967,1.1000680149596513,2.982171437856209,-0.9227854831748605,0.47732320488314195,-0.23281292358534011
8.538093764,3.1453249893398056,0.7309856947823353,2.9939025413596205,-1.5627106901570005,0.5497581317170046,-0.24274869059937682
8.738185306,3.0161658511047755,-0.1266834571356782,3.229046901262307,-1.8119280439014414,0.5435630612376259,-0.23318145362166223
8.938092261,2.6578940059809097,-0.6883798098894867,3.4380947340800505,-2.219914347103651,0.5013266952020491,-0.22565960987381967
9.138100182,2.347938701336022,-1.139802595324303,3.257169662192097,-2.6813777430770878,0.44373775996808174,-0.21119280766856824
9.338094249,1.4805745452853143,-1.2500693107308796,3.2236069387042234,-3.121773818194748,0.3846899612190875,-0.21554375023693392
9.538095594,0.9265685672046319,-0.9419999798778568,2.997652851389305,-3.5184346566187297,0.33639202373445753,-0.22097467509140667
9.738122454,0.5179104687258219,-0.7942629398736369,3.0121606607243585,-4.046731899170113,0.48889882275543356,-0.16890190914596775
9.938094068,0.12072386329204637,-0.2599104704196817,3.289303258885167,-4.353591614686172,0.5940037993950051,0.008311977332066567
10.13809803,-0.2377956690526349,0.5340677577438859,3.725007036108006,-4.195630272601866,0.3867584879029567,0.10355285283731631
10.338096478,-0.7049247076314997,0.8340888839544532,3.4422578369846697,-3.7485553616330765,0.27722788527464987,0.16410423277540817
10.538092735,-1.2247107521625318,1.252598103616962,3.290940346806826,-3.1714024172342676,0.30066864113066083,0.18205103337473216
10.738090177,-2.044880747729347,1.2967749870238425,3.2867788200674304,-2.7956853370470798,0.39041986737081924,0.1798060238611384
10.938133189,-2.644711878556124,1.0700501413294259,3.3699987770140525,-2.372094201895279,0.4479992749544978,0.18640785092868953
11.13809208,-2.7503218003775602,0.6309800525116992,3.236158264354771,-2.0913853584991213,0.4556837345632764,0.18842264988051322
11.338095555,-3.0161802663104873,0.10942743858277218,3.1902080159535866,-1.5947943146630499,0.38285550527781015,0.18240662968408533
11.538094256,-2.8557978649377533,-0.8381821410772693,3.1883998585234856,-1.007745978356903,0.3594476018985219,0.18347086860534983
11.738093067,-2.480818813142933,-1.0619468937535872,3.08199915148779,-0.5927108947822451,0.3744791591644578,0.1990560742355105
11.938103838,-1.897720058860828,-1.3649278543985957,3.0061260682133906,0.032228659777293556,0.44590296293106807,0.20506487585841865
12.138152684,-1.24225568139205,-1.338485593652536,3.207166852932217,0.3583290086539519,0.492197540631402,0.19958428497620212
12.33815859,-0.6935445616640427,-1.107725736370161,3.3026857412470054,0.683310084593515,0.5242727701775414,0.1913664984252408
12.538107575,-0.12365048112784424,-0.6197228243707167,3.393183510154313,1.176399345424202,0.5206896183518436,0.0892609223504781
12.738090964,-0.12481797684093723,0.1511740659132804,3.5838620455135484,1.0175488025261072,0.5209094231541884,-0.0869611552415631
12.938112009,0.33549550782411985,0.9851634711186983,3.7811104317195787,0.9458706881087803,0.357867887247461,-0.14153259689813413
13.138097488,0.8114382500428969,1.4381794346345924,3.5699227019256,0.6378791656675747,0.3102381421334413,-0.1578314344621802
13.338094075,1.5076722228276958,1.6549877991239101,3.3150458756925945,0.1870735217049066,0.3016164480303724,-0.17812049007058695
13.538095851,2.109965463890068,1.556077030211728,3.1694637273899886,-0.2811299811965824,0.33024182171936656,-0.2026106083017111
13.738090654,2.7061253803685403,1.2094751409965,2.887867491980459,-0.744985655388004,0.38983830842343825,-0.2365100994510366
13.938096469,2.962208697046712,0.7526022079072237,3.1229472868648127,-1.2085985426652948,0.529556845464465,-0.23933892483133745
14.13810448,3.171777672109755,0.3469875226629876,3.2069465684921545,-1.7780530900832372,0.5558790169632913,-0.22882356903486775
14.338107203,2.961113786627719,-0.304464495207854,3.243426317116311,-2.3262686036883,0.5259709997941581,-0.22615851081073526
14.538101896,2.3901100056998543,-0.8353782012368717,3.253572141257999,-2.455767731909432,0.4967068261710982,-0.21975888323189263
14.738111814,1.7209715359726712,-1.1434714549330613,3.161753059643911,-2.9986127673867564,0.4115540526474261,-0.2107128028625276
14.938101375,1.4457556415087536,-1.283055436130007,3.037692472745573,-3.5350889884448202,0.3603578752009434,-0.21434666849117265
15.138152347,0.44892298778486955,-0.8494268181962504,3.0356903341448778,-3.905106692615297,0.3906276795632,-0.22101251972726765
15.338110301,0.34161462590748426,-0.45997047394083174,3.1780874729048585,-4.238903614231341,0.5664324146189238,-0.08233560263241196
15.538103866,-0.012660709323789814,0.11948975448598304,3.534725865513845,-4.176800401297786,0.4985543228172436,0.06435865473383913
15.738102023,-0.5569989607867354,0.8625029991234465,3.707955830295067,-4.055012776929,0.31973306242720984,0.13724262415290922
15.938097094,-1.0058711027170513,1.238985048563367,3.5630622318409646,-3.5435487357763553,0.2847453291926752,0.16539484905127136
16.138106288,-1.6417791858324082,1.3762482485836816,3.172624584904488,-3.1365880548677207,0.3313304903675055,0.17731851349565478
16.338105812,-2.3616998112399825,1.1621314433555359,3.1817525205634594,-2.7729790069360876,0.41368313140708846,0.1812918558391869
16.538148318,-2.9645155886616927,0.8306171704601105,3.2848213663174186,-2.141832058159702,0.44808736245048647,0.18919777007424396
16.738099946,-3.0700284641996016,0.2056330410844242,3.3753003783598774,-1.6163745172670285,0.4256959842758376,0.1841365876149431
16.93810433,-3.127238396764069,-0.4242999911342367,3.365475343926863,-1.3183789354976485,0.3523947532678043,0.18391195412837166
17.138109079,-2.566803989399733,-1.2492937536156419,3.154297938400216,-0.7308591221378589,0.36293519962767423,0.19409983564447408
17.338095174,-2.2199451112884536,-1.220841051106611,3.0969584346940957,-0.22765627018863852,0.4191517874684406,0.20934168405137007
17.538108376,-1.7778731552040838,-1.4955311516654313,2.9993776342915144,0.21698019569221166,0.4604201692604009,0.2042260318266193
17.738096723,-0.9455411827335359,-1.356541433045426,3.2758820410129457,0.5380624394501591,0.4873654341290015,0.20186569815059577
17.938099598,-0.5680603288822483,-0.7574249024428457,3.293209144916366,1.0521764459797762,0.5058516355970658,0.18780301545433864
18.138099758,-0.3462649718644407,-0.21168345810416678,3.5759024848338177,1.196415758805311,0.5545179974958236,-0.019363494732289776
18.338113604,0.07767466241408327,0.615019612217346,3.678198228698796,0.9528645295323074,0.4338950797426406,-0.12901878448379595
18.538102403,0.48298024996244643,1.035704529547239,3.54431948381399,0.8418589529700621,0.3279286285048352,-0.15962336653391868
18.738097322,1.1593696613852915,1.4382927992931096,3.432858125719364,0.3625598557823366,0.30619302953395183,-0.17039267617127407
18.938106049,1.6643104375730753,1.357571459413504,3.2582489091558022,0.05827124005841452,0.31321457567847216,-0.19183824521187964
19.138099142,2.3137841173810845,1.47656259572854,2.8132866424656098,-0.5193426042890086,0.3318217534359345,-0.22810388983135732
19.338116506,2.8236504058062284,1.087906381646113,2.9869663136601248,-0.9891355309893763,0.4646336701932202,-0.24160012627994515
19.538102766,3.106427320413789,0.5936424650776824,3.0493570732498814,-1.4662728040553554,0.5597043864841188,-0.24241231252822357
19.738099406,2.9560387273684134,-0.2991549780377455,3.174185561291447,-1.7298689006923917,0.5418501496734355,-0.22930291297438957
19.938106085,2.64107885095741,-0.6262096190943348,3.3908875555717484,-2.459949303557328,0.5086618732210998,-0.22750600443150096
20.138099463,2.1430841956971327,-1.0616521038581752,3.1581176628189773,-2.7399108436771726,0.44854488728724146,-0.21582293443802184
20.338107761,1.4919055034475488,-1.1232781835269137,3.1817149341219295,-3.169626265629322,0.37389686218428836,-0.21832677036470566
20.538124018,0.7493521173153107,-1.2286163571904458,2.9161041858112,-3.632744310096284,0.36422339118839725,-0.22707503606150525
20.738102762,0.4646194159129387,-0.7650697747313858,2.929342061885686,-3.9667948738000325,0.48423228659104706,-0.18473224939065502
20.938101567,0.12378542021837777,-0.026091863557070466,3.3806886036081587,-4.1992974032692505,0.5752274175593919,0.006533313617731918
21.138120185,-0.12924797664069976,0.5201846665717113,3.6083638550415875,-4.237693487009447,0.390874491311235,0.1009601181636934
21.338098216,-0.7614583508969879,1.0672360772057006,3.731180510271227,-3.7610210711427188,0.28528648464874484,0.15304636192305288
21.538093545,-1.3342705682554823,1.3530124242855082,3.4136909507129634,-3.338091958406579,0.285615251463795,0.18657867567049263
21.73809188,-2.052433711762635,1.2510303581506574,3.170418260748047,-2.9644396059919678,0.3712375445461848,0.17862597339270156
21.938090733,-2.5583617917361794,0.8921574556466765,3.172155916200353,-2.3974909207205775,0.4326082657135466,0.18280293662857758
22.138094832,-3.0064352054081143,0.5294917971141131,3.25796822128268,-1.941272983905363,0.45225336045565606,0.189552796681691
22.338093181,-3.1996414476283395,-0.044735276808645155,3.3294917048620203,-1.4558901301727722,0.3797788762713638,0.18289351989800748
22.538098743,-2.785003120942836,-0.7200773620419565,3.227791808953587,-1.1022541138028934,0.361814854867982,0.1846808956125128
22.738098281,-2.4801999978164866,-1.1745503954344094,3.058322530113239,-0.4962678373364094,0.3810231048455157,0.20059643358998538
