time (sec),x position (m),y position (m),forward velocity (m/s),"heading angle (rad), from x-axis, positive is CCW",throttle (unitless; -1 to 1),steering angle (unitless; -1 to 1)
1.132569007,0.49898924592791316,-0.973133740087889,3.6635062493163146,-4.232160735341489,0.6490884968476233,-0.03324979856636909
1.332624847,0.25017858857521086,-0.441478280401577,4.103404904444191,-4.213218079446329,0.44765915973624476,0.07569535810888157
1.532563965,-0.4997674189167072,0.21442876897160024,3.874295450286829,-3.7619260187220527,0.24765425560833706,0.13531952731657548
1.732587142,-1.1491481282254792,0.5275548204184985,3.595196236301715,-3.3123076788638057,0.20183703604248301,0.1510786606649854
1.93256923,-1.8757476007351745,0.5987330585838451,3.2250947855708247,-2.8330138949569963,0.2235060295881113,0.13865765079536066
2.13256888,-2.45601174086065,0.08639225168669265,3.000608834699966,-2.480041130698187,0.23644866368696418,0.17498334048469455
2.332657845,-2.8198486503926534,-0.15689064058337943,2.988098660112127,-2.048967718712399,0.28924939860526727,0.21100598878216112
2.532575049,-2.76116812406018,-0.8283466271324657,2.8041808797711565,-1.3830281503165045,0.351542729249975,0.20948191870615276
2.732581188,-2.720654592811294,-1.3074989407765794,2.740297404983783,-0.959167770931309,0.4140741356880668,0.22939198983664957
2.932615898,-2.311871689196002,-1.8429840244275182,3.2187994143655536,-0.5475607313721993,0.49196177211119113,0.22918489585974236
3.132569775,-1.6232548218120078,-1.9413511116362334,3.1611176675122574,-0.14177884315179848,0.4950793746293232,0.2174562499599024
3.332567365,-0.9802099422457136,-1.805892209904828,3.474072719891102,0.5852605170301574,0.489829302045833,0.19588787304839508
3.5325594650000003,-0.6014389355566326,-1.4451668901114745,3.3598808213272493,0.8375844373501748,0.45717240101124335,0.1834825399989782
3.732585604,-0.19844632420526093,-0.8032129067218757,3.4436397078929937,1.2527180984778168,0.5035493632819816,0.06784914360157258
3.93258569,0.08391691036843014,-0.19905154382863366,3.899935690661873,1.2720980023149253,0.451744563442529,-0.10028784136328561
4.132569912,0.34567892034842446,0.36800065981268987,3.7198048789159097,0.7932311139129151,0.3431376131452941,-0.16662268449079867
4.332567196,0.7191433629274584,0.943664734437488,3.5597199736146155,0.6183983808116877,0.318070408895545,-0.17748286723851217
4.532669618,1.4286665261400915,1.2385640119597423,3.378467332503781,0.0019099704001342283,0.33400296014787256,-0.1880080839036139
4.732571759,2.0155647979944082,1.165339227294489,3.251240367308665,-0.4078427095289193,0.3475365993455725,-0.1884690630346377
4.93256692,2.543670824484534,0.8685835571917189,3.1713780425912663,-0.836478314363533,0.4028500594138597,-0.2179433419579905
5.132572859,3.05948686057882,0.27531368653493066,3.1053062971803946,-1.220687613209483,0.41418720707104734,-0.21187068217365002
5.332576104,3.207156941693666,-0.3899183078691203,3.138735032486137,-1.7434384496276591,0.441059133309431,-0.21935595564638988
5.532565407,2.9231452641716675,-1.115325023494569,3.437086848162363,-2.33858359721277,0.45974294604275495,-0.2276736150739984
5.732566568,2.319273021942321,-1.5358707067754862,3.3884409789340557,-2.847224675346249,0.4364370037338365,-0.20391632028951864
5.932576651,1.713931400519573,-1.4561775757887492,3.373909744014103,-3.161706286478902,0.4150100736551629,-0.20552963475614666
6.132562801,1.037199940726771,-1.5013450147813976,3.3360024003007895,-3.6548249704123528,0.4096563793819732,-0.20663077884378941
6.332563183,0.5427545698762599,-1.0542401007091624,3.221715941771596,-4.01271654535701,0.3963044794104301,-0.1953953371898485
6.532609661,0.23891208288427546,-0.6795886823138122,3.5321254991803763,-4.321221174539232,0.527688653711502,-0.05563664282137359
6.732566464,-0.1061383635794443,0.06695784352381044,3.822367361832109,-4.177237253380142,0.39575357310569415,0.08459766268691363
6.932567627,-0.5963665175693773,0.6862489583352352,3.7745620059476512,-4.256729320734184,0.24597141017295343,0.14157225931221462
7.132619702,-1.0947430083226266,1.0198058508820733,3.497384509739765,-3.483534918164104,0.2276078174355004,0.15055991129381435
7.332563725,-1.8321573785045682,1.1139057507663988,3.228609599690178,-3.0681511241885304,0.2715916197979125,0.16110030122027322
7.532575165,-2.4435568887205785,0.7777084595428072,2.9496077411372266,-2.56941466814811,0.051447969649249,0.28414235123349924
7.732595505,-2.7610492073667787,0.6223511850748822,2.8329852301408667,-2.2121279538218075,0.48023119594184227,0.1603816403162453
7.932599731,-3.0918122756990947,0.1804804139192796,3.174870721536149,-1.7349863484711343,0.41744009429364104,0.18358687524548492
8.132570182,-2.9865121375297945,-0.5290809639863846,3.0095695090161323,-1.2306484544448342,0.3767636563632544,0.20265769805719752
8.33257452,-2.612891346370025,-1.1892948137388684,3.0280714037580716,-0.742649467021287,0.43721637064437485,0.1968717350633612
8.532563778,-1.955599614138478,-1.418918290547766,3.21702171853821,-0.14229659236782485,0.4720370895069041,0.20337289832959216
8.73258364,-1.3131711728538973,-1.3068865629228312,3.3061280756482105,0.3766897285498555,0.4637079439599148,0.19912673493586122
8.932567784,-0.6524762027656412,-1.2341409944906367,3.2837834897655203,0.7637029952913063,0.4190135788367669,0.18340071996301477
9.132567087,-0.45108300418416103,-0.8828125407694173,3.281831036256215,1.0529709352355214,0.4447871338331438,0.14230579656544953
9.332569945,-0.08709007237486101,-0.2017257569321629,3.6715905499139216,1.166970072126317,0.5015402917078272,-0.03300674823408155
9.532568059,0.1288595120741468,0.4312977844012369,3.697272298048141,1.231998558296913,0.39142344257831657,-0.14215800165927053
9.732579554,0.680810010303326,1.0268731007668614,3.5830204359870903,0.6125492247594413,0.33452458766189935,-0.1751123275084114
9.9325696,1.125789912733751,1.1793822953750308,3.335927123781457,0.34556339875936265,0.370989292892717,-0.175534532437468
10.132580459,1.8697095947756321,1.6086151172641783,3.320725345742094,-0.1296661381236232,0.35530966322653,-0.18859178252450962
10.332564408,2.5095209623034322,1.1686689254134588,3.2969751663506597,-0.7770607561975335,0.3927110242917146,-0.1953372134208704
10.532610074,3.0433996095570945,0.6557339187493529,3.377715141618883,-1.1387330547596546,0.44194903209177416,-0.19922925847423803
10.732587941,2.981913190700634,-0.04376939612354768,3.390914822565334,-1.5072034910564522,0.4272692325170349,-0.20259644531562895
10.932644792,2.90024450473604,-0.6996866907996752,3.206323892808545,-2.0482727392212046,0.4474494273324326,-0.2029135383477354
11.132620419,2.601884821561717,-1.037907114353428,3.250947711812168,-2.5574171842044775,0.4393951708625325,-0.19455323016350368
11.332565281,2.0494447820100543,-1.6499016755605858,3.3915069449030883,-2.960806281690434,0.4166298820628713,-0.1896074206482897
11.532559795000001,1.4434994135814185,-1.56787894817724,3.3068812699490406,-3.4377060276219575,0.396222948037794,-0.19400959300697562
11.732563508,0.8213711578082259,-1.3223266008551697,3.2142803730492497,-3.5765295232941128,0.3623032155323136,-0.19704772260926512
11.932583477,0.38222270476245745,-0.7951895773128718,3.2082294047884967,-4.211647941564471,0.4343522950236834,-0.1460362720086339
12.1325646,-0.12682748230059915,-0.17066605576302585,3.7763539987862713,-4.45758124234967,0.5025781938964843,0.032285851133170854
12.33258077,-0.2541925312975928,0.5890917420855462,3.756775729587489,-4.082662327201313,0.29783654570105095,0.12173648084825422
12.532557415,-0.9940952213924151,1.0388779040480602,3.505934856711953,-3.748799128670306,0.2015439745067665,0.16743032169622163
12.732583422,-1.4360801286839913,1.270154233428722,3.2075356764938423,-3.2755594611149954,0.2548601294575383,0.16719260344264222
12.932572124,-2.1000741029036254,1.1630582912749736,2.9798600399975403,-2.7687460161055157,0.1076703856135576,0.22335986128868818
13.132565477,-2.454933513754346,1.016620654704088,2.5307818215509315,-2.2537721483049316,0.45036957315378545,0.17995410389851377
13.332565073,-2.824618514100376,0.5235267551750197,3.1940638220504454,-1.7984178983481485,0.48022034338269254,0.16726339898363088
13.532563452,-2.877329607605637,-0.19564825191738516,3.1183737995148832,-1.5470622728654437,0.3629829356395703,0.19859000823680478
13.732578062,-2.7591585630066584,-0.7097003451873426,3.1303158689670365,-1.062037558840915,0.3944577097787828,0.20692731250120086
13.932568911,-2.3507225405201826,-1.3118542975694054,3.104307204528728,-0.6250519803599639,0.4521623044945617,0.20084959421910262
14.132637067,-1.6313484951859716,-1.4487891411760747,3.2061136787391162,-0.0136875553629862,0.44605294097313364,0.20991361426137092
14.332679522,-1.1822562904049994,-1.4119340727402885,3.2913386565500846,0.363580251494049,0.43458685642885364,0.20279092583431677
14.532571841,-0.41700516274975047,-0.9430289631300177,3.219117775760925,0.7191936506209374,0.39789121896787005,0.19313025797436054
14.73256227,-0.10155900820805419,-0.2927378987082866,3.319516933873777,1.2100924884965063,0.48261704013466245,0.07806680131863049
14.932566148,-0.0036535895736363733,0.2766484900254596,3.6031306718463627,1.3420732399214916,0.4788067823955938,-0.10541471911636993
15.132578874,0.30930892583731184,0.7392742458949416,3.738123569138358,1.0698134911905535,0.3208695208886994,-0.21736099882546503
15.332583259,0.7436142922207962,1.3308805866401727,3.428365580671898,0.5037284609129901,0.37775088680597013,-0.1934357337974027
15.532671607,1.383440809876921,1.4985224224971285,3.322689415120686,0.21721179381726907,0.4545764061151336,-0.18649098061182737
15.732565863,2.0455299132811526,1.3105938169367348,3.2971424600982275,-0.5457155970920882,0.42221747057279907,-0.1998880777730023
15.932564853,2.5327941479712917,0.9221010779608814,3.3049728159925675,-0.964009658532597,0.4232118685772285,-0.19566426871246217
16.132564919,2.780976469634709,0.4210935839196136,3.347350888977148,-1.36854918329028,0.43901782628735,-0.2062971396125214
16.332586969,2.905638622105832,-0.18761495591146557,3.3333900081909156,-1.7967400011364978,0.5169347909632926,-0.19190212352551383
16.532574368,2.718544739026712,-0.8089460486761727,3.268760811672064,-2.309881911007932,0.43282663739061045,-0.1990161929086202
16.732569167,2.092405957020869,-1.3029820350113692,3.303877362341157,-2.4979730071462938,0.4208110840555015,-0.18572841663917877
16.932567404,1.443426424821752,-1.407554944534013,3.3746146919872446,-3.0502992012840044,0.39580088838530597,-0.18548258642384716
17.132556533,0.9339600142662635,-1.3661276039195311,3.2354369339302527,-3.636461496812289,0.37216778987900767,-0.19625729150211563
17.332594085,0.35297455704790126,-0.7915891124269369,3.0609781686359665,-3.898763502148701,0.3884697420571048,-0.2011807116303509
17.532583583,0.08266422890509365,-0.3530780321109827,3.289220501364841,-4.286125457260759,0.47205026745610923,-0.05485687981869284
17.732580711,-0.23651598733094636,0.3158695433583923,3.4338202707360526,-4.469744700196821,0.39595683403428944,0.1167497129581822
17.932564414,-0.5980089788839006,1.1097821932673473,3.7958863914638306,-3.9716757566034566,0.26538831889507347,0.17058229417044107
18.13260231,-1.1567631081447214,1.3665992252836021,3.4261873163994654,-3.439015193475926,0.200900128641382,0.18853488699187312
18.332581905,-1.6673209108272677,1.5048124199085333,3.1977260428346934,-2.912264887264702,0.2949393801441265,0.1719917550998377
18.532561573,-2.528973621812408,1.4493214512143027,3.0460075543420326,-2.564025706165665,0.4021739679670092,0.17231390976630814
18.732578888,-2.8583710308982693,0.9307262103682614,3.0813253362191557,-2.013341231097206,0.41207084574198244,0.19135107442494506
18.932578477,-2.871441655375808,0.4156645490395818,3.0984303583040047,-1.7978763020102075,0.42439363418689824,0.18820078509764254
19.132565432,-3.135502817589599,-0.31471552219756893,3.2263210714448123,-1.3048681604628587,0.3880917589102585,0.19884188526240562
19.3325808,-2.503160958521615,-0.7897760577767489,3.1435269900307485,-0.6485426136904265,0.44903514699044267,0.1980775102536326
19.532658694,-2.115063754808471,-1.154226387400252,3.2495700213389562,-0.376893664820918,0.5154895684483402,0.20422671232803646
19.732562641,-1.2541265203668295,-1.251466387465527,3.3504922708995806,0.17650912355823398,0.43087336322206116,0.19995421903921046
19.93267062,-0.6362382343439327,-1.021429052223586,3.32035178248816,0.5544356397033263,0.4254511955630187,0.1862954467575385
20.132578495,-0.43345158561824665,-0.5666477971669549,3.234039115852482,1.0372802776411463,0.4246140078078355,0.1435733746899435
20.332624156,-0.030404651409960584,0.06895345259802098,3.39231538666525,1.3508248152767195,0.4883976747959975,-0.03871801447525819
20.532607684,0.11433150711869569,0.5365432991723001,3.697654055306426,0.9955185912472754,0.42221539929607327,-0.1791246428411985
20.732592195,0.5185160977355336,1.337827974434928,3.3696374439080956,0.712656392401565,0.3645596108652607,-0.19616276195675067
20.932563695,0.9724117640106071,1.5730468612774346,3.1614543811124163,0.16632098649573734,0.4015775330302859,-0.18922968346787694
21.132653712,1.6981263726337568,1.6762462588896434,3.407233250675713,-0.10245940068068744,0.4452626450060164,-0.19260695875744974
21.332569564,2.354926347627563,1.4433507759154975,3.2182648877895277,-0.677821494426022,0.49872698731740517,-0.19929140729795639
21.532659327,3.0274938162614116,0.8971456392941555,3.3501838778820914,-1.2706492414441617,0.4292702196238531,-0.20184693795440523
21.732597701,3.0324237284047113,0.21578624182765715,3.477712976618592,-1.494920177591011,0.4565799032713285,-0.20077057538030652
21.932637398,3.0680321958369614,-0.5004880686523357,3.3485281047788806,-1.874593746942601,0.5484855960502096,-0.2044163011920282
22.132569031,2.4241982453232644,-1.0749436249782804,3.508837106650343,-2.4915688904593534,0.39774073941420013,-0.1995101710720118
22.332594026,1.8635855639605714,-1.3595299006405355,3.344461687518781,-2.784324092305718,0.42337774952161444,-0.19324423732819285
