time (sec),x position (m),y position (m),forward velocity (m/s),"heading angle (rad), from x-axis, positive is CCW",throttle (unitless; -1 to 1),steering angle (unitless; -1 to 1)
1.122793033,1.7471346988217544,-1.1683220375012604,3.3119231178649735,-3.130986018449947,0.40240813970286354,-0.20619452714280478
1.3227514390000001,1.0823373702741736,-0.9810379126615161,2.863707529879153,-3.7280362001296283,0.35604475798170443,-0.2010428768833822
1.522753991,0.636534346935787,-0.4808081187445503,2.910842127690697,-4.081740274829812,0.46045927617993493,-0.1611354285448506
1.722751266,0.40034523617573226,-0.017193120029756988,3.1576689153735558,-4.369743822687444,0.5463139360763564,0.01962009536316057
1.922740981,0.050942269763460765,0.6829854512461649,3.6016018812499806,-3.968758990544945,0.38030853357170114,0.12925037113395157
2.122752986,-0.49301482609776337,1.2105221726396709,3.4588456271626646,-3.948952119334721,0.29747551598536354,0.18713470095060084
2.322753711,-1.084774868424088,1.4170749861080272,3.382687662121872,-3.2405390855703495,0.3677096109987004,0.19560824730182155
2.522748267,-1.601032313871813,1.5810494140106908,3.296308527521661,-2.7673273454518226,0.41560227124107246,0.19834486212571661
2.722751959,-2.351420990493206,1.3902003193178871,3.285687725827616,-2.525295795355293,0.43890059008653215,0.20034437890219786
2.9227456810000003,-2.6173624599641556,0.9066976815344897,3.318075827053364,-2.1550598402414964,0.44731579679419575,0.2102071260894802
3.122745715,-3.0299098581079362,0.13675881638837578,3.274502541723943,-1.569298724404637,0.3474363276541787,0.2047896474824699
3.322762674,-2.98479416191105,-0.34279855279033766,3.1836425665387726,-1.3205976293419603,0.3125551250230177,0.20795008152874664
3.522744997,-2.438255872243149,-0.8963885671846222,2.7925117631252974,-0.7311988791467557,0.3375617008998835,0.21611625242993648
3.722784711,-2.032649703287783,-1.2254835231248535,2.87692954839899,-0.2864022924381182,0.405813504781011,0.2402526723965196
3.922749528,-1.366409558278805,-1.425871541587087,3.061894694176152,0.15408539023151588,0.4656011288444462,0.2385898837762856
4.122749585,-0.8766598803293524,-0.9534105038118454,3.2134355654000277,0.7059520107626196,0.45753619959013786,0.22662727513952344
4.322748074,-0.3267445221142458,-0.5208634955532131,3.4086257155307744,0.8876663036963657,0.5358987281266008,0.1279582183595085
4.522749835,-0.1946964223161227,0.14735814075527787,3.7232314259286694,1.0402615296360533,0.5315290234574661,-0.04473289234355962
4.722740312,0.30722783615308524,0.6629994991002376,3.601446289036383,0.8065232416929576,0.3856763067332853,-0.11965934074157401
4.922745437,0.8206262187745265,1.1899378963885625,3.5205881019199112,0.5044938157913157,0.3506125705970202,-0.13263200478255543
5.122741498,1.45288526993532,1.3829669527500654,3.436890375672829,0.21924298586296853,0.3057145031423094,-0.14383844684885747
5.322769981,1.9811674083791766,1.131897788753017,3.0583172217871364,-0.38732402282792405,0.29073453119702936,-0.16351439674981036
5.522742052,2.5951043948052983,1.0065957327277224,2.9028896407576323,-0.7500249800338473,0.3417911723121416,-0.1958603106659612
5.722742544,3.013128861329624,0.531339049581489,2.907770647211873,-1.4360838230376718,0.44750160867702726,-0.21710167316039336
5.922744364,3.0825839980876,-0.014833962265584574,2.996565081061488,-1.6983717655172144,0.5010287414213462,-0.20925013292857167
6.122745116,2.730479090383555,-0.6620603122753767,3.172009378060527,-2.313907505815417,0.5260807400234203,-0.20443487228229634
6.322746164,2.409218984250671,-1.0276649362474108,3.020059150600771,-2.5590727828652025,0.5013012133581674,-0.18725622209899076
6.522742326,1.8246934555297465,-1.3114536480654684,3.3335586662383396,-3.136320826012596,0.4178619893728316,-0.18398265830928345
6.722751004,1.092969957737614,-1.4403690445093902,2.990251144872232,-3.508245915426112,0.36994402467945653,-0.1854506433611521
6.922742795,0.5759842442521621,-0.9690057403148126,2.810372264509611,-3.87779954555078,0.3885569254353527,-0.18911017219324872
7.122743281,0.2933213821044129,-0.48781126514920004,3.2946822225304735,-4.3193991732322266,0.525896439183784,-0.06708575699725718
7.322742334,0.25522811293141534,0.26480938816817207,3.4148866744170374,-4.4749454533511335,0.4657845557205117,0.09571583550825846
7.52274576,-0.2825272055825272,0.8156603854064566,3.552102351789684,-4.0552164506023765,0.3056401481890672,0.17524567824117152
7.72275189,-0.7553869317786335,1.3284446786790696,3.420635238740707,-3.5914248108523585,0.28555413646710265,0.20224793163080057
7.922746852,-1.3157196703076908,1.4419129310994077,3.263122081022309,-3.0583602565358228,0.4147673525764021,0.1960607593394646
8.122752081,-2.0119061218213052,1.5849207990258187,3.0475702345336995,-2.8382174714194264,0.14302455140711498,0.22699453864645816
8.322747555,-2.486246497735268,1.1004187320485281,2.922147221842262,-2.1162464766338718,0.5229022682906463,0.20584667941677207
8.522740202,-2.8196694660336434,0.5013127003775635,3.2334633024267374,-1.7961110516089918,0.46621482430485167,0.18857932473218025
8.722743663,-2.8717509535502654,-0.21588628261749818,3.1276609009434964,-1.2607523568568473,0.3199437691117665,0.20581469791354004
8.922741021,-2.6101538617977775,-0.8315906906555841,3.1056842512852594,-0.8683208556664708,0.2922297837132196,0.20598051641093773
9.122746813,-2.1792810311658695,-1.2771724521303582,2.9664152644996,-0.4788062619383172,0.36200755852195227,0.22874053324568971
9.322746663,-1.7145516495833473,-1.418970688075846,2.8385773958980893,-0.06246540060355814,0.43678356552655423,0.22843486412889222
9.522745383,-0.9930696596239255,-1.194682347315996,3.12593283897016,0.48728906402953526,0.4731066712190124,0.2275429180976111
9.722747169,-0.4868895381264467,-0.8580137666221996,3.254198020094295,1.0163330266767494,0.49294107826731887,0.19531580983928148
9.922752505,-0.0032233674691064806,-0.27141345090663144,3.4382294250993963,1.122576495639905,0.541508856936422,0.026795197655644514
10.122749696,0.2512885334499431,0.27299303732843905,3.5999237989375157,1.0557169165403157,0.46229274842695117,-0.10076073109136104
10.322792065,0.584124051888041,0.875796532289328,3.573141698636397,0.6041175736314682,0.3434667003544135,-0.13175703886649937
10.522746128,1.3081719861951397,1.246928458945268,3.509941739133591,0.27559822040532717,0.3151282038001627,-0.13678239719289811
10.722752776,1.8842752133056637,1.3112144268384902,3.170586517419074,-0.2628866084324146,0.3082054399612623,-0.15726621528203558
10.92275248,2.5514771266899166,1.234971227939404,3.016596215771635,-0.6599452639856647,0.3160460541809959,-0.18247137864226134
11.122817908,2.9792818664949205,0.846332673057419,3.0854687691922904,-0.9573598845040652,0.402243160231399,-0.2092739393699117
11.322745485,3.0634328360868754,0.18933991907335218,3.090048270039237,-1.5942440554763344,0.5085559039808651,-0.21806099019209424
11.522747269,2.9904021251455624,-0.26108924342393336,3.154870064297969,-1.8646605863354409,0.5143423626456292,-0.210499524288274
11.72274929,2.6855938946933042,-0.8557221447546376,3.0215084365971654,-2.560168084806594,0.5055711829623546,-0.19980429671493397
11.922754643,1.8771000500365895,-1.089625675664963,3.3008526920127497,-2.7923056856373867,0.49935645942028095,-0.18366233871294058
12.122749702,1.57007539598742,-1.4040995509499488,3.2493739837639395,-3.2484901766041396,0.38016907562319135,-0.19050976981312287
12.322752383,0.9385420139798822,-1.0380612387244945,3.1949874833829175,-3.7415932255699436,0.35864799461157204,-0.1911371449667444
12.522746381,0.4440744736874047,-0.5727770160560632,2.863578206021269,-4.322146304608865,0.43343469319535166,-0.1798591173456761
12.72274442,0.26774571404599834,-0.06661997476203545,3.3576907751657337,-4.3665725066007095,0.5377259545134498,0.034458184916193825
12.922760563,-0.20495292406905197,0.46753654507312437,3.5836473217423497,-4.42211413130322,0.3766110157651419,0.13721741833700957
13.12274876,-0.5102198997507981,1.224042143044437,3.3944160433852004,-3.9927509252688322,0.28590173101825456,0.2034685066171029
13.322744382,-1.1333938313967742,1.5614687921094392,3.2615745900816773,-3.319991168624521,0.3330565450424275,0.20349785163685175
13.522747577,-1.4510099710907538,1.3721380021613827,3.1761840962383667,-2.7680802536888103,0.4568971396931817,0.19909909392202121
13.72281058,-2.299329378820771,1.3118997597124702,3.30491098058568,-2.53102135542403,0.44604892422879283,0.20305839553313915
13.922750979,-2.7573100611493704,0.5354396107198456,3.2760773916447112,-2.0272283223503895,0.4141336145596398,0.2056436211117197
14.122750263,-3.0346118571458933,0.1914772714270174,3.2282007857859045,-1.694198074711425,0.3677224076526359,0.2008426818316542
14.322745107,-2.820823242324028,-0.43607977528750974,3.2579744749334467,-1.2210058996451432,0.32495231932753477,0.20378045489665536
14.522752901,-2.599820537071923,-1.074383387936617,3.0619791929196927,-0.6556436489798934,0.32532254627218593,0.22325276844126735
14.722743628,-1.9785367100756894,-1.3140132645498934,2.903070709122081,-0.3056190269177046,0.4306867695015535,0.23473469228737914
14.922750464,-1.390794233418214,-1.4422595362412651,3.231458053412596,0.3473928505899876,0.46146068333038454,0.23677931758927312
15.122744991,-0.6579109171526933,-0.9718258316645871,3.3917565029083865,0.6845534289448981,0.47469173757735705,0.21907792869684103
15.322747308,-0.3465704854106113,-0.5736816948805952,3.412764832016963,0.9343058713607424,0.5008599900165928,0.15279474243299526
15.522744722,-0.0735121824976165,0.15626922574267482,3.543100721992738,0.9887399717262485,0.5083952831966796,-0.05322537569873577
15.72275445,0.23682222649569,0.6614398426450446,3.6850143385372007,0.8777187105314023,0.40061868137621354,-0.12456398974713877
15.92275941,0.803527766665292,0.9763130198452656,3.555254059213015,0.7136545259859004,0.34166390820003706,-0.134452519141753
16.122752849,1.5342994908665286,1.3594540974289258,3.4064743670460027,0.06967674783788828,0.2955069391539202,-0.14852802001577325
16.322751818,2.1650767343612856,1.380601540054967,3.233158409535618,-0.34187594982810854,0.2849329933394504,-0.17656787419765768
16.522751151,2.5962260434539677,1.0456685637530156,2.9206186215903425,-0.815370892297884,0.3472028524558681,-0.21246696432650794
16.722744372,2.997973596464469,0.5328577868019255,3.0774660255207356,-1.242370499303953,0.45308231050803155,-0.22312233129240006
16.922744715,3.0435329673845684,0.015293944565146309,2.9746955913535547,-1.7585867685884011,0.5290379102815429,-0.22062701395144235
17.12276325,2.9163070522854184,-0.618103703117268,3.0813545040078067,-2.15215148712509,0.5123846212735117,-0.20714671081144492
17.322746345,2.511072730800515,-1.0441600845796764,3.175487108851153,-2.710040910458457,0.48818874393188794,-0.1998792564894371
17.522752834,1.796466486996349,-1.284498481613235,3.2185520481627976,-3.1210477407838253,0.4493583973260223,-0.1930179850163327
17.722743661,1.343027418580374,-1.2044067685301922,3.0567016618946106,-3.4457546120571814,0.3610711183282172,-0.19419113646006897
17.922745614,0.7320734083472678,-0.9290188294349632,2.9265374958109107,-4.0522174699939315,0.3678596750272226,-0.20207859681537232
18.122754241,0.2734825487374378,-0.3827323183896949,3.09149563983813,-4.323396146213284,0.5488847509285241,-0.07419254924851112
18.322761071,0.11155353111208441,0.20618800879656862,3.490620483233323,-4.254636349514981,0.44957317652811585,0.07767332445040163
18.522760094,-0.3030938858401059,0.7554812345095626,3.604664367490671,-4.015277240452322,0.3279884166044501,0.16319796024137861
18.722749377,-0.7795905918119658,1.238126305257208,3.2276630424615624,-3.6177369322252897,0.3052757224308654,0.19159049598251893
18.922746371,-1.3907786503644564,1.5698314395550685,3.363178627457428,-3.136099006115562,0.38274230209311016,0.19416653802828981
19.122754395,-1.9215764452404516,1.4174430383847139,3.204721874668878,-2.7735384256332716,0.41946385159617616,0.2090987008749314
19.322817151,-2.756607550313582,0.820586412787639,3.25039786737736,-2.204810370474198,0.4107776383406076,0.21729765634083037
19.522750495,-2.929235987711616,0.5414160274653073,3.305803314425443,-1.9840256931788374,0.3979561792354286,0.2004724113999872
19.722745912,-3.0028151715277063,-0.09640863286830535,3.0904982592160994,-1.3107288426855015,0.376889191364876,0.2083981763108158
19.922752218,-2.814986923391143,-0.7245136615198654,3.073658942928983,-0.9253993926783306,0.3101565326821097,0.21879429756930882
20.122750368,-2.383964942605121,-1.3150900414035087,2.8851416413949336,-0.5518844376055155,0.36737162168232507,0.2340141848701555
20.322753585,-1.8957459883381202,-1.2032198651814712,2.8412296961589147,-0.07679288804006629,0.4654148128519474,0.24040079183807955
20.522753403,-1.104921380547198,-1.3502239196422299,3.230260422221433,0.4212735829043159,0.46847961535016097,0.22609510399171323
20.722743123,-0.6322883044699225,-0.9953078200279943,3.146676593559905,0.7422909396466112,0.469457075640821,0.20392765494976411
20.922786074,-0.32310234811307,-0.44712054833676845,3.5399636653201214,1.0543155823223118,0.5605631570595792,0.028445336468482407
21.122755034,-0.007841563849926798,0.22381235146911516,3.8781706388697823,1.049123525327455,0.4531427838242124,-0.09138459994825443
21.322786134,0.47316579644056844,0.9242067196076879,3.8408307354565285,0.6143295025466682,0.36608294415669745,-0.1304921612413685
21.522743321,1.0867590903498614,1.3134611123078466,3.6029385810401364,0.4177201614929288,0.3014369723208855,-0.1416074832081064
21.722735715,1.899157703283854,1.264097131334362,3.2464184820481803,-0.03212081961359023,0.27057980474159105,-0.16517252411784752
21.922784044,2.4224277802566503,1.1911473511637336,3.066938533204778,-0.5090894720949876,0.3031023511107605,-0.19803967721991023
22.122739437,2.9009388927039774,0.6598320952366425,2.8906456997097423,-1.0091964905084225,0.3873298095719142,-0.21577471265202675
22.322803151,3.0642548002306818,0.07491498317360867,2.9799470759944273,-1.4083040797074295,0.48361585705591903,-0.22515553275324543
22.522740464,3.033088567619905,-0.35943736345306565,3.080645133497124,-2.0391818117582927,0.5136967295359453,-0.20666645376148604
22.722757705,2.774257126341526,-0.9399806630922236,3.1096485635818727,-2.6743368169895265,0.49924477340452056,-0.2080748461197377
