time (sec),x position (m),y position (m),forward velocity (m/s),"heading angle (rad), from x-axis, positive is CCW",throttle (unitless; -1 to 1),steering angle (unitless; -1 to 1)
1.131723923,-1.7997898511040116,-1.1489891378177042,3.1826984638520863,0.08152385968637324,0.48910815030796406,0.2389796564774423
1.331729786,-1.2453056265234563,-0.9541647625019154,3.2310340717888226,0.5954069708883247,0.38474973775416027,0.21317847471370052
1.5318023649999999,-0.7988389452430773,-0.3614751627093011,3.1500323722726185,1.043909137626258,0.4257189466247922,0.12841348383606127
1.7317145900000002,-0.4537703135515476,0.025056438893888366,3.4132995713743037,1.260993854404897,0.47054572558486046,-0.05834173902473084
1.9317412530000002,-0.1860819947330253,0.8051099128473957,3.6091193537019044,0.9216837061539087,0.39625929560983886,-0.15642432230189382
2.131725968,0.3217309223649623,1.2399199420474671,3.5388400946722367,0.45351897100392463,0.3847187755033689,-0.1770960656056541
2.331750755,0.9705472303541027,1.453895020047269,3.4010083933248727,0.08660661465850554,0.38745885107595973,-0.17402726304012817
2.531755346,1.7367687707519277,1.3571648656812407,3.3456894462148785,-0.2750251349732909,0.3663093785080968,-0.17007840030420918
2.731730447,2.2825348010062836,0.9904557226008925,3.3477761724886608,-0.6652892475896971,0.3524209999107038,-0.18303209310194427
2.931726395,2.7155975650791366,0.5241626476351842,3.354066244745382,-1.1737985572498428,0.33897907813507255,-0.1861735593221366
3.131743336,2.8244748213111808,-0.12116555980374713,3.143372399055012,-1.7705698300477735,0.3394468788114864,-0.2027567355462518
3.331739246,2.5997310079568563,-0.6209061845830613,3.141539540473869,-2.0646583762589885,0.3969403658554241,-0.21331268226350905
3.531733864,2.232200855318677,-1.108156879863394,3.040797431097711,-2.5099162023602224,0.3894056177766717,-0.2104492357862695
3.73174373,1.6117114029906119,-1.4062027020208472,3.1191345974604845,-3.056569684761981,0.39150218685335914,-0.2140228569724768
3.931740745,1.0611652357512513,-1.372764031055104,3.0875346048448975,-3.4200982584670525,0.3670412208781133,-0.2013028789787073
4.131730515,0.4321814872649049,-0.9958433572788027,3.1311670752821383,-3.889517583442495,0.35349683415793703,-0.20363686800744632
4.331728481,0.16755846585569906,-0.4649597371374717,3.222063822720444,-4.340360242356066,0.4486498793751622,-0.09507582375855372
4.5317319860000005,-0.16802239613838882,0.047528788646171716,3.550755499567589,-4.303817253825942,0.38566853164756587,0.0739757109581563
4.731812961,-0.5226530548642226,0.6550657803541319,3.5290801049807596,-4.045293933940896,0.2630663962070413,0.1539614620286008
4.931762534,-1.0579582618485543,1.063672161659118,3.3568467954098646,-3.585972152198576,0.24137420679886554,0.16836038752005247
5.131817237,-1.6618573326244905,1.3463320021385803,3.0766440163022994,-3.1884937809012226,0.29765112097788815,0.1726766339723029
5.331737446,-2.2159807082717355,1.2504483263070687,3.0731742776038224,-2.607847893232457,0.3410974743867703,0.1768401546350792
5.531812693,-2.7365684282388867,0.8155677674238907,2.935746584985354,-2.277589634853439,0.3439986512801761,0.20036746002802772
5.7317691150000005,-2.9827363420501256,0.2422540546563099,2.99662980368192,-1.788820973897508,0.3468884894093327,0.1990322407631348
5.931732564,-3.044025581214933,-0.15826414614934534,3.010788743768437,-1.2787586717991561,0.37948496889438,0.21125680156765053
6.131851139,-2.734649152461782,-0.7428110606855425,3.083306446876028,-0.7591582087161073,0.418277592312166,0.21700351104371016
6.331746112,-2.2475655044740646,-1.1067781934686969,3.1171055893475272,-0.2964727455594788,0.4552839933843781,0.21065948976162527
6.531734692,-1.5763813036157353,-1.1796314917384783,3.2190683330464833,0.07806749133830815,0.4550963771080933,0.19922508176295287
6.731818148,-1.129600389995849,-1.195065914428853,3.13914260131299,0.5056715892922317,0.38866148084594165,0.1857940848266361
6.93172666,-0.4941354284501536,-0.7259006054920439,3.1923669427812658,1.0170341999353336,0.35405875159718797,0.18434600178591953
7.131762723,-0.21837576158392646,-0.23742859018107398,3.292458048162302,1.2429857564716655,0.45763021886422073,0.01823228441340524
7.331729632,-0.030219717863508588,0.530755399836834,3.4034049572349474,1.0313981254413933,0.3990668455473633,-0.13808160183589208
7.531798897,0.45328165235710643,1.0144223690805971,3.3921748199740365,0.7717347811251882,0.3473227911186426,-0.17004027206318753
7.731742936,1.0060981340968738,1.338621702590124,3.356600308455859,0.3164254010055612,0.3859705026538866,-0.18579595103265695
7.93176247,1.637898804636163,1.4677860935347722,3.3009574334110807,-0.08574484945522251,0.38079930100826453,-0.18124775371019536
8.131741327,2.266598867468131,1.1705571449957306,3.2753575463584936,-0.5507879998427444,0.370604926858805,-0.18533669810165293
8.331812505,2.7635999406759035,0.8815723389947738,3.2354488304358684,-0.8799534166301145,0.3779814334495589,-0.19784338944710692
8.531800659,2.9727122514008797,0.27463792072498094,3.2112908718600153,-1.5336218073178516,0.36201341081968985,-0.2083587967731365
8.731743743,2.8573596232415954,-0.36757820371118594,3.1714098377855398,-1.9012654095801176,0.38526666291308254,-0.2046937515977773
8.931732281,2.5743071619612876,-0.9036069745049314,3.111673031759269,-2.407448999744187,0.4179466929301916,-0.20546015895169867
9.131812035,2.0969459679398326,-1.3258746262965073,3.248193843519732,-2.8876588791596074,0.4119090462938337,-0.19715537533862149
9.331725746,1.5079274565823584,-1.3824776940333825,3.222713974898472,-3.223698073420588,0.38550437029009577,-0.20026828927143572
9.531725017,0.8184174748965612,-1.2245582094826841,3.157973922564463,-3.6507040051591098,0.35972652482630996,-0.19741880399673792
9.731744338,0.4132696429863557,-0.8041624392277313,3.1069743930737532,-4.061431016634806,0.3877093418491697,-0.1707465848442618
9.931729467,0.08397584885830467,-0.1965384897968891,3.4098901922575022,-4.331318387899114,0.4694668226564685,0.007672433546746925
10.13172796,-0.11162578305621584,0.4495232466301421,3.616610702159522,-4.141682440147743,0.32837975853302453,0.12172613084630375
10.331714917,-0.6013744781065767,1.031788750245397,3.5397751144888856,-3.7700903681004876,0.24526044782921097,0.18108128362245596
10.531726926,-1.125395118022001,1.2925942810309052,3.299722117571214,-3.3889007958556094,0.29228675057908554,0.1829449535399672
10.731723148,-1.8507461750140932,1.3755864061214222,3.107216843174027,-2.929622376707986,0.3341452898913142,0.1688245875497965
10.931803602,-2.3730826991545446,1.2001627592235589,3.075952091577625,-2.52910919450781,0.33580127370831236,0.19141303557960374
11.131738481,-2.8356134071998236,0.6949498237375077,3.0093384974086907,-2.072280871886153,0.33795171278395625,0.19767693264055727
11.331730654,-2.9917095832534693,0.1773584981449592,3.089734809911588,-1.608005378705118,0.35138023699680665,0.20469837876875854
11.531742742,-2.8982436939684395,-0.4922286430428696,2.9811434350721218,-1.0621666495424875,0.378082760744647,0.2195781264465568
11.731729861,-2.46051207785437,-0.9625092837804639,3.0726517730483267,-0.6342961913876126,0.46124218605948314,0.22769136074669855
11.931771745,-1.963902304236712,-1.2577706315533175,3.173367557924313,-0.14043186390002416,0.4413548603695316,0.22746839193304685
12.131724402,-1.2935107200726188,-1.2765488472786197,3.2251765989073036,0.22626625134212153,0.425655426015845,0.21059054834065494
12.331746448,-0.6497476236995934,-0.9528367369490077,3.113382153681024,0.7664449452501207,0.38687975257868007,0.18593142814476407
12.531734519,-0.2998761764404888,-0.5260451496600311,3.300442995680973,1.1410483656267705,0.39824784779638395,0.1277062543252558
12.731804322,-0.03142667178568616,0.15667968586241504,3.4129866341809505,1.2055213396052176,0.4530510181825665,-0.06524831650073908
12.931727675,0.2953371926977123,0.8365166032293739,3.5272137730526745,1.0280904582768975,0.3454916348786809,-0.1595355938249117
13.13173104,0.6841127943490327,1.1065883596285566,3.3472514118141787,0.5638979817492225,0.3380578226419509,-0.18307854672749063
13.331733598,1.3920202285177437,1.463669733252218,3.3518608610278293,-0.017538317154780228,0.39224052054342495,-0.17896685129425632
13.531740565,2.021877036565847,1.3881196465507588,3.239278500596147,-0.3588421582822403,0.37767597603250347,-0.1809590042023821
13.731817068,2.5143015551143226,0.9957441100351658,3.232373192883678,-0.7964866600797138,0.3644351299649732,-0.1903545729655664
13.931819463,2.872487258659971,0.5039390082948185,3.2556073900183127,-1.1859975652627948,0.38564339836408557,-0.20209941478819138
14.131726718,2.973557028584815,-0.1359216530977386,3.2424551889017352,-1.7105884815181258,0.3784966729602856,-0.19553848545975425
14.331737448,2.789395773471774,-0.6585467116063666,3.2020317039491166,-2.0948050427081553,0.4037404287922257,-0.20339924292123066
14.531807442,2.450389686842449,-1.26327282122113,3.1620613033647746,-2.6385156933194085,0.42425294559316196,-0.20321720993045056
14.731739468,1.8042055846825904,-1.3492445822566603,3.2196653500554677,-3.0349872102881945,0.4047628668021736,-0.19186178922423655
14.931728815,1.2525762872673305,-1.3411507945294878,3.2310596598138472,-3.441495653123103,0.3771373353662512,-0.19443301095649693
15.131726549,0.6016666827788432,-0.949011944293088,3.1493623941110314,-3.881221311224936,0.3374538870768287,-0.18965710559958796
15.33174524,0.3624500803094758,-0.5095155640664745,3.1906725733243415,-4.288244652155288,0.43153422734662705,-0.09835298520327262
15.53173211,0.01835219832926168,0.11399689718288301,3.477091281081875,-4.262103595141513,0.42242920068250617,0.08948514134552149
15.731728565000001,-0.5025819870719217,0.7621475755548492,3.5786650887213516,-4.070178533566392,0.2735533416269237,0.15995681839345793
15.931729323,-0.9021530028463572,1.1982124159795162,3.3789900383321747,-3.6556314898829934,0.25539112558966753,0.17847587444601626
16.131742321,-1.5117053741066373,1.329178216577423,3.2105019561275645,-3.1714631853362394,0.3395733749545357,0.1685844821830264
16.33172789,-2.1484245097535277,1.2965268097941234,3.1288423081624304,-2.7012259741118263,0.33158826931623114,0.18151302020053167
16.531817473,-2.6322323747505494,0.7786052205193739,3.1920558704890283,-2.2853533918201627,0.31954533569206145,0.187952100247544
16.731725299,-2.9118069746836537,0.38654159080440087,3.0593001880602326,-1.7884248388534438,0.3284298521763383,0.19986160818255078
16.931807904,-2.88135204619849,-0.31276146151741313,2.989830583227773,-1.226157868507273,0.3502408063847859,0.2185449906926651
17.131777487,-2.7163992126912015,-0.797874431852521,2.948381892693819,-0.8492065476910619,0.4320341416257184,0.22585089981127374
17.331823787,-2.2219679247629425,-1.1409384850776227,3.1230105216154085,-0.4369372608765531,0.4447785802876782,0.23069455976451847
17.531746713,-1.4852347014208889,-1.2918982713754497,3.1168859733162733,0.05264182434121962,0.44208262786182695,0.2213573413934364
17.731845585,-0.9780422462203489,-1.2170747692618145,3.152539583076699,0.47098030750660363,0.417095418772393,0.19934229208490545
17.931748439,-0.5226850353225362,-0.7363243274188359,3.1827967214944763,0.9803141847523001,0.374423104388553,0.1934408127656078
18.131763547,-0.18302943385852039,-0.166066757260975,3.284277449611489,1.2636509974083376,0.4572775422466169,0.028239279978130773
18.331739441,0.006638847770658186,0.3948937525368269,3.478091742382858,1.1808776796383849,0.3918258898462871,-0.12446487339005861
18.531911628,0.5060414569899998,1.0631893789810118,3.4372758153987704,0.6822094195479821,0.3394446780345881,-0.17055474036993618
18.731750824,1.0607994854847314,1.3862085014034888,3.2815902268997785,0.27589007192460907,0.3714297565153482,-0.179614556651735
18.931734791,1.6270472008853032,1.398542614364553,3.2556670182382113,-0.12764574324709047,0.3631009260150514,-0.1736532565737779
19.131734076,2.338716830893633,1.322457102583113,3.2765724041628177,-0.4623114087510809,0.3603289885351094,-0.18597810923569844
19.331724846,2.820768930403633,0.8103845970540977,3.227062427277206,-0.8010653505525085,0.3631705153063454,-0.1967947354322521
19.531731164,3.011612483112722,0.213723806968947,3.1054167712710794,-1.4723896539191323,0.3643540862112405,-0.1948951588630886
19.731726685,2.942588343223014,-0.3988362399124537,3.0685546017422074,-1.8402883940184684,0.3915725322201725,-0.19878005576616137
19.931737028,2.6198744837616843,-0.9753087474933181,3.130896220815305,-2.3994260296389713,0.4170832135477289,-0.20131966225153483
20.131808056,2.120416108206027,-1.444298009620076,3.177788965655335,-2.8456245429523164,0.4194928108172529,-0.20532506777291434
20.331726672,1.5372468755141449,-1.3577536338123457,3.2955280560764,-3.2970399045144627,0.3933167961282635,-0.19080041429822447
20.531772426,0.9728117868758362,-1.207683967448797,2.949030513187078,-3.7756962653438726,0.15373371388752363,-0.2673451535741496
20.731735047,0.4644429508435962,-0.8646634984641265,2.993064510097694,-4.221218353884605,0.465526358488489,-0.14919880811250594
20.931723514,0.1722177668606716,-0.3049999737922904,3.3277852164465904,-4.288436368462953,0.47421222399596924,0.016737955077181
21.13172764,-0.02600951380968422,0.3613061567047682,3.6437332385334757,-4.224843455279471,0.3530786026070855,0.12671509675316853
21.331872572,-0.4636516936320212,1.077468197882641,3.5672181746879987,-3.7966071134574575,0.25445198464206975,0.17443984343232397
21.531734498,-0.998902828645096,1.2739548895003392,3.2981395680336534,-3.2876000385148676,0.270475687677761,0.16383908514534554
21.731729154,-1.7623457214318867,1.2643757597035596,3.152351758956047,-2.9842872565414837,0.35471610571046047,0.16163781658974133
21.931737961,-2.3246945086274797,1.070872020046399,3.0628752643716415,-2.5272762444524672,0.31990589358565574,0.18403762959204648
22.131728641,-2.7492532178991755,0.6168937875386424,3.1186734582776623,-2.128143573921977,0.3295652033706434,0.19002024527654826
22.331724779,-2.8912675745785905,0.03867004933113642,2.9902938936579324,-1.4967273684572493,0.32559657564594247,0.20437431613300083
22.531824896,-2.7576978129705285,-0.5441392665176893,2.9676260454985797,-1.127680821612701,0.3580924366237216,0.21484562228019854
22.731731171,-2.3982072087685458,-1.051735308538957,3.003916204021309,-0.5778916887207077,0.4450136735769374,0.22452273097837655
