time (sec),x position (m),y position (m),forward velocity (m/s),"heading angle (rad), from x-axis, positive is CCW",throttle (unitless; -1 to 1),steering angle (unitless; -1 to 1)
1.134739925,2.2513358280062215,-1.0960963855753494,3.2661507013269655,-3.045837628598922,0.47428477682941733,-0.26436266903652395
1.33473707,1.6316195377664433,-1.097900431008317,3.170393744898613,-3.583571943590527,0.37650319259076964,-0.2573431803403921
1.5347302919999999,1.096612516836119,-0.7930456428447364,3.100505283918947,-3.9872624828781005,0.4539081036460494,-0.18504149589996488
1.734730474,0.7196508034505497,-0.20489702540870527,3.66982281411754,-4.050740617417095,0.5859258266161382,-0.014621332467023013
1.934754957,0.21137609419030076,0.4096436400867596,3.8962007712224063,-3.986751321497185,0.40056357064208825,0.07489265082194738
2.134728051,-0.262328437009085,0.9598509619051142,3.8346490483612317,-3.7188673635520924,0.25278767758455495,0.13572597161677313
2.334755312,-0.9639613523011735,1.2532790308332942,3.5198656394396686,-3.1607310683880416,0.21689168442867057,0.1526084612407777
2.534735104,-1.644404269893527,1.185168056193116,3.234992357852766,-2.877894616086314,0.2884026331514864,0.14984685302513145
2.734733117,-2.2017012997767367,0.9108147585150989,3.1918596500852296,-2.3620255604725684,0.37494419503326804,0.17392939247268113
2.934740868,-2.566671696640606,0.3514455279986791,3.2120494450361576,-1.9699967848410531,0.4030221171864786,0.18258426249233445
3.134735302,-2.7487660916981294,-0.21004244523996646,3.185265404194479,-1.502598256312754,0.3933219446670198,0.18832633978282473
3.334740623,-2.5311519181947473,-0.7085530358780269,3.1998925635498185,-1.0002705262590328,0.4048897096070895,0.19994982279961623
3.534734658,-2.206212405900028,-1.2559830856661982,3.1124711346158307,-0.557027288915855,0.4323541483395963,0.19918612038514324
3.7347352430000003,-1.4729298803346902,-1.5493951396650532,3.125836002053733,-0.02367749749398343,0.4268375310508666,0.21014446504567533
3.934737747,-0.8822308212490368,-1.433826362255401,3.162611971052314,0.3453084629077461,0.4400073444546797,0.19515031533994381
4.134733986,-0.3738486564106443,-1.0802842800920918,3.300335476977654,0.8476822483193907,0.4147502370115298,0.18686280568552688
4.33473323,-0.03149547178166513,-0.5151281781588493,3.3564295791396983,1.2104621169534606,0.5149327028500487,0.07938786625986474
4.534736131,0.24125110858434934,0.06557209077681275,3.5308356151980265,1.2618222744895742,0.46798912041214735,-0.08706951981035743
4.734741665,0.5744715658118731,0.8210735208494343,3.5992769517785423,0.8882300718089252,0.34083431008505055,-0.16201584092620994
4.934738408,0.9961628718677012,1.3035538893014196,3.5484832323337776,0.44498796158994525,0.30875014541926615,-0.19328284993503891
5.134731736,1.7117807974301562,1.4699183699223126,3.3809980982481065,0.15166891780864783,0.32341779180743246,-0.21521072269692626
5.334729784,2.2925492982149507,1.4880625763900437,3.109275263215329,-0.43454998663815425,0.3828518357766516,-0.21710344075138668
5.534809178,2.7957077938845494,1.153896756257123,3.328042648064506,-0.8350011462297796,0.4879929602673837,-0.2363486370740677
5.734735127,3.136618393281587,0.539950048099324,3.2728942313261618,-1.307341271673748,0.48274090882888393,-0.22930263778481033
5.934727212,3.141587854366104,-0.22353372200620686,3.384789419296179,-1.8410875464765473,0.493740380892229,-0.22622805702041757
6.134736122,2.938601074409124,-0.8913262947000151,3.521541862100751,-2.20553567641676,0.48128128276612336,-0.20981281036369384
6.334740677,2.480012397624653,-1.279934391122997,3.4460871576091323,-2.627996693227794,0.4398927874050237,-0.18975071824308887
6.534747095,1.8001298655233002,-1.5028210550238779,3.4674213829511302,-2.9807631019402514,0.38877883837104205,-0.19717734890538582
6.734728811,1.0961365562438936,-1.377677138798185,3.2181260594854253,-3.4719969002792506,0.15364922442692222,-0.24320452368805176
6.934730182,0.6883280998438212,-1.107346330724565,2.9589357176838025,-4.021839962476965,0.4037316508915581,-0.21061235093357536
7.13474933,0.32853010394080795,-0.4152426134491384,3.506005930419006,-4.329583686308868,0.606101168967475,-0.056047562898687654
7.334704649,-0.020302136646233607,0.05440913776484897,3.7543947879722963,-4.272938340411577,0.3961083215883861,0.06189634409001392
7.534733415,-0.49377639522628464,0.7363152794296565,3.8235544157202552,-4.029076615955766,0.24567360677576225,0.12767264672785153
7.734733352,-1.0123817193023386,1.2287216490652169,3.4714304050676157,-3.510965413368618,0.19699921832803724,0.15311876634987556
7.934752978,-1.6077189340647582,1.43547162648475,3.134573281868222,-3.1096372390966773,0.2599988733568805,0.1665914495976145
8.134729509,-2.1918012256364645,1.1645463973799355,3.1044126140162467,-2.6681108892294216,0.3680131882205747,0.18186111875123454
8.334729173,-2.6367837143050683,0.783315951210413,3.071442999086685,-2.152934992377301,0.42157099749651206,0.19532080032116672
8.53473369,-2.9116631094051404,0.13152877207085917,3.1848681472089457,-1.803480476629114,0.43005778598818256,0.19169938650499277
8.73474557,-2.905324740548992,-0.3979712097953156,3.1571396479969307,-1.2572239803784355,0.45002769755430366,0.18773299161580587
8.934732499,-2.488630327156595,-1.0250760040029356,3.2439890654516517,-0.8323778426998807,0.43034824895042534,0.19367190369125284
9.134858932,-2.0763120653084526,-1.3499780272744666,3.297815729216095,-0.3036970193169857,0.43684277633225393,0.19498124927996038
9.334734023,-1.4330671702905733,-1.4220180659861077,3.24236962532398,0.1343247587597907,0.4575230130442104,0.1991031563636031
9.53481246,-0.7463370444942404,-1.2338673464293084,3.229536977139178,0.6100670304608283,0.4098973842632111,0.1901013993079207
9.734734319,-0.2664899939427595,-0.7412887859826787,3.336109679975931,0.9901934094779898,0.4292978323237724,0.15884682672902223
9.93474856,-0.07271877894884902,-0.21062077733274245,3.4434721983946774,1.2399027081444718,0.5592452144423443,-0.024943745988628408
10.134745645,0.2283294820038196,0.4387858422890101,3.618155167632782,1.072364380583481,0.40802364091231963,-0.13986623092216993
10.334738146,0.6411597574727202,1.040037349049324,3.6330312212281517,0.7613240272577021,0.32800500921427994,-0.17712159992168772
10.534731063,1.2545724141960963,1.5428801598302535,3.49050431505,0.28032675767759724,0.34412539676871917,-0.19823306184905748
10.734725722,1.8281806033486052,1.5778512303170704,3.3430772695377913,-0.06441100283378486,0.36029248390516183,-0.21691722858828863
10.934728295,2.5212816506402986,1.3319158457649805,3.2409413408837677,-0.6301036328282622,0.4343710268489431,-0.2329796485991499
11.13473665,2.8647775207369315,0.8260364490923408,3.2814578156584555,-1.1519630309360112,0.5247621984586979,-0.23849184427699052
11.334725632,3.217596101647128,0.299130802709746,3.473627239321771,-1.5730596938042036,0.47653348966706316,-0.22956105410902153
11.534732962,2.996795769914969,-0.38371343436274735,3.4484040789314947,-1.9885761219380937,0.4916711173189852,-0.21669850400137738
11.734729329,2.6706699777362077,-0.945739372911405,3.3926123687800738,-2.3519372915669923,0.46107647756972603,-0.2006467376490111
11.934734858,2.181127004920809,-1.2663032142230204,3.4585987794563575,-2.872347258654562,0.4071773751139884,-0.2006749658534446
12.134740762,1.4508890154645648,-1.5188436686979219,3.2867056783396427,-3.267060037732168,0.36999440269196965,-0.209203111505902
12.334729728,0.8663900589942157,-1.2974116283381156,3.31250977082527,-3.673813817586523,0.34176822463588613,-0.20758112258862718
12.534729749,0.4038764949499393,-0.9011552539140367,3.270635372077359,-4.054013399998198,0.45915920908514624,-0.16500192345496748
12.734729604,-0.025489238193555287,-0.20201809210991276,3.665804483955812,-4.221643507526815,0.5206982655123811,-0.0013744997692265925
12.934730287,-0.323890572198735,0.4220828029686796,3.7581052054606245,-4.126776344430925,0.3131262731437362,0.08521601589699518
13.134774631,-0.935573806521158,0.9833232577451023,3.667500106688031,-3.7635039061175206,0.18345639110367068,0.14538020252340056
13.334730797,-1.5102220098406174,1.3042193085492038,3.318649116765245,-3.299468749592148,0.17572608690666155,0.16621628331796318
13.534735499,-2.1205527507944577,1.2290362210868175,2.9943896336844915,-2.826479566923638,0.2753764123594641,0.16638504808691795
13.734743683,-2.709675548801149,1.0768898501893016,2.9946571320438933,-2.4492960292097146,0.40343430913217376,0.19938827320899552
13.93475813,-3.1289727928866684,0.6424288698486635,3.0794691082594863,-1.9540724862005876,0.45534472454145025,0.20424613060662028
14.134731463,-2.9925587243636,-0.07766031194158596,3.1461756639033913,-1.3474665424968977,0.4518713753213726,0.19894941494511414
14.334728751,-2.7956524882124225,-0.7125047172174692,3.1705344141330314,-0.9534889487192522,0.45589014342260853,0.197187302705542
14.534742199,-2.4741793912265253,-1.1377072271330952,3.331685580603447,-0.5182280586352229,0.4632882597967229,0.19556651116759155
14.734736526,-1.8845409067444447,-1.3378217882870063,3.2531158744569466,-0.0432319154846237,0.4425686289723892,0.19901392359934716
14.934762376,-1.2600502856904745,-1.3042233171059323,3.3429190256886723,0.3856036166389525,0.4250342232644472,0.19146665603099716
15.134741974,-0.564504853653861,-1.0823139629500698,3.3297274068776,0.7901722885078344,0.40513919438689433,0.17654134678913924
15.334729013,-0.24877196152142855,-0.45181366079147345,3.3230186421823005,1.1992485981093373,0.4707190252483564,0.08352560745694855
15.534741891,-0.001729339063561909,0.20589160525568695,3.696340125357895,1.2399006109539374,0.5096415186630999,-0.1045627961654016
15.734736927,0.3027903318673314,0.9389619927756986,3.703313377706975,1.0080436989248942,0.3583926588867737,-0.176314402827143
15.934734289,0.8601557448559032,1.3541268161087272,3.56223700416514,0.591357807054804,0.32000276664201727,-0.2026980939768778
16.134812233,1.3751775758355254,1.5990888892310273,3.414449692930368,0.033451146973548056,0.3604727368876043,-0.21376572131338548
16.334733672,2.073470228609149,1.514519181370015,3.3727894720321268,-0.3098749161973829,0.4596309401802432,-0.23207707853318393
16.534730592,2.630943366065745,1.24522052160068,3.2945477580193416,-0.7341045571324131,0.4464027059323791,-0.24716409556473357
16.734727512,3.0533888803662554,0.6462417207120534,3.3269430352756304,-1.1981301467373542,0.5052908720061761,-0.23968044933299962
16.9347413,3.1002437286579703,0.02292025323282265,3.473870781764053,-1.7641509225984093,0.4916705032730846,-0.24075993099578152
17.134733956,2.920513826913309,-0.5863014582930416,3.4263022984297806,-2.077466003802821,0.4774232732970285,-0.22593212786243178
17.334731742,2.5012983340477213,-1.1404459225992427,3.549856391812489,-2.6479699442819897,0.4402830047012044,-0.2183906711073525
17.534774281,1.8291682748832199,-1.4596644160332197,3.3327338670087627,-3.0598173729161373,0.3753619149017809,-0.21354270438451706
17.734738331,1.1642669872005653,-1.3427266973382144,3.3214590392551284,-3.3896866126232683,0.36370890813141266,-0.2171631427344114
17.93483326,0.6923652051036617,-1.099002368281671,3.0031884822494406,-4.06748459584676,0.332430601038371,-0.2598682398143162
18.134736047,0.26838797051742463,-0.5025622784142462,3.394525176768607,-4.252890024461555,0.5919192694544835,-0.07117018417928911
18.334732609,-0.05586551350368564,0.10637055353955713,3.7573020536248363,-4.2163404120192585,0.4315115196204776,0.04755668260578367
18.534729831,-0.4970094144532161,0.6267086301840248,3.6828242262581576,-4.007279236358656,0.25400149948829204,0.11287815262485446
18.734733932,-1.1262355337363232,1.0979510929758003,3.47391644863189,-3.644500964258647,0.18054049122869362,0.15427295185858045
18.934794517,-1.661544417294772,1.3731185293216177,3.1747810103798986,-3.0780023646003114,0.24334069281086962,0.1562281674370864
19.13472975,-2.274218049453753,1.1058639868973208,2.977726434824648,-2.5416301319170107,0.35642873697676936,0.17291192373536968
19.334824416,-2.8160928455089986,0.7708369656700929,3.0845162042045944,-2.148404363174565,0.440572914736328,0.19427806377462287
19.534747223,-2.951587420159414,0.0625012621993641,3.1723928257281306,-1.7079086515368367,0.4364579111832501,0.1830629374528641
19.734731985,-2.9564306095022417,-0.5188939195935574,3.2805224467161533,-1.1825701302072285,0.4343278613219659,0.1824901270365281
19.934735731,-2.4504539886424683,-1.06283843524654,3.1139747874156942,-0.7546769148115062,0.4479461577996016,0.18417424641449212
20.134752779,-2.025990003107638,-1.4391676521623284,3.2056954920358676,-0.3683744233144696,0.4464702775406957,0.18294884539572845
20.334731529,-1.379944467183985,-1.3884653712807753,3.3607958934390654,0.11533772717729099,0.4418072880410441,0.17659672957364844
20.534840186,-0.6603626702409994,-1.0861224060214432,3.2699838450341283,0.6693083240452071,0.4162546781097506,0.16179191421381625
20.734734917,-0.3350990055304903,-0.7023693653648038,3.3572790870117033,0.9681098128907606,0.4398202726995831,0.13118111347851774
20.934734391,-0.0027572704480803706,-0.16930882947976292,3.383400324360253,1.3473625453244662,0.532411694760558,-0.03574381537758677
21.134726975,0.1419377119488767,0.681008931258528,3.6249640835362875,1.1274586405751343,0.4100316986020617,-0.1410366955790881
21.334819948,0.5469408682059297,1.1961708020446347,3.6118609589321977,0.713497621463174,0.32880476225666255,-0.1894406820898579
21.534729438,1.203948539559666,1.4721684679219302,3.4678613286206077,0.17382596130835348,0.3502314775553065,-0.1966980946519215
21.734760263,1.7552377691274694,1.6238035441789371,3.250393551832225,-0.11150253670795032,0.38183164975292266,-0.20558481016595417
21.93473617,2.5192654221587403,1.4133269021202253,3.2786307157044123,-0.6099811671183347,0.4354539253574342,-0.23116675366351336
22.13483736,2.815806923307104,0.8788836278088267,3.3102772974081693,-1.0581703779111706,0.5049051408409995,-0.23402453290051944
22.334734711,3.071996207937187,0.24758418261274812,3.4212717335162255,-1.566966674307059,0.487154592327749,-0.22261269874871997
22.534737357,2.9852970524803926,-0.37806502966742606,3.417989732451379,-1.9139507487343834,0.5072049098208037,-0.21626271497276645
22.734752177,2.600765912464557,-0.9465546842941136,3.4830025964247966,-2.4215121299465787,0.4579026840810554,-0.20450852592555507
