time (sec),x position (m),y position (m),forward velocity (m/s),"heading angle (rad), from x-axis, positive is CCW",throttle (unitless; -1 to 1),steering angle (unitless; -1 to 1)
1.131963455,2.5657662415533595,-0.2330420957676348,3.156176979634304,-2.1840832841919844,0.3988535435794996,-0.2298115928632281
1.33196297,2.0271899373280795,-0.625484379015907,3.1165465969873796,-2.6066407977916146,0.3549486104821836,-0.2165484947303297
1.531979471,1.4914239955649589,-0.7518491315298159,3.0352481844269734,-3.195588236708553,0.3392627727585487,-0.21470580296535782
1.731980347,0.8909845978225409,-0.47440196162532333,3.0552817937449572,-3.6304899160138153,0.31539193323379877,-0.20374686010005558
1.93196395,0.5099197268130077,-0.17807187086330975,2.9613509524475328,-4.075086639438702,0.3350484298934802,-0.17936316460886675
2.131971194,0.20376956555938694,0.35882742375204957,3.2474181422083164,-4.251645373071546,0.3921167984931103,0.005855633571819794
2.331973669,-0.18793971148296207,1.0375511046942578,3.3638392051902226,-4.1077183582689125,0.30224299621994366,0.13027221250539486
2.531963973,-0.6045327226257927,1.4296603251440791,3.318418004949179,-3.531222146821031,0.28157623756647876,0.1764479036211315
2.7321070890000003,-1.116261766412908,1.7096459603334409,3.232466662793249,-3.145107630043385,0.3341748216620205,0.16920517721904968
2.932010399,-1.8417060679617527,1.616416855046463,3.1093069131787847,-2.7944526749557808,0.40440076343247344,0.15898928178725796
3.132015774,-2.3215081146170884,1.2129442230823568,3.154501599568059,-2.3878271527828328,0.3462556820266597,0.16667067127137872
3.331964881,-2.770620775547724,0.772571554979889,3.0767656597178767,-1.9100244109917697,0.32397017432308095,0.17842313347758848
3.532066336,-2.7298317079674974,0.09482529086044167,3.069713026486996,-1.4546636596776108,0.32061335562463994,0.1846743200264122
3.7320483280000003,-2.7624753199585537,-0.4089844800653752,2.985861232885534,-0.9815713684231774,0.3378925233090317,0.2006199350229732
3.9320180440000003,-2.2531392734447997,-0.8755880974073034,3.030300142779308,-0.5529817676716425,0.4015044911393767,0.2042694567756082
4.132028675,-1.6546073598036333,-1.0767738587710782,3.0437524008676666,-0.09540588145768941,0.4089474827097189,0.19566419307647
4.331965783,-1.1171712828550524,-1.0122678416085982,3.072054413978403,0.3458786794810539,0.3838321420729713,0.1884979329476173
4.531962738,-0.5226239888937807,-0.6745915063137254,3.0968884229562144,0.7848854436661419,0.36465879388413275,0.17949612782865496
4.731969645,-0.26561386950523586,-0.1676872239813093,3.042074769836519,1.309118646363742,0.3676958687098852,0.1015389021684968
4.931981848,-0.057900740618619106,0.3421909482620943,3.2813270669987,1.2454419325176087,0.3982572454221664,-0.10290741486419072
5.131966807,0.11993189906768537,1.0432614942232028,3.198334520316061,0.951766937951534,0.338601132869503,-0.18343495327317105
5.331965169,0.6115256857887186,1.5765198395053315,3.12120729888336,0.4809256069404028,0.37692891545943663,-0.18975291679247494
5.531960956,1.3303720808194137,1.6773978831885283,3.217312609686269,0.021178221469964634,0.42462494365547176,-0.1779190678762501
5.732024487,1.9748507146713523,1.462548970164441,3.2485724534200457,-0.421293233047646,0.3844263841232965,-0.18020473380627697
5.931965616,2.4434322590200144,1.145266157497122,3.133403874203741,-0.764973678042035,0.35536662842092015,-0.1845565830288124
6.131970074,2.8199951927263274,0.6085727454020101,3.1940427038879977,-1.300601814842151,0.3585481938346726,-0.19710898561986576
6.332003061,2.9644084854406616,-0.027238069273135636,3.1544191990276,-1.6414898196027568,0.35423511324063295,-0.1932148923903137
6.532061254,2.757739263941728,-0.549157040228821,3.1521549237013526,-2.1595394659956675,0.3659427216910952,-0.21008772011727675
6.7319759900000005,2.2677544382576964,-0.96079011313989,3.207188873586358,-2.6483023788022186,0.4009964201833814,-0.20965984820058725
6.931969364,1.6703305381933367,-1.2077834255878002,3.0598515395245554,-3.0828339175835398,0.3739492547006645,-0.2025562923159694
7.132051994,1.0458471854757194,-1.1243727735242386,3.0750515219434313,-3.478614265524152,0.3516287259563859,-0.20509652134196274
7.331981851,0.6559135330282705,-0.9222046542422472,3.1390968805482364,-3.952277639974354,0.3333145738888652,-0.19598981127713166
7.531964077,0.23676745741565802,-0.295841768196901,3.1633441738892976,-4.333993999949861,0.3969087417031523,-0.09561186790475137
7.731971737,0.017652876312546903,0.20893437858383335,3.395296896108473,-4.299093914618954,0.37120875124421915,0.10501419008261038
7.931967861,-0.3715398143467651,0.8419970098216722,3.494445426842211,-3.9893849046785514,0.2919609776312068,0.16466160292967413
8.131969545,-0.9262622836146734,1.2002751486596301,3.2817513426012592,-3.5055870713175197,0.2866146826669346,0.18935989044500476
8.332049723,-1.5253559944880233,1.4712797221373164,3.1296666196770824,-3.0453789912613107,0.3439758907198928,0.17409820136224388
8.531965834,-2.0691959020260016,1.2186424684585024,3.151904776955208,-2.7394418112577235,0.3480118505590604,0.17540669607766182
8.732065463,-2.646230967667975,0.697675408207804,2.9679941163332777,-2.14655025531066,0.3073478526663033,0.1715066352567161
8.932062972,-2.80970884465744,0.27999709137961615,3.014893386105424,-1.8306667538551218,0.31098366351166085,0.19056741843399808
9.131961145,-2.7733918889419975,-0.3327118764917239,3.0348727050702715,-1.2808581598916482,0.3132575329014692,0.2031512337787238
9.331962551,-2.4594114739530997,-0.8829337722761,2.9532142084534345,-0.8187103343620907,0.3646749385619061,0.2131313169307387
9.531975653,-1.9333020349176722,-1.2641245803600407,2.94179391242338,-0.2894651914683275,0.43896313298294104,0.21569765050812642
9.731967219,-1.3436984922106134,-1.3582345959518467,2.9409499796796137,0.07853611124914851,0.4036620942253964,0.18924864233929187
9.931985637,-0.8652123870220086,-0.9483697799633558,3.1757520982951184,0.6035896321945811,0.3848796428480941,0.19068799817282306
10.131962886,-0.41592559692397496,-0.6490107948171469,3.112477630274462,0.9329816456901324,0.3735203022629074,0.19060604035049836
10.331960625,-0.1659819580337213,-0.15677876842603036,3.2825599445980154,1.3230306550415631,0.39309963305587575,0.012677359162355437
10.531965976,0.009466248869874613,0.6024904314017794,3.33849039387792,1.0399699313906599,0.35092600848876526,-0.15174751801103611
10.731967123,0.4904379634470445,1.0011904924220205,3.26669434696006,0.6629093734538692,0.35319771863277666,-0.19066659350118445
10.931979624,1.03817840451527,1.4678038621293836,3.253268565537784,0.30792405965344216,0.3756161319508268,-0.1773660874673898
11.132058872,1.6985881959483369,1.4678826157974212,3.193585685513032,-0.19727769530940995,0.37183484621463997,-0.18414037357942423
11.331982475,2.2607261044593296,1.2899797092281766,3.22558013579635,-0.5829678321886919,0.370025421958595,-0.18424643482477257
11.53198591,2.6966220199172812,0.8571870362166355,3.2122807416044865,-1.0062517285039665,0.33514027787614836,-0.18944483105859503
11.731968189,2.950612756843326,0.20517981714395134,3.050914469962995,-1.4751720211482073,0.3458729712274925,-0.20069958418639158
11.931986887,2.919389929848893,-0.3881651070717481,3.0558876476373236,-1.9629357306027737,0.38518346418399896,-0.20603095564015897
12.131981639,2.6337954420137817,-0.8535506959142332,3.0492786401010408,-2.447089860079943,0.3756459060696173,-0.2051509579684351
12.332060121,2.139879606027898,-1.1877891423496796,3.1169453851472197,-2.8019089321923514,0.3954782634666193,-0.20401061337753978
12.532045606,1.4156521440210181,-1.3090634427319974,3.0167028398543656,-3.259451139179861,0.3754416798584075,-0.19583648566991477
12.731968227,0.8612504149901637,-1.010820504263653,3.100311182475378,-3.7421167401139446,0.3463121349511666,-0.1948389344203417
12.932012705,0.4442245503585902,-0.5929656174587573,3.0538376339635587,-4.1892489596637725,0.35237493777400375,-0.1740690685307807
13.131986608,0.19235891796353727,-0.13754763741583675,3.3001378482111017,-4.311102125584396,0.43013657482842593,0.03351612598897499
13.332062515,-0.13935941070689747,0.5293342820559468,3.481807704782189,-4.24360438443905,0.30591313102452145,0.15714120648298108
13.531994336,-0.49976929357171535,1.084007577071839,3.3793591712596394,-3.6416131568332797,0.27566090368361573,0.18903890957995184
13.731960245,-1.1739960928828717,1.40208818153344,3.156246153172112,-3.1185591696355286,0.3368784132493793,0.15275709917771285
13.93196784,-1.7819703251714463,1.233831784312298,3.1098855907248817,-2.7378447614673673,0.35500194492592896,0.16837650927456158
14.132012949,-2.3185294870437136,0.9504653048209997,3.047731582629796,-2.379636958499909,0.3365321463823369,0.17094764774289753
14.332059502,-2.603446077517838,0.5245673377286242,3.106863254345292,-1.9050538510958335,0.29711765991937017,0.17451856817639333
14.531966159,-2.865968716287309,-0.1770798975640574,2.9737668416005985,-1.6043161769113934,0.29665753913970505,0.18623304675772434
14.731986791,-2.6514199155105374,-0.6401594863912994,2.8894633104582037,-1.0465166032782593,0.3493683381675656,0.22002331604109102
14.932026805,-2.277516242683299,-1.1181375466139736,2.9869167495542905,-0.586366247068383,0.3877611084800928,0.21634165676526718
15.132042397,-1.6230095363072514,-1.327099498634491,3.0073273396860896,-0.1563364332665686,0.42560902682252616,0.2158257323614448
15.331983125,-1.00243471442035,-1.2307768418856455,3.0241993319515594,0.39278929872568347,0.4034078357271407,0.18702503534081605
15.532130784,-0.5218328018987793,-0.8445500296407173,3.105366526374012,0.7697777384833908,0.3709401392943964,0.18652938165147112
15.731973361,-0.24894275554067058,-0.369050019378472,3.079183285766126,1.2618647768940283,0.38231612644913376,0.13004880412842754
15.931970069,-0.09315901033399085,0.3009055835611439,3.346250871065804,1.3001961595250127,0.39178260879739607,-0.0947653173592808
16.131967889,0.18614842298296394,0.7868126891816241,3.3238731348841757,0.9118932264810357,0.3257228943945147,-0.18210226874369326
16.331968842,0.6863180932017083,1.3381418697252272,3.228832419183799,0.5510367006217594,0.3713083152802009,-0.1988258141615714
16.531968352,1.3947490436764363,1.5068858441501976,3.1791075262863173,0.11109159180776251,0.3812865315822796,-0.18291416350786363
16.73197727,1.941260582159006,1.4181841214305204,3.172245525001528,-0.38921513125569185,0.3763910905260747,-0.1887731896370688
16.931993652,2.516050424573226,1.0375648145982825,3.2227316451396164,-0.6849966084514628,0.3673775652148078,-0.18895024600197033
17.131965305,2.892361351269111,0.5638744185567921,3.1181768836479997,-1.2869351387911538,0.3334003829084701,-0.1894309875978459
17.332058144,2.987513327635222,-0.10762265593710503,3.057536991865232,-1.614390251297053,0.34279047233053567,-0.2046612031153079
17.531978585,2.8569415414127994,-0.7194169093440363,3.0506535669737533,-2.1414507267851555,0.3785068573141852,-0.2096342653888135
17.731984588,2.363074511741299,-1.0800993017983216,3.050688572776003,-2.565478848169612,0.3866801637672053,-0.20350241147224574
17.931976979,1.8787708050320855,-1.2698218358211464,3.1751382975701414,-3.065277030460889,0.3757980461349045,-0.20527719407706632
18.13197017,1.1850067024142008,-1.2771542118823682,3.20173804443616,-3.5280170061410008,0.3604580475018796,-0.21012352538152385
18.332014602,0.6273271549272362,-1.012293988824281,3.105972369294874,-3.970051804219348,0.33756128287387294,-0.2043118364766633
18.532076425,0.254539835137437,-0.42209825832944364,3.2183236093305543,-4.2749054367185035,0.43833594812858456,-0.08021422200680967
18.731979339,0.12080919874083619,0.2150594593366012,3.467801834266186,-4.123839334316201,0.3727750099821844,0.08917992490695402
18.931973408,-0.43124718461906864,0.8359465039047727,3.451738278592867,-4.0006722617772414,0.27403238210866143,0.16737203491513866
19.132021511,-0.9504752698938512,1.179640002448455,3.3724139040484267,-3.4636953493700617,0.2887818209797408,0.18556864275678522
19.331972918,-1.4405162571803085,1.3391065712994175,3.064289611477745,-2.9423726954911094,0.32873520932877,0.16255356003907676
19.531994018,-2.1882987902562006,1.139458163741077,3.13544443769328,-2.5797008559737167,0.34395766976138287,0.1666028691037644
19.731977788000002,-2.528249918893248,0.6987712483329434,3.099543172980622,-2.2336131012959766,0.30360486323601527,0.17211829785133176
19.931968788,-2.8212844182006522,0.1377910677930442,2.985367768187033,-1.8036715059932522,0.2914595742124854,0.18573591937681178
20.131965095,-2.763044826198596,-0.3844971082616096,2.893661047305681,-1.2923602090531747,0.3280096909151698,0.20374431435182097
20.331967114,-2.407945468324495,-1.02049719092982,2.9460136376271238,-0.790365780901494,0.4085354771115986,0.21363297304937734
20.531975996,-1.9880123083237744,-1.237237028482112,2.9734492047804357,-0.3358642712841736,0.4037280092666261,0.21253002063547186
20.732056526,-1.3505259164855943,-1.2978084113892572,3.0508221006273866,0.07219237961491123,0.43216903126930484,0.20481805844286047
20.931967923,-0.8159493420438398,-1.1473992559006099,3.0458194929680014,0.7032612479815872,0.3897833390477681,0.17560566316965653
21.13197472,-0.4540970841299481,-0.7196587227021252,3.09056326746488,1.1126528768015547,0.3574008993650377,0.17246623333687466
21.332030126,-0.2343630008141409,-0.039498000422476615,3.16628724552724,1.3425275878401217,0.413627927754276,-0.011195308881817814
21.531964777,0.03563142897395337,0.5561165843098362,3.268279062961007,1.1508441541765329,0.35544474731945574,-0.15945820855359819
21.731988907,0.38784348399589935,1.1204398455928373,3.3712825374070787,0.7049201482824952,0.3473387376604192,-0.1989467955512415
21.932052176,0.9815777124146261,1.3977662023110087,3.2450640256357475,0.1527362029871882,0.3825944185893491,-0.19236840123707624
22.131996795,1.5686789579209721,1.5059534532961933,3.152553984285384,-0.14597964511714576,0.3843078494787928,-0.18228467040963983
22.331969123,2.229078584899181,1.2670841286015506,3.1903517035951263,-0.59185552238552,0.38028077788884346,-0.1883811113866819
22.53197773,2.58627705102022,0.7326437586807145,3.141064223973011,-1.0834741625398154,0.33105318524964605,-0.19205568785992005
22.73206294,2.9436227801097967,0.22700935016036708,3.129039898533777,-1.467014152777928,0.32934585527782645,-0.20444219668512387
