time (sec),x position (m),y position (m),forward velocity (m/s),"heading angle (rad), from x-axis, positive is CCW",throttle (unitless; -1 to 1),steering angle (unitless; -1 to 1)
1.121285604,1.0606063852922791,-1.3587921254675943,3.0523951668299785,-3.3175528948721493,0.3765298995969325,-0.26617134995399333
1.321380575,0.5453024722667165,-1.2181547900627006,3.041706864925172,-3.694111898302787,0.5174588430506578,-0.26701065927223794
1.521281423,0.03135823616437239,-0.7266156536911291,3.199583749558313,-4.282376916048443,0.608528304375147,-0.1646499438345798
1.7212884019999999,-0.10802396681019995,-0.10867506934683417,3.6147947365234643,-4.319512836562773,0.5642593354803571,0.05276061188888483
1.921298975,-0.3233606885669362,0.5640252978698762,3.7317210783347923,-4.143880736922527,0.32263443274823306,0.14078822652807935
2.121282665,-0.8763484544861362,1.1648814753626355,3.5681607693393906,-3.817458364699249,0.24144421157191634,0.1634465987572182
2.321283823,-1.4818423340816491,1.3593722411266906,3.190605887888364,-3.207549667711008,0.25851505336395775,0.1870083712342808
2.521287825,-2.1389471432912477,1.4001737828714678,3.0227279696632188,-2.83088728968218,0.3189827432749919,0.1982150037981297
2.721286597,-2.6025109320676845,1.2032443976961371,3.1310049485423344,-2.363567522552716,0.4370961281274107,0.21968077415172246
2.921285007,-2.923007991008405,0.5954203330013312,3.171634737915055,-1.8043745408400387,0.5140414784758345,0.2240122173908796
3.121302051,-3.0949521591506017,0.07501420836862215,3.2889699530762213,-1.376137077517046,0.5522126643421731,0.2032402424408085
3.321285982,-2.883002250203554,-0.624701685616263,3.3501682366850374,-1.0836091379436077,0.5243929582879355,0.18061223214408603
3.521287703,-2.481675640067156,-1.173504817275445,3.3960191345464685,-0.5090571610338062,0.4548758374239059,0.16946807176201953
3.721286452,-1.8916077400816875,-1.4121388056144824,3.3002230387862395,-0.1423122317617739,0.3519494240861435,0.18417236528538777
3.9213030680000003,-1.2465099428974817,-1.423086547999859,3.147212272581079,0.2863632394427401,0.3247949320671717,0.20538387139680914
4.121308023,-0.6645163395534146,-1.0998277651686508,3.0119666110979115,0.7913371492233867,0.39240226076279655,0.20240830910493826
4.321286075,-0.28165035626850243,-0.6592875564259097,3.161187928802458,1.211616134557659,0.5953812087359749,0.09499814803749289
4.521368612,-0.1173917688722899,-0.04311601755297843,3.6949136590015987,1.2521329869559026,0.5727872805665094,-0.08095129636841411
4.721348075,0.2816745505944881,0.6549595331092578,3.7380466081714396,1.0782349264942117,0.31489313837948024,-0.16595867831598496
4.921331153,0.8368950561576985,1.2480422905463835,3.5145233802036877,0.7203700002729828,0.1932009845590546,-0.22165365633005918
5.121300243,1.3600895581553043,1.6182003341239397,3.1735911651336246,0.15191664926679546,0.2610830767631758,-0.23533008127207053
5.321282412,1.9993624508241075,1.4897680204765409,3.0967948273690387,-0.2334634952535186,0.43286948572539563,-0.2702365071707468
5.521284979,2.516560217275772,1.3062455796864694,3.2123777905271838,-0.8333209291433854,0.547111366194267,-0.2690167724482959
5.721288256,2.8137220427387017,0.6385281772007525,3.225192578107207,-1.2886763068492146,0.6102384604333552,-0.24638717670023727
5.921335318,2.969669256254513,0.07723840927665958,3.303831709546649,-1.7802637665169059,0.5373632484350171,-0.21200267532284892
6.121283477,2.6918354725676235,-0.5380592008011983,3.344545313541347,-2.1463775946566486,0.44344593622080264,-0.20529316506155448
6.321286051,2.2439526769442906,-1.0324538300363861,3.3124805014665997,-2.506538877051238,0.37793700875390523,-0.23227378924635847
6.521304471,1.6390186580824695,-1.2512810853681313,3.1386932829126697,-3.0212688484647368,0.2976948743798006,-0.25631072966815843
6.721307876,1.1060256409314204,-1.210799594898474,3.060627251998366,-3.4269496242245183,0.4268886060971298,-0.2624835506385367
6.921296032,0.6200624095396629,-0.8505458538718116,3.182627290857554,-4.008049296381447,0.5650389175160832,-0.2541291803953313
7.121287473,0.09327218194675718,-0.3094855640345136,3.5259636543210786,-4.278676043428769,0.5705940111890504,-0.05894207604796978
7.321283632,-0.23697159077560725,0.36786429299330126,3.763917934818167,-4.152908618388511,0.39577575064296955,0.054242041490972975
7.521282559,-0.6756531668126731,1.0564264164577664,3.802474672251309,-3.8972577941133735,0.25889161392872695,0.1329761867108108
7.721287378,-1.257636705039293,1.3848199347865198,3.4657165878680507,-3.502754534673868,0.17368316082210364,0.16774518118700688
7.921281632,-1.8246657589995372,1.5078676083564069,3.1801789162631766,-2.9851077875952186,0.24713813743657695,0.17864467791194855
8.121298352,-2.4084077339976777,1.3353645141643808,2.9994376125791904,-2.664280664948117,0.38025025178410227,0.20987982941787528
8.32129362,-2.891114470973648,0.9511323226514445,3.0249686291792655,-2.139528021509769,0.4804838419178115,0.22172998653714804
8.521385563,-3.1790714569495924,0.3170397921896084,3.15883017163535,-1.634335684911322,0.5367433538711984,0.21335235857610035
8.721284167,-3.164425100373337,-0.3247199438335995,3.345282932675345,-1.1717308430676154,0.5494209013925787,0.19832056696157807
8.921280748000001,-2.73312614512221,-0.8130335975674113,3.398951456170571,-0.8549425388774292,0.5008877064746626,0.18037326976409476
9.121302078,-2.2379023254005945,-1.2631221436598508,3.362465636229391,-0.3982554983167142,0.42428136549644063,0.18008888827097733
9.321285807,-1.6137789410508137,-1.5119108051940848,3.2768412813809453,0.014476386368757914,0.3404286857864132,0.19991526022204958
9.521373507,-1.0617460987654934,-1.3523539110912293,3.1465631106746677,0.46022914884720534,0.3427355592567498,0.1981244996864568
9.721296272,-0.4805298891538858,-0.9378217304610194,3.0905227149367454,0.95993050032512,0.4978460600313491,0.19941036913193522
9.921286742,-0.326848931521914,-0.45892004835987743,3.5693619884801198,1.2062117102329233,0.6025255354676865,0.003383021373895849
10.121285431,0.09034798608618395,0.3945844430128899,3.8505291155848016,1.1797294450966513,0.42724686383640037,-0.1157992154937237
10.321282902,0.4081139008933484,0.8140095904567632,3.6709699255721073,0.7737909146358141,0.2432072861746029,-0.19852454712402326
10.521287007,0.9521338725227497,1.4435227309819014,3.3746952955682623,0.5043697749115555,0.19616937932222653,-0.2223958484079387
10.721291359,1.6118554078228806,1.5806660203307963,3.161678614006458,-0.051318391998358345,0.3442499517879797,-0.24493527358082284
10.921285125,2.2648626673046555,1.4142673489187823,3.1657318324575763,-0.5037606147423356,0.5191120238692551,-0.26506410941893016
11.121298089,2.6877510990735782,0.9124818338412716,3.322161721025178,-1.0731425833067132,0.5640596636365323,-0.2576070260773224
11.32130071,2.8827218590170873,0.30868748001275503,3.3519319366658555,-1.5790123827024176,0.5432501872886768,-0.2353597168878197
11.521392846,2.817366294389626,-0.26803573689035143,3.2712732545371908,-2.0022765266582794,0.48143364045682147,-0.21574073735082538
11.721286256,2.4957686845356037,-0.8338927063017044,3.3049181142894786,-2.40392673220196,0.372488158420368,-0.23061606852292071
11.921285544,1.8747443917412185,-1.3123613886755834,3.257265400272904,-2.844346485281792,0.3302675772163554,-0.2419226039485727
12.121282143,1.24796681428849,-1.3338565847598047,3.0923700454205334,-3.2869559750502826,0.3706947036487206,-0.2625727807567313
12.321294971,0.788953032722823,-1.1919282424387416,3.1610606473816634,-3.7894137482834065,0.5147941843455979,-0.2638723661450424
12.521384278,0.29550703638531145,-0.6607443716959602,3.1624536666167735,-4.3214477587326146,0.6268267051934883,-0.16168471584160685
12.721300975,-0.05369680618688751,-0.07796876484904261,3.781966163558524,-4.223654353160069,0.5157437780518893,0.03319968108108633
12.92128752,-0.4430952076463062,0.5636885950341206,3.7649906930473023,-4.049782951195686,0.3197405670069656,0.10383010058245219
13.121286142,-0.9228937215803494,1.1855099259446338,3.612930270071099,-3.6901476504006996,0.21601017652586554,0.15786065697736582
13.321345621,-1.5187636621515421,1.4609471539745316,3.1816560057623726,-3.2287575076343704,0.2215504000361035,0.1689965201744341
13.52128722,-2.216696089718604,1.3724601950862294,3.0580664318605684,-2.903273490121547,0.3141995936545532,0.18686916725792752
13.721282239,-2.6320890323186217,1.0446591130822847,3.1573813756385696,-2.3906235670687614,0.43644144803802387,0.21037560123524143
13.921283038,-3.0192262009370685,0.5534868025419055,3.1827926398892714,-1.9595831536104344,0.49476524657641213,0.2116797640655102
14.121282702,-3.1232701089526986,-0.10659738244741171,3.12383012184719,-1.373365384666361,0.5618827396002021,0.19995415113665232
14.32128438,-2.8230161177895567,-0.6433255151277477,3.2694093956554116,-1.0345595650908792,0.529248981608028,0.17437044269727064
14.521287377,-2.464270023359601,-1.0956615178690425,3.322352459353768,-0.5068538471293385,0.44256759163635334,0.16668911057434022
14.721296526,-1.8617814848487317,-1.4730995492796113,3.3290758046049964,-0.08142526959277739,0.37511070274367114,0.17828731979535967
14.921291036,-1.1864268253699646,-1.4016615955010596,3.166890285088933,0.27281392266068893,0.32744300054932984,0.18625470053019255
15.12128489,-0.5466671801524823,-1.0777963046890378,3.0760842108972826,0.771965861708375,0.37298349701796135,0.19918692215680858
15.321308587,-0.20291622476110974,-0.6138613245917068,3.189764927774531,1.2211720297835669,0.6291863133024764,0.09369592992042944
15.521301589,0.14599219636113683,-0.01036188289612671,3.704347538076915,1.1961686607340836,0.5170927083994911,-0.06656731136589754
15.721293595,0.3829730726085768,0.6418456567532685,3.7667948731000496,1.0291991178421696,0.3222883007422485,-0.15869557380708363
15.921284638,0.8241185257645537,1.202387733399807,3.6157873004438983,0.6375054918931543,0.21211536225540575,-0.20504170025738291
16.121301704,1.311226233269538,1.5203517702058487,3.177035726027405,0.22263845912396352,0.24192181682863348,-0.23985948740483193
16.321297425,2.019342453210939,1.5101753765148735,3.086921728527095,-0.31728358858378897,0.41343424934011314,-0.27864472832493986
16.521303959,2.6023321354855806,1.2214216604975454,3.1925629260926143,-0.8458598227776656,0.562806348953664,-0.26540809859446224
16.721310045,2.8798297836549147,0.647486412458921,3.2179294267021694,-1.2147865418394623,0.5698976170057533,-0.2411792737944109
16.921285709,2.991039895119321,-0.006952345209608642,3.4346736469264663,-1.7731136867480422,0.5462878312402977,-0.218477952501503
17.121285103,2.80317545183605,-0.5260446595206988,3.3808519453759884,-2.2236246851237023,0.44719524923443676,-0.20432098278857821
17.321296726,2.3967956524483784,-1.1429316469008954,3.3442361333158472,-2.533343825027765,0.34613656871970166,-0.22599524621912795
17.521290758,1.6272002439156015,-1.371541621990636,3.1791061844371855,-2.9681775840267193,0.31870983215987586,-0.2512885113786116
17.721298088,0.9998553995572359,-1.2251168123084317,3.0791343022675393,-3.412213709097969,0.24602458923654696,-0.26616845716906345
17.921306780000002,0.6192057639699153,-0.9927225846077344,2.959778790425651,-4.087392237461049,0.5362789177675413,-0.24949110902728858
18.121304872,0.21366883205381787,-0.38875051809513195,3.244164906184985,-4.335161584049625,0.65,-0.028017023883537946
18.321282853,0.07131037502499424,0.2434383934383083,3.6670475543617056,-4.201653460050918,0.4381183827745643,0.08331874896921027
18.521297445000002,-0.4411962670401179,0.8418749373723257,3.872123727549032,-3.944685576425346,0.2752651422049105,0.13807870294383615
18.721288091,-1.0833256828902669,1.3603668164026321,3.357137361606218,-3.4391989534568865,0.2188901224922357,0.17230232844421908
18.921387575,-1.6811660291527026,1.3790725644129795,3.238664487538183,-3.0572820424709977,0.2563649833027852,0.1856803907960848
19.121375383,-2.2787035917426937,1.3468251097552875,3.1308969858957747,-2.477163995389623,0.3489832531857602,0.20848767704619567
19.321286536,-2.728148696181809,0.8821111684909404,3.0686619549795164,-2.16437605015655,0.4863771406512381,0.22243713591870115
19.52128532,-2.935616182594845,0.35671932173433046,3.1996591076666108,-1.7216305583534208,0.5435780346604948,0.21195294365362433
19.721281536,-2.914929133694309,-0.23198135951933832,3.379626060032168,-1.3133621904936603,0.5261175967724311,0.20260216958972196
19.921302962,-2.712304602251103,-0.8797336732310144,3.2950504827164178,-0.8451024600840249,0.47951127701657675,0.19271218020311415
20.121292226,-2.1210832704521025,-1.3898757153114332,3.2960907792125163,-0.35904761561683074,0.39407344432394376,0.18846811357090165
20.321286301,-1.5707743395331264,-1.4431795263770526,3.3080487064057755,0.03852260194882544,0.34725644589767896,0.19721532799524627
20.521331702,-0.8715136392766584,-1.3427038039813517,3.069732271110066,0.43903590339767157,0.34647124056381484,0.2106434344182915
20.721282882,-0.4291031645914671,-0.958926714745845,3.080995521959287,0.8701051701275011,0.5134858852575661,0.16816809602313912
20.92128685,-0.18783550034836619,-0.3410604605316287,3.5574972841395343,1.1833505207514525,0.6135003609119036,0.0019343655941699081
21.121289121,0.14967196311115444,0.3019206582621065,3.7732703687844196,1.1273026636304,0.4101808677090298,-0.11176866604493751
21.321359937,0.46146376524060495,0.9573278664970295,3.6436919228638134,0.8515004684936284,0.24182971067225628,-0.18952431946822032
21.521304335,1.1039256712887922,1.393402298390451,3.3796883634807817,0.3424023234445308,0.21469811625674373,-0.22035649025147458
21.721305649,1.7401843307798983,1.5323016045465176,3.1070733417586416,-0.0997724480463606,0.31022696206199163,-0.2571295008794958
21.921298154,2.2795959165038173,1.3242480614474392,3.0153238137327727,-0.5454534254846074,0.4940521722220047,-0.2699050127564939
22.121380409,2.7643493583086993,0.9487358858739923,3.1397623090908047,-1.033905413695334,0.5610336967239974,-0.26359941521679253
22.321289184,3.007362738802413,0.3051420505357198,3.2897928736255,-1.5095701814931668,0.5451310981750113,-0.23908733043101763
22.521342985,2.974795224381766,-0.3386309166713676,3.361022175673006,-2.0228294130306246,0.5021806958324745,-0.21320052158809513
22.721283352,2.5417072275945674,-0.9834568463144304,3.362567102990546,-2.4159708223007983,0.3942229870379963,-0.21652731488183613
