time (sec),x position (m),y position (m),forward velocity (m/s),"heading angle (rad), from x-axis, positive is CCW",throttle (unitless; -1 to 1),steering angle (unitless; -1 to 1)
1.133225299,1.9580784431238922,1.3739600120238231,2.9546838388032963,-0.23653095543251812,0.3719790627937864,-0.1935420836891338
1.333294903,2.421194224544184,0.975741354673005,2.814578265733848,-0.8197488276872962,0.3563661901431086,-0.204371856412829
1.533309521,2.714345384367887,0.5626934182522084,2.759856937048783,-1.1762027221190714,0.3673249019895845,-0.218377268090628
1.73322211,2.762908156925705,0.03979970233855101,2.795830036588553,-1.7112035143297657,0.4136063482813957,-0.22109872426565202
1.933226762,2.6289102173341368,-0.5560825153553746,2.7663910756960473,-2.1996400152769806,0.4662981773891273,-0.22299314390634734
2.133292672,2.21843189976983,-0.8952895510589345,2.971407380623742,-2.5793614383405896,0.43059670462850647,-0.21226900267223933
2.333280183,1.538936615227931,-1.140414366542566,2.9066282868475155,-3.09280983171428,0.4161206785705536,-0.20819845262246392
2.533223035,1.011516757078363,-0.9641443652935991,2.8938435099491686,-3.4906859722420167,0.3763366978732923,-0.19898215532994448
2.733227593,0.6195040689199364,-0.7260331781417648,2.8028408824345674,-3.9938326082179056,0.35717774743083625,-0.20733673278506667
2.933271391,0.33830378374167835,-0.12496257683249046,2.963329108244742,-4.31591573004363,0.47595732629101883,-0.06275621841567687
3.133229169,-0.024784502610641856,0.39594047616482086,3.3005852562599305,-4.339481499894073,0.38554323998740264,0.10722768817067319
3.333229224,-0.2333967657220275,1.0190776656939031,3.283504314415692,-3.950200806436012,0.3081968219680904,0.17833814915182594
3.533272782,-0.7472002123361305,1.3608048583794805,3.1652400519635626,-3.5894478137645436,0.32871753565007034,0.2108541403529911
3.733276452,-1.3520688249101716,1.409915135074809,3.126506519048105,-3.1221557005341354,0.40529108457473323,0.19188805790941788
3.933269566,-2.0184384149563717,1.292237650483648,3.108892104170865,-2.619333068037267,0.1776810729479052,0.22436500125021464
4.133228704,-2.35842255837463,0.9748615155793519,2.962094162167032,-2.219922918791895,0.5230486969051201,0.17098525840346013
4.33322744,-2.6391176894970987,0.38994183670562815,3.1184754690479126,-1.8184615982543308,0.3562185080186862,0.17407746137729418
4.533275036,-2.77943610289579,-0.21729410888358816,3.0771633166480767,-1.4112181238649855,0.27656701959116986,0.19741112578401077
4.733283729,-2.487219074154941,-0.7802350689960371,2.9049258035348107,-0.9821177163771111,0.27189964941127315,0.21532920642206824
4.933226306,-2.025136395680177,-1.1779295494787638,2.7383754524301414,-0.40705135530183134,0.34065185382554025,0.22228395839582565
5.133223873,-1.443663893766072,-1.3000478726860005,2.8447276329086773,0.07374416932941537,0.4156502928304039,0.2319384679987675
5.33322541,-0.907181372490379,-1.0515252138888784,2.951822207132566,0.5419080588173307,0.43711717426981656,0.21180032585783543
5.533255571,-0.4477861748882734,-0.5487485459161965,3.052045267275082,1.0175639086702444,0.40903687236681435,0.20563817517337402
5.733290055,-0.23157606462954067,-0.05227879698214834,3.241176780997003,1.2976416006989249,0.5054626399407073,-0.018061602741162797
5.933223835,-0.10067347068002301,0.5340497413722033,3.392672072987624,1.0874452990689887,0.3910263144334432,-0.1438025912317921
6.133222574,0.44020507664940817,1.0337744148131938,3.2785618579126434,0.6476305416400857,0.38239529616471196,-0.16333850472639916
6.333225727,0.9300334346241527,1.2848503998109804,3.176580012632422,0.1512317920883488,0.3926775196051003,-0.15597193036551538
6.533276443,1.5548010325651629,1.4628413891316596,3.1427530412256552,-0.20425638529279602,0.34505756328553083,-0.17095732812391978
6.733328954,2.241373050845281,1.1876875542192435,2.9428161291242834,-0.6130976424124227,0.3406118882333535,-0.19123751229043165
6.933224732,2.6032168639431124,0.7343331157542174,2.8635191376334506,-1.0260391424164987,0.36436885093579513,-0.19996116056663396
7.133285493,2.7960177140681592,0.1408576698691274,2.782516765107815,-1.466554976837889,0.3733121875343172,-0.21570682550436787
7.333222602,2.7175992237772926,-0.22911044891431037,2.862355544736163,-1.9602134537819194,0.4105132635624163,-0.21956739506892387
7.533279497,2.3574322482465253,-0.7518383120449044,2.8757690925122747,-2.3357233777502397,0.4310191752943493,-0.2073909100701122
7.7333045160000005,1.864581002166371,-1.0398236566392132,2.7976687713554766,-2.895344715799499,0.4122693957865803,-0.21094225848167536
7.933255938,1.3090092030960787,-1.1167775592395366,2.778551316242635,-3.4128727319349794,0.4140544527044378,-0.20269317641463447
8.133231046,0.7718916300329285,-0.7522828843030611,2.897600718823004,-3.8405321920462345,0.37276179720980535,-0.2006023725884635
8.333221625,0.3761203629008295,-0.4350818602247709,2.9198144815949827,-4.2682165450147185,0.4204059755820937,-0.16000738162922287
8.53329692,0.22246289812467523,0.16629912942335418,3.1808779190950327,-4.343071424609295,0.46741556951399305,0.0436320903739226
8.733280219000001,-0.14186190176534447,0.7508627043735308,3.2498586058541017,-4.126567404851726,0.40308742769478695,0.16115410822032128
8.933227227,-0.49867314085145803,1.1887592525628323,3.2305606334233268,-3.676467557763661,0.30084398014238156,0.22512212825903888
9.133271582,-1.0706781436510904,1.5329731615337234,3.0301307600483964,-3.2468132766118734,0.4005911605189397,0.19623424908733822
9.333224395,-1.7294546793586516,1.4936558492262935,3.041755855476063,-2.8384897920331427,0.4500684783370942,0.18761542531341857
9.533219191,-2.2242859837004505,1.2342760179617436,3.205140171028087,-2.5383460119629486,0.3969269177859696,0.19027620420808877
9.733254203,-2.5152666907932852,0.5929791262607421,3.1932599337637813,-2.0002781337636506,0.35180417421072724,0.1863622631706535
9.933249108,-2.86801859627335,0.035115710761166166,3.0351711655838614,-1.5830453454564761,0.3100416178536149,0.18167264908220981
10.133263336,-2.6000716781440265,-0.5484181564299344,2.9549228665568856,-1.152747016991637,0.28365727547571323,0.19599537320194335
10.333259377,-2.3073819244297096,-0.8923367335489696,2.925064179304326,-0.5700899558740011,0.3084131128167065,0.20819056376984663
10.533232614,-1.645909052778736,-1.211049942765191,2.8697008780084228,-0.13851830038788185,0.36940079672197856,0.22219287881414226
10.733222729,-1.1249313181579284,-1.0529800307188038,2.9438380640735837,0.3049367795140451,0.42257713879922615,0.22022155560404788
10.933225468,-0.6127752335496408,-0.9082293778828763,2.953124476867045,0.7912232967526166,0.42775737781468637,0.20698268046846824
11.133278489,-0.2910208957599569,-0.3152030458981652,3.0321047992119476,1.2371036979106045,0.4358258318139056,0.1056493828135537
11.333220196,-0.1886707258335038,0.3385695147744122,3.3538005848206507,1.2071967074252303,0.4519874540585514,-0.09285231892144012
11.5332692,0.25449790845681874,0.7991978791986855,3.396034359482354,0.8944301712151191,0.3628426486264747,-0.1549979241305278
11.733222783,0.7580955987096165,1.17666612813627,3.2494166867003726,0.38067358687511405,0.3692553219903998,-0.1585746131546777
11.933279205,1.3229480672130105,1.470251247807965,3.106521769234111,0.07844535520061742,0.3897823478201476,-0.16372266607056743
12.133320495,1.9961033199982712,1.3696623873250289,3.128466413913286,-0.32756315733260294,0.34358198451405486,-0.1757292740907237
12.333252895,2.3795009360071395,0.9993416425811793,2.86400872259507,-0.792030623823453,0.34388131780591696,-0.1974191957283159
12.533222078,2.643578036649825,0.517255868767679,2.7634008079216787,-1.2615774462672944,0.37982191925600345,-0.20911459598980808
12.733226992,2.7845037368382926,0.02161602308805592,2.8147207960399805,-1.7783608944679807,0.4022006888795233,-0.2137101004062988
12.93326249,2.6220779861921595,-0.5523669553992262,2.8158039566745243,-2.209392805430903,0.4294164528604765,-0.22078982510059694
13.133270505,2.1471348660159224,-1.0025632409572636,2.88957271181315,-2.7347144621318686,0.4356076814207952,-0.20569733694134298
13.333227956,1.6135663223628123,-1.0210043195724754,2.9018509790303533,-3.012289934546089,0.4127194222805681,-0.1922052393080086
13.533291785,0.9103249984741295,-0.9264814647212843,2.864016247440227,-3.619829767711484,0.3746563573366506,-0.20107781545109443
13.733226565,0.5959863717332027,-0.5779900832541381,2.7800002096901157,-3.992876185219316,0.3715830444349623,-0.19982001974752606
13.933299535,0.31791023938734997,-0.06801730874675178,2.953601869239051,-4.373285541767201,0.45626251940814244,-0.06253861284996164
14.133275036,0.13717796253472622,0.4807113847246522,3.2158881262042835,-4.37599718120797,0.40687772932575833,0.11548196164970448
14.333254123,-0.34023449636489733,0.971103070465982,3.228476456168371,-3.972043163890863,0.3066000373765393,0.19542304869079308
14.533227187,-0.7170470913326882,1.424284984223002,3.154202701065006,-3.575989683392802,0.3380643761940148,0.2130849608904988
14.733226619,-1.420016416917559,1.5301170877263501,3.1162069369287586,-2.9807908774716974,0.4246277415617877,0.19113006966142412
14.933223695,-2.0432368795525155,1.3665718286166175,3.1906558080911704,-2.6131801847695657,0.42004015100485864,0.19314359981597332
15.133222878,-2.432730588586688,0.9106886025542376,3.1474873802400145,-2.244087460921808,0.38463542016834695,0.1971118734751684
15.333224725,-2.6814511128884972,0.46359088032244855,3.163257944787462,-1.758475995951251,0.326541781175772,0.1858167377421058
15.533277205000001,-2.6803097446322677,-0.15593462525153035,3.071422353471605,-1.3046227168479168,0.2888131369981822,0.19184104316935588
15.733221538,-2.484590589228878,-0.8033584077467789,2.8802354988070418,-0.8920278351612797,0.29153760042942334,0.2138146513934465
15.93322697,-2.022919490113259,-1.1409891199499747,2.842592619155674,-0.46704913522422353,0.3318237798259076,0.23018609767807516
16.133222503,-1.5634496584601885,-1.2863684480011688,2.8116527223298577,0.10752790578139358,0.40011517903806665,0.23445169060936893
16.333269041,-0.9440165887505412,-1.1166141505763203,2.979546217415027,0.5192506390884718,0.44797053044496593,0.21857045902063463
16.533285103,-0.47532598742064713,-0.5700108331920235,3.0028578352149182,1.0020561723930927,0.4318051974616617,0.1879714658822713
16.733223366,-0.261644509786752,-0.027031339987645085,3.174657593505496,1.312060413908985,0.4633519498911441,-0.0004823666403818449
16.933220694,-0.03643614619268502,0.46832802301736487,3.421943223816455,1.061008628606309,0.39426918150470536,-0.1319355751136127
17.133288694,0.3380094806703651,1.053504004237656,3.320000399813885,0.6424600264030441,0.36228249149052044,-0.16571689759373537
17.333328174000002,1.085811860793249,1.3338003580467381,3.2247459682455784,0.2105251073880009,0.377489102219245,-0.1678344023666879
17.533221346,1.646508838341756,1.4248554002338332,3.190092518921384,-0.2594401178925794,0.35562049230185194,-0.1653833108032093
17.733226713,2.227652380776394,1.1309564520101845,2.9749295399716353,-0.5600430958384166,0.3257268708423098,-0.19246564546144837
17.933223033,2.5273241527607837,0.7825688989338239,2.8039673855265197,-1.1029919712318264,0.35329358004222616,-0.2078732129905657
18.13327418,2.708763012902335,0.2826937931844349,2.825143610999972,-1.5442857150073976,0.38109629205922674,-0.219928120598114
18.33322307,2.699131007098866,-0.3025605683455061,2.903218734502199,-1.9378775693311197,0.4096166258014896,-0.21475308375637378
18.533301236,2.3728443978191662,-0.6743869859954642,2.8457055562182108,-2.402308753998861,0.43164464953578385,-0.22090502289363143
18.733222849,1.8578199426898783,-0.9837461575186075,2.7966902881316646,-2.84859363274943,0.41342930422926216,-0.21250520932341851
18.933222763,1.2131514043261546,-1.0124392525141925,2.9141383505508798,-3.4016834116598353,0.3946896196019658,-0.2041335252589043
19.13328423,0.6691374109116859,-0.8233590359934126,2.7727375731993615,-3.851101160012236,0.39246376227837754,-0.20298572874146675
19.33322813,0.4601592180801396,-0.4709137084433198,2.803828428509351,-4.195638628528064,0.4242660750525719,-0.1596337641681041
19.533285273,0.13828326892437193,0.18720837638601612,3.176214119388216,-4.314375143279038,0.4510083923854533,0.03828623379376108
19.733284683,-0.09668950380016231,0.854214543919217,3.253345284149668,-4.114630243497784,0.3509732480303465,0.14810979933310497
19.933220532,-0.5348642616632789,1.2435963178549667,3.1498214514371545,-3.7139015466744305,0.31084073708231913,0.20495144790459707
20.133296859,-1.1339462032166197,1.4772767502140591,3.0332219346737044,-3.288741776414104,0.3869646589018844,0.19840971903015903
20.333220234,-1.7040998395817082,1.303052323105358,3.1689191449146983,-2.953837320213242,0.4289138547246202,0.19057899720175295
20.533280996,-2.2063118773038757,1.2176803824645763,3.2294128856627347,-2.46395696237015,0.37891897292459026,0.19660947452814154
20.733262204,-2.6438644697689537,0.7563772020847969,3.175938592956922,-1.980086381492188,0.3538380706033522,0.1909465708889573
20.93322312,-2.816915250485718,0.05851692602971528,3.0959670688352534,-1.5220610872789582,0.315310769335256,0.18537083010419111
21.133222438,-2.6685722021405964,-0.5868396620898005,2.9389673827249325,-1.049652523343115,0.26474182819186887,0.20292990753004658
21.333221638,-2.3639994403222153,-1.0224195924965438,2.8335985378875623,-0.648463072658752,0.3017740561085999,0.22239069692045713
21.533219352,-1.822730312095572,-1.217584039488256,2.8711644307022257,-0.23448942388708716,0.36702147929655915,0.22817889171451305
21.733223967,-1.2720167369025819,-1.2835967330566809,2.9100025384116597,0.3442142044813841,0.4145104936912365,0.2255513923526375
21.933333019,-0.7141264224765944,-1.0036477330531222,3.0159730805036884,0.7535513668870124,0.4403369328848762,0.20698271802553578
22.133266223,-0.3771248423318574,-0.3872570613054126,3.161187340410555,1.3060231618159095,0.4366470659626148,0.12246401163203122
22.333219249,-0.2163276173404733,0.29089324904041414,3.2645537990739553,1.1571427201650006,0.4560437213584639,-0.11232855995008911
22.533225052,0.05026544267369651,0.8313327980712377,3.37356686004173,0.8874244994509525,0.39863715432590613,-0.16423182135357592
22.733222126,0.6050521178240041,1.1868976124105173,3.2345433416219502,0.37853172347008,0.3931626413657401,-0.16323158264674986
