time (sec),x position (m),y position (m),forward velocity (m/s),"heading angle (rad), from x-axis, positive is CCW",throttle (unitless; -1 to 1),steering angle (unitless; -1 to 1)
0.12128273,2.844637802614725,-0.06271780662857554,0.226504842694285,-2.1468429758439003,0.65,-0.24744529933693016
0.22128476400000002,2.973877573740341,-0.24825433031286828,0.8329279843843437,-2.0617743225745917,0.65,0.060733841887514635
0.321298743,2.889276260916992,-0.22046046541855183,1.2771759039160366,-2.136441325531276,0.65,0.01520307442661992
0.42128511100000005,2.6759451999516988,-0.3995011596474533,1.8775286760614718,-2.1113300866172824,0.65,-0.05769033592741342
0.5212842400000001,2.54004056633402,-0.7050468284340025,2.5085943289419323,-2.2533076151197995,0.65,-0.1294941941666484
0.6212860210000001,2.403195624511604,-0.7611139086154131,2.840865295015184,-2.146787396389759,0.65,-0.1734374553425326
0.7212852430000001,2.2123410640404515,-0.9587226778705205,3.082288588240281,-2.403455046111798,0.5418466337270977,-0.2077357579965995
0.8213011600000001,1.9470047076015193,-1.0877486982875175,3.2882204327791413,-2.603999211091581,0.39999897392973366,-0.23169996483770067
0.921283888,1.6749677565544256,-1.2708807623628464,3.1846293536361454,-2.7966240091930827,0.3373503750518816,-0.24871823050793027
1.021293244,1.3067305837669683,-1.5225345039590825,2.972463478349622,-3.112553973963046,0.3399024479557972,-0.25750466440249353
1.121285604,1.13252842411176,-1.3200400284208293,3.1254717695668415,-3.251041171933746,0.3765298995969325,-0.26617134995399333
1.221282569,0.7986868787066564,-1.400107466949297,3.0912956481072102,-3.4332674918435795,0.4486256171320103,-0.2717486420483454
1.321380575,0.47130347402062034,-1.1748221797275973,3.0377166190200238,-3.7551818654628635,0.5174588430506578,-0.26701065927223794
1.421352827,0.26215380716159736,-0.9654092896648764,3.100550095371615,-3.9870188262110515,0.5688598754268791,-0.2549162734596064
1.521281423,0.08072938247011477,-0.6671246342949506,3.242603446565405,-4.328148839521001,0.608528304375147,-0.1646499438345798
1.6212952340000002,-0.1240903259510337,-0.465721529536624,3.3783354299714228,-4.451443229166578,0.6155201104315217,-0.0467803664006014
1.7212884019999999,-0.08182070779901104,-0.1845006501853525,3.628492262155267,-4.434355341192799,0.5642593354803571,0.05276061188888483
1.821282791,-0.30834998209307296,0.4150612495311833,3.7302247107937516,-4.320501175301589,0.42313727249303434,0.12547374308305337
1.921298975,-0.3854855896548713,0.5950156999440012,3.7257864413906185,-4.160144902447484,0.32263443274823306,0.14078822652807935
2.021297403,-0.5811190901646636,0.9373251487756132,3.675409812856546,-3.952808966791002,0.28161951072156916,0.15435861417087127
2.121282665,-0.8478461857326756,1.1479362134563322,3.4904614255465454,-3.7363382605786906,0.24144421157191634,0.1634465987572182
2.221305044,-1.0754412331099876,1.277594446103238,3.35041512823092,-3.5170217202905927,0.2323683294609673,0.17343406555211716
2.321283823,-1.4490312053945922,1.3557908152129012,3.171320885189235,-3.31255417122538,0.25851505336395775,0.1870083712342808
2.421281752,-1.6293809059019118,1.4073813347495423,3.143179798082578,-3.0447829647480744,0.2726718180767746,0.19606417916291213
2.521287825,-2.021721174693775,1.3575994623995082,3.052898556311493,-2.7672006416175083,0.3189827432749919,0.1982150037981297
2.621306414,-2.3606238920971316,1.313803540244894,2.9539912777821966,-2.565984588727161,0.381380786426546,0.20810094758005404
2.721286597,-2.642546973170805,1.1269981885027776,2.973966428980377,-2.359846073254922,0.4370961281274107,0.21968077415172246
2.821298377,-2.8266620723998264,0.8569513845056234,3.1261725400983416,-2.0925067381802247,0.4773985873146853,0.22599682883617248
2.921285007,-2.8722028683248433,0.7301715946043381,3.017271771805131,-1.9190491446508706,0.5140414784758345,0.2240122173908796
3.021285479,-3.0271987924683255,0.3454269053315945,3.179747698278863,-1.7415902454582282,0.5321569972004928,0.20821296782035226
3.121302051,-3.1230786574359612,-0.006493524877554094,3.337412894266202,-1.5472345084023331,0.5522126643421731,0.2032402424408085
3.221289742,-3.036667665845871,-0.3323278014929274,3.2933993093392098,-1.1338569794361661,0.5567232775350028,0.19085786972679777
3.321285982,-2.9228245987837584,-0.6501104335601388,3.284327634728952,-1.058891688712722,0.5243929582879355,0.18061223214408603
3.421283443,-2.61755489783984,-0.9074279939976628,3.2721114783464937,-0.7816101885045414,0.48904447236022835,0.17369973283856535
3.521287703,-2.4250939558897877,-1.0371873115014965,3.3058931604173423,-0.5552094224540352,0.4548758374239059,0.16946807176201953
3.621284804,-2.1625858329229914,-1.268317953228051,3.383243349600698,-0.41656959862280996,0.4129349147282653,0.17718962074864175
3.721286452,-1.75684653603385,-1.4076219435575053,3.3921198852954704,-0.07360495147620848,0.3519494240861435,0.18417236528538777
3.821341004,-1.435815363990816,-1.3808020851004983,3.225362947046886,-0.01479976382121373,0.31817841625196414,0.19441865034286274
3.9213030680000003,-1.2019690384287176,-1.291938798777363,3.177582816390358,0.34006983806445157,0.3247949320671717,0.20538387139680914
4.021283803,-0.8494784433489233,-1.2771675945044165,3.0824185422226797,0.5189556420400572,0.32188402054498055,0.20009984398173988
4.121308023,-0.5910785171902699,-1.190042464153517,3.0882121089955423,0.7471249318476548,0.39240226076279655,0.20240830910493826
4.221286139,-0.4555837311424975,-0.8387876921080264,3.1034987270012047,0.9452418394076726,0.4735877340745315,0.18785169034330731
4.321286075,-0.21864373943011117,-0.7113768901622184,3.1893376973808607,1.060791093558882,0.5953812087359749,0.09499814803749289
4.421302798,-0.1830128915683058,-0.385816419656362,3.4476944297344527,1.245376686179177,0.602348932615896,-0.005144565710899331
4.521368612,0.007246506216604973,0.0705003828522561,3.615841748520302,1.1464645212771587,0.5727872805665094,-0.08095129636841411
4.62129992,0.16972321940039123,0.3693955355102595,3.777036060651197,1.140279348207859,0.42573101434083005,-0.1265386374554484
4.721348075,0.3241706276798533,0.7105606235255875,3.7885766544922466,1.1071524228100638,0.31489313837948024,-0.16595867831598496
4.821298151,0.5076017944805127,1.0353439079885298,3.6267363875106735,0.8949975061629568,0.2536566244387542,-0.20599227783111732
4.921331153,0.7575623741147126,1.3355339305129996,3.5408906918182286,0.5899479414371043,0.1932009845590546,-0.22165365633005918
5.021284219,1.0810097863877857,1.4223856577275988,3.382572202205557,0.3566029061442465,0.2095248525211615,-0.22250544017956442
5.121300243,1.3312138354865317,1.5691036816378674,3.1777673696929294,0.15774510855733836,0.2610830767631758,-0.23533008127207053
5.221286378,1.6963325230969906,1.518471743826523,2.9945433370215913,-0.10529757324582406,0.33640004160161646,-0.26042464042126706
5.321282412,1.9837942119209164,1.4736339156703366,3.01452950489121,-0.2568888110098023,0.43286948572539563,-0.2702365071707468
5.421283222,2.235259444008706,1.2914563244293293,3.0278629595715385,-0.5980166041174336,0.525966683488261,-0.2745969794416689
5.521284979,2.508455717718129,1.1678551511313615,3.1272747832676835,-0.7784691262104163,0.547111366194267,-0.2690167724482959
5.621347781,2.744011493232537,0.9589721693295781,3.2821368108275135,-0.9737175520572517,0.5767289495237218,-0.25792119308436423
5.721288256,2.7878027263801153,0.6919271608125677,3.285251845431665,-1.3522042425188543,0.6102384604333552,-0.24638717670023727
5.821284807,2.8995514369217203,0.32923841955504524,3.3413206621596223,-1.585017309537378,0.5539652235627306,-0.23518149020580456
5.921335318,2.8659662191797493,0.013673107418422585,3.346210278877094,-1.7299494885628526,0.5373632484350171,-0.21200267532284892
6.021368231,2.805358575165361,-0.28433721369456544,3.3057323124770894,-2.0028689683734977,0.5173806811016737,-0.2158625432449663
6.121283477,2.7211853481606654,-0.5672573338453454,3.33240991650598,-2.1718691206450034,0.44344593622080264,-0.20529316506155448
6.221284389,2.459748696017606,-0.9070871828433078,3.3705766545359213,-2.3581612785140273,0.3900076459911932,-0.21414526930767064
6.321286051,2.2374409625132277,-0.9576209318153278,3.2457186176976878,-2.6774115457862826,0.37793700875390523,-0.23227378924635847
6.421389116,1.989945448098691,-1.0436936009130298,3.3328280462156625,-2.749612666532459,0.3095083778799095,-0.2373345384530638
6.521304471,1.633718021674003,-1.2241482795159606,3.2016363569073634,-3.042016017480146,0.2976948743798006,-0.25631072966815843
6.621286795,1.3423717977192313,-1.2826459934346301,3.067061674226825,-3.243822697433952,0.3727213504981518,-0.2565349682470538
6.721307876,1.00028941565424,-1.1896652424009686,3.122914364269009,-3.5545447416004743,0.4268886060971298,-0.2624835506385367
6.821294527,0.6733513156309449,-1.1013360320184336,3.0940889742105524,-3.795057426883386,0.48959659157352015,-0.2643570890764252
6.921296032,0.5310527468904486,-0.8562396948619416,3.18428131801745,-3.974323560975373,0.5650389175160832,-0.2541291803953313
7.021313663,0.3197333700613571,-0.638025685895476,3.2192363126559567,-4.197799647462887,0.6021553068598002,-0.1553229213492545
7.121287473,0.11541864283492705,-0.2254360253691607,3.6013439534511904,-4.239056814085638,0.5705940111890504,-0.05894207604796978
7.221458271,-0.034164758457352194,0.07095342640903124,3.6836277140521645,-4.249514893824579,0.4919630160477062,0.012836692894563113
7.321283632,-0.17713236858245787,0.3781994445414467,3.836734808713292,-4.139650057883703,0.39577575064296955,0.054242041490972975
7.421298923,-0.48748774664758154,0.5782267280471254,3.796443823908201,-4.111949722244258,0.30768679492562356,0.08941160052557018
7.521282559,-0.6932643036517074,0.953483729475072,3.885895489840512,-3.787608602530869,0.25889161392872695,0.1329761867108108
7.621284456,-0.9225954306334799,1.1678548287167065,3.6190183843290655,-3.679383612388104,0.19264149773826564,0.15464040859079595
7.721287378,-1.302420846615995,1.447162814568486,3.547196024363402,-3.483905649622039,0.17368316082210364,0.16774518118700688
7.821297307,-1.54186993040416,1.42404070334092,3.338807434815692,-3.158950145418926,0.2142313630972491,0.16624445302027924
7.921281632,-1.9488161442542145,1.433575405078035,3.1425903708507934,-2.921786690441373,0.24713813743657695,0.17864467791194855
8.021284408,-2.241025314305596,1.4443251622661653,3.0170680991157015,-2.904538157451075,0.3128051124892221,0.19020126174533764
8.121298352,-2.4217284687749774,1.3369560895168333,3.0151932228761975,-2.675892469578386,0.38025025178410227,0.20987982941787528
8.221295367,-2.713415484933795,1.0869708897592225,3.051377927422579,-2.3883507383138296,0.41655560568590694,0.21569108819226224
8.32129362,-2.86680086190477,0.9188797537584943,3.077261036820284,-2.179609837836978,0.4804838419178115,0.22172998653714804
8.421302052,-3.0905038719313653,0.6634145810950451,3.0488148559037413,-1.9362616425825165,0.5205091657734402,0.2210266599682722
8.521385563,-3.193377090093719,0.3131008842320009,3.104517043448546,-1.6745082324348601,0.5367433538711984,0.21335235857610035
8.621361925,-3.252812964530072,0.08817089962665685,3.2651685255693974,-1.4753013170459746,0.5538254152300796,0.20341271147223147
8.721284167,-3.173621018472483,-0.3202902458934422,3.3356855837483965,-1.1164812391486603,0.5494209013925787,0.19832056696157807
8.821288481,-2.977423455387067,-0.5766694044804723,3.4117971338970476,-1.0810672164128667,0.5477029700083225,0.18735661891816544
8.921280748000001,-2.810259330687391,-0.9250496009183462,3.407967771876904,-0.7448969114819857,0.5008877064746626,0.18037326976409476
9.02135775,-2.504233735306669,-1.0689521734419078,3.3332399757937443,-0.6738387954286613,0.45819662044301634,0.17512317899297164
9.121302078,-2.335577028767329,-1.1717282079581017,3.3580860418568625,-0.44896511142481493,0.42428136549644063,0.18008888827097733
9.221331492000001,-1.9149735662554537,-1.3099588201776788,3.3449366532560196,-0.21472232451024525,0.374208018236558,0.18057112564560934
9.321285807,-1.590709506518627,-1.4456496435839445,3.281594982997248,0.09907687919906638,0.3404286857864132,0.19991526022204958
9.421285759,-1.4144974313578285,-1.4254667247641974,3.1981862748333536,0.19625560577566964,0.33522536931330843,0.19544297687924783
9.521373507,-1.0912077711917598,-1.2703956122500402,3.1853208205157464,0.5357994364897101,0.3427355592567498,0.1981244996864568
9.621283362,-0.6762294132229731,-1.1765076551880036,3.0553988302514137,0.7455291632427291,0.406760122469466,0.20541953031933258
9.721296272,-0.558979651418009,-0.9420835678842313,3.177911353157609,0.9734992936697938,0.4978460600313491,0.19941036913193522
9.821288057,-0.3430263788826776,-0.6912255674092294,3.275148627876736,1.1283887339982641,0.6057624488758476,0.09173443012325849
9.921286742,-0.16017624584773463,-0.40094086183775735,3.4986605760112224,1.23507918505979,0.6025255354676865,0.003383021373895849
10.021291174,-0.018215305775863375,-0.03863329738478245,3.710088509799762,1.186512248126005,0.5819813910288756,-0.07382530922638032
10.121285431,0.053444064584298734,0.19094765635406497,3.77546088621444,1.169428670469419,0.42724686383640037,-0.1157992154937237
10.221282847,0.23367127988361194,0.632635282368215,3.7336621502203777,1.0845168523944622,0.311135074738096,-0.16447304444198985
10.321282902,0.4419427167590506,0.9020503283200948,3.745140018363721,0.9234254776583137,0.2432072861746029,-0.19852454712402326
10.421283564,0.7241871843366631,1.1489233079745895,3.6327442306363156,0.6904544347084363,0.19783320550882866,-0.21163611668931223
10.521287007,0.9299162291163406,1.3390822574451815,3.352852740107693,0.3941593724356841,0.19616937932222653,-0.2223958484079387
10.621283764,1.358967729526866,1.5116182728169072,3.3070121891938227,0.16529101326517148,0.2607585633665594,-0.23687908274011268
10.721291359,1.6477214008253838,1.5423968380579034,3.204561970236141,-0.0052002651569688085,0.3442499517879797,-0.24493527358082284
10.821284684,1.9217991414984104,1.4364116320104663,3.108966729875655,-0.3052896949621431,0.4303508900237667,-0.25554822104456293
10.921285125,2.2309274115980955,1.4300849037134682,3.186133038239701,-0.5366162788157545,0.5191120238692551,-0.26506410941893016
11.021297106,2.5367355231051714,1.1622498101933092,3.2151398600823606,-0.7888831294531756,0.5473338167071189,-0.26452461234028934
11.121298089,2.7471320230643017,0.9030407416817864,3.223380619204626,-1.042811097256305,0.5640596636365323,-0.2576070260773224
11.221366645,2.7584298187729885,0.5975055748586728,3.3081337999308804,-1.2977251185634655,0.568362539394032,-0.24370199155959354
11.32130071,2.876848657608184,0.296341831847818,3.2842597057072105,-1.5241008650379069,0.5432501872886768,-0.2353597168878197
11.42130092,2.823806345500054,-0.11461942070907774,3.3120676554822746,-1.7030624279390336,0.529150174504669,-0.2204399377781767
11.521392846,2.8905184767863465,-0.34500538588835256,3.367454071467372,-2.0438419155088368,0.48143364045682147,-0.21574073735082538
11.621284281,2.752276977886703,-0.7593834653255738,3.4737206185980325,-2.130548554571022,0.439543844544647,-0.22239453207986712
11.721286256,2.457047378670977,-0.8821566793562029,3.3317199900545003,-2.317882054146427,0.372488158420368,-0.23061606852292071
11.821301767,2.27667123458587,-1.0922444876331818,3.30396683319046,-2.6011768528925128,0.3423581622376736,-0.2354295972031746
11.921285544,1.9890997095173664,-1.2366300866972617,3.210216122313652,-2.8038668183013793,0.3302675772163554,-0.2419226039485727
12.021302279,1.6116952858148788,-1.3364264769752123,3.17149284259504,-3.073305937581404,0.33236372306278306,-0.25453514789283177
12.121282143,1.3777880285867496,-1.3374980158552126,3.1632642884723827,-3.2296252191849675,0.3706947036487206,-0.2625727807567313
12.221356347,1.0109396071340793,-1.2946522811827674,3.108885143378338,-3.553706044196887,0.4504084885310727,-0.2678764576331449
12.321294971,0.7991142348774214,-1.114192695582387,3.0532291290261115,-3.734914136879369,0.5147941843455979,-0.2638723661450424
12.421281299,0.5381968407301135,-0.8746060559449634,3.23062928756127,-3.984014394143969,0.5729100357669633,-0.22388132175796283
12.521384278,0.3084263966038997,-0.745428857243463,3.28605887078948,-4.222295815196671,0.6268267051934883,-0.16168471584160685
12.621286272,0.12399025319075106,-0.3692478130731952,3.5782820775974686,-4.303096223380257,0.6036270346007592,-0.047179450413058883
12.721300975,0.05113428802178442,-0.08319237269492599,3.741936869493418,-4.381431373366226,0.5157437780518893,0.03319968108108633
12.821296763,-0.20153946788896776,0.28679404995593905,3.8713726853530686,-4.171841635158193,0.43170016111033044,0.07414811732617799
12.92128752,-0.4161322725238068,0.5366149193917088,3.8709690760728592,-4.048094569832082,0.3197405670069656,0.10383010058245219
13.021280414,-0.5558582547175018,1.0098561704729176,3.6381183746306305,-3.9152391747558415,0.24490832023919223,0.14165229374219765
13.121286142,-0.8961329417294318,1.112019416817495,3.6513506765718056,-3.6405529957721865,0.21601017652586554,0.15786065697736582
13.221297485000001,-1.125037942824714,1.3035409323856706,3.4711605269328265,-3.5176212490429513,0.19761184617997754,0.16023065702527994
13.321345621,-1.4596893619528282,1.3918913687201087,3.368002737534668,-3.1973672918548255,0.2215504000361035,0.1689965201744341
13.421290782,-1.767048844127803,1.3870826314746196,3.1653887642337883,-2.9885307568547996,0.2756349528295023,0.1795258499332689
13.52128722,-2.048856789953433,1.3943427821513743,2.9900866947103237,-2.807924436058904,0.3141995936545532,0.18686916725792752
13.621286122,-2.459800406997711,1.1953977465158,3.1270484717563534,-2.6047318339176257,0.3697837025431718,0.19728386604168935
13.721282239,-2.670676659248296,1.1383531646362317,3.0022115505809546,-2.3250173997795205,0.43644144803802387,0.21037560123524143
13.821284183,-2.8717272758856,0.8736125758538773,3.0593588742371027,-2.1396329948948676,0.46062078508431986,0.21770140064499288
13.921283038,-2.9647737742218534,0.5286911854828729,3.121517850088266,-1.7771888849186444,0.49476524657641213,0.2116797640655102
14.021283646,-3.04414026773835,0.22433864080275528,3.1853696919705956,-1.6215382609669418,0.5456270888035801,0.19466256492209152
14.121282702,-3.12805274331763,-0.06822551435977676,3.335196577918834,-1.4274551548684322,0.5618827396002021,0.19995415113665232
14.221285273,-3.054139222332276,-0.4193324939970674,3.3252679355569796,-1.199856813483109,0.5408977467919951,0.18312633138251153
14.32128438,-2.910533889245688,-0.6469774813923727,3.3725745978435837,-0.9285705257731204,0.529248981608028,0.17437044269727064
14.421288345,-2.646679974183333,-0.9047628146745829,3.3633963475862663,-0.8610074785421211,0.5015095258519003,0.17437985957569044
14.521287377,-2.4616932263250244,-1.161629550684694,3.385021802372807,-0.6160720561278513,0.44256759163635334,0.16668911057434022
14.621288285,-2.0849620442270296,-1.3663249587961448,3.3269080088928438,-0.24326970770757117,0.41209315410101477,0.1692836652459489
14.721296526,-1.75072012895606,-1.355336614817649,3.3725176414145173,-0.19054690450811673,0.37511070274367114,0.17828731979535967
14.821286449,-1.5248371472755282,-1.4947371902021227,3.2522651201267956,0.08443233655980466,0.3339577678284619,0.1867121910775433
14.921291036,-1.2100232922747007,-1.4299995977112911,3.122050140054863,0.2569068010095036,0.32744300054932984,0.18625470053019255
15.021292851,-0.8372212167997046,-1.3282864107216645,3.1450281275332665,0.5409690431460353,0.3547198816769544,0.2033684151522776
15.12128489,-0.5420650092881255,-1.1016110763871556,3.0787302130649397,0.7202203635841637,0.37298349701796135,0.19918692215680858
15.221300796,-0.3802800159076181,-0.9597110829911377,3.065042467798203,1.0159029705410887,0.4791671125139625,0.18539753687330376
15.321308587,-0.29408337098195847,-0.5295256732239952,3.2378807534280276,1.153613955853931,0.6291863133024764,0.09369592992042944
15.421283075,-0.03710896243423234,-0.29885196138657877,3.439418991279773,1.181688224570946,0.6009248440360387,-0.0032280083497715217
