time (sec),x position (m),y position (m),forward velocity (m/s),"heading angle (rad), from x-axis, positive is CCW",throttle (unitless; -1 to 1),steering angle (unitless; -1 to 1)
0.13472967700000002,3.328804180734713,0.043347592287711824,-0.03448394243020552,-1.4742855851330412,0.75,-0.4966585758982584
0.23481970900000002,3.2531007431076953,-0.004045304900863363,0.011722987252191983,-1.281964079519573,0.75,-0.1860521530149387
0.33473111,3.3084028312202127,0.08397699299220515,-0.022104635510244615,-1.356923146573878,0.75,-0.21801983803897815
0.43474253900000004,3.3506392260534934,0.04066472203559839,0.4414410051008758,-1.4274422353527825,0.75,-0.29153401419259567
0.534733294,3.38083144088152,-0.02303138979311517,1.1507920948284958,-1.4599358384911303,0.75,-0.3520304309498401
0.634732955,3.3033006679024477,-0.1663375138536343,1.9504576945756564,-1.7253426929945637,0.75,-0.3911347221376665
0.7347324670000001,3.2933602540985034,-0.4193753472673155,2.3188998769349958,-1.9815880591908352,0.75,-0.3882961013844319
0.8347333250000001,3.079884250970935,-0.6608977680146764,2.9569935158627665,-2.267842190111691,0.75,-0.3521312111891313
0.9347523900000001,2.8709345176257024,-0.8709942743090473,3.1051658432488756,-2.6081656711653607,0.6665329516820468,-0.31150313693048765
1.034735163,2.5670719881449378,-1.0521667899397318,3.2222393637940407,-2.8421707390645894,0.5501128982940844,-0.2789972386065157
1.134739925,2.298626680447655,-1.1066838352652362,3.2803857658591054,-3.010620045669011,0.47428477682941733,-0.26436266903652395
1.234748548,1.9144629607299068,-1.0804533115978374,3.2620643646017693,-3.2450121508947998,0.41685324396485607,-0.2559565327560624
1.33473707,1.6608444230638482,-1.057524641752928,3.1610624220512147,-3.479409594107947,0.37650319259076964,-0.2573431803403921
1.434745266,1.2552687442557486,-0.9392884203974365,3.1609174614299342,-3.7102765399624524,0.3544410003643384,-0.2523895388274216
1.5347302919999999,1.130102129892762,-0.7519590677789182,3.1178459764162283,-3.9440696052524906,0.4539081036460494,-0.18504149589996488
1.634779291,0.8939108417489713,-0.47806932739037095,3.4153541862946857,-4.0704133114632715,0.5390637742832051,-0.1072356068624167
1.734730474,0.6586984025246848,-0.23415709169805743,3.557450933924199,-4.107037894709154,0.5859258266161382,-0.014621332467023013
1.834730439,0.4458786740419107,0.057403833747560896,3.717920362592613,-4.0582513579930835,0.4916023153253124,0.036123548442989734
1.934754957,0.22664596203023762,0.36891289910217745,3.7791945166601666,-4.009079712656229,0.40056357064208825,0.07489265082194738
2.034742833,-0.007235657184141755,0.6888421626440494,3.846108608409043,-3.8507575390272115,0.3270779306645261,0.10917038644881841
2.134728051,-0.27335379964398315,0.9520561656671596,3.830384131379427,-3.786365999107248,0.25278767758455495,0.13572597161677313
2.234749517,-0.637102330851055,1.1050912324397921,3.7484267242521114,-3.4580761824845156,0.2042485466894734,0.15052309269543046
2.334755312,-0.9469622706609747,1.2782570741369488,3.54733441062685,-3.3006375710833504,0.21689168442867057,0.1526084612407777
2.434732273,-1.3509904129016659,1.232068097167302,3.383803297496529,-3.019990264922172,0.24155038043963706,0.14767710456924973
2.534735104,-1.6526577481984,1.1883903455996936,3.2528025703891665,-2.8564136279465937,0.2884026331514864,0.14984685302513145
2.634735724,-2.014930178199588,1.0533639294083201,3.1650009017516405,-2.5945088439130135,0.34991985434722434,0.160982795163729
2.734733117,-2.2185420671359775,0.9440628776229207,3.2153010285049257,-2.429232922146332,0.37494419503326804,0.17392939247268113
2.834726897,-2.493917465402257,0.688033702440206,3.1143124562446776,-2.208421297670241,0.3871721569064875,0.18017123974239646
2.934740868,-2.691393617841499,0.38075748443128266,3.1447523318460515,-2.0135184661297036,0.4030221171864786,0.18258426249233445
3.034729437,-2.6384843847695603,0.20865602782902126,3.187126876696084,-1.6636241187346512,0.39884927828111144,0.17787741528313894
3.134735302,-2.6893179693710914,-0.18117794729013084,3.1638810583991326,-1.554283835666972,0.3933219446670198,0.18832633978282473
3.234747033,-2.690230194138542,-0.4558992170023123,3.1937623091396725,-1.2319628942105028,0.3898076098248185,0.1916044151063964
3.334740623,-2.613665012897971,-0.8387785160572719,3.1675935858646977,-1.0790224733085612,0.4048897096070895,0.19994982279961623
3.434772914,-2.288378577987407,-1.0461118853395153,3.1791646409845193,-0.7503247819224859,0.4179614506060726,0.20255450177884887
3.534734658,-2.144751002258974,-1.2940868945804684,3.1566714277339916,-0.5340746989169105,0.4323541483395963,0.19918612038514324
3.634740261,-1.8338471399517378,-1.3819258661372098,3.207332763663551,-0.32251952373172493,0.45304340010198335,0.21129816843636565
3.7347352430000003,-1.6153307936431718,-1.50578168145136,3.199309104700964,-0.07661457136478188,0.4268375310508666,0.21014446504567533
3.8347344960000003,-1.1189344373004804,-1.4995230318970114,3.2938760312582747,0.1275369370061359,0.43301118290473606,0.2039948211204508
3.934737747,-0.8839641783833306,-1.3959822766270564,3.234829103011614,0.35786840576195045,0.4400073444546797,0.19515031533994381
4.034760492,-0.5733705671485034,-1.3085826137983085,3.2442859492587353,0.6543910330474673,0.4234848788383089,0.19317577330309868
4.134733986,-0.3448136511020031,-1.1231404398248328,3.2876927427639755,0.8212543755149145,0.4147502370115298,0.18686280568552688
4.2347457330000005,-0.0902633532824494,-0.8691179465282717,3.2755178519207666,1.1272191250641126,0.44281164233043935,0.17661397907781526
4.33473323,-0.09176101387166255,-0.5346613520816269,3.36766977792304,1.114229195206417,0.5149327028500487,0.07938786625986474
4.434732212,0.08813987080604012,-0.268626234193568,3.4452545429394847,1.3135731327219704,0.5154655457147456,-0.018689058188061318
4.534736131,0.22393161932792618,0.06794830696863724,3.6656709806200944,1.2597460790325667,0.46798912041214735,-0.08706951981035743
4.634730521,0.3463730959570178,0.5397044909431391,3.652269549926119,1.0741774420882568,0.41544123244200604,-0.13530557488046172
4.734741665,0.5189471588499573,0.8371629464347377,3.7100704461080904,0.9602300170202682,0.34083431008505055,-0.16201584092620994
4.83472959,0.7649367840507084,1.087054482804445,3.673158967866293,0.7541638313971641,0.30182994199685753,-0.17492672573525114
4.934738408,1.0902024210986383,1.2507043928996726,3.5292056379117973,0.5193114599642653,0.30875014541926615,-0.19328284993503891
5.034793863,1.421934537195396,1.4437952124924336,3.446374938253871,0.2881136921126592,0.2943359024591616,-0.19394041242812926
5.134731736,1.6569101057395006,1.5328019834058462,3.352954213662352,0.11292701661527524,0.32341779180743246,-0.21521072269692626
5.234733488,2.0632788809366045,1.5675852200947118,3.2313708354403947,-0.1084512570878552,0.3615220413014059,-0.21134447528452996
5.334729784,2.3047467554070304,1.458931798975833,3.2270830748876413,-0.3950094538739694,0.3828518357766516,-0.21710344075138668
5.434733425,2.625326252965303,1.3144159574951475,3.222184874925534,-0.5576227064789802,0.4246115512970691,-0.23035207050485984
5.534809178,2.8654674520346752,1.1171048306048352,3.3409275670210814,-0.9163067596267163,0.4879929602673837,-0.2363486370740677
5.634735293,3.116814657821494,0.845892919755309,3.342664098025255,-1.153637933625222,0.4839982615679635,-0.2343161142550405
5.734735127,3.214151354276183,0.5079869091542436,3.3552764703500397,-1.3145095906060578,0.48274090882888393,-0.22930263778481033
5.834727742,3.2451481804960483,0.29039971017972266,3.447015376097311,-1.5496837276920494,0.5112427693884305,-0.2314440517666279
5.934727212,3.215388752247821,-0.19005738195731237,3.4498827022275442,-1.83307054790866,0.493740380892229,-0.22622805702041757
6.034780307,3.183765493770337,-0.444062670401256,3.4588630319599374,-1.9733279964700945,0.48745181128088844,-0.21858503729753634
6.134736122,3.01242619178238,-0.797394731739303,3.467291758270763,-2.2303699127279546,0.48128128276612336,-0.20981281036369384
6.234727495,2.7457960135455033,-1.1145750839362345,3.4640026144281033,-2.4203792052701805,0.4688841527499536,-0.20791083107977434
6.334740677,2.515215787805322,-1.3324587110980624,3.479290754400653,-2.576467649462515,0.4398927874050237,-0.18975071824308887
6.434744905,2.1790943148904223,-1.4006722161396528,3.5310832232946536,-2.847252996864153,0.4092744757978846,-0.19570199082605388
6.534747095,1.7928644022868008,-1.4268497730970362,3.46719742034214,-3.071279996871064,0.38877883837104205,-0.19717734890538582
6.634735199,1.426149359824841,-1.4844554822517677,3.392621791218088,-3.236054822375558,0.35349315645600377,-0.19176648186349293
6.734728811,1.090902115372451,-1.398405506131429,3.253116621018361,-3.4713180779793342,0.15364922442692222,-0.24320452368805176
6.834729281,0.7755863994741464,-1.2380012525943755,3.029192335795381,-3.832220513813062,0.094460852333104,-0.32418234107163113
6.934730182,0.6043446360696516,-1.1513388155504594,3.0553034667692445,-4.011448242724806,0.4037316508915581,-0.21061235093357536
7.034736346,0.43659619489715973,-0.8249604549490278,3.179567673644112,-4.232863102803333,0.5366130953491661,-0.14034431035812456
7.13474933,0.28660039097381296,-0.5340884667155558,3.387516102514522,-4.341666792248233,0.606101168967475,-0.056047562898687654
7.234728707,0.16960079687109425,-0.17011738233352333,3.6956344106955656,-4.324193813197655,0.5154832563607716,0.015492966860655558
7.334704649,-0.043480500120767165,0.06724214011461789,3.6951859640748554,-4.243499293584572,0.3961083215883861,0.06189634409001392
7.434732935,-0.21714731148270383,0.4123224180874021,3.6948362773692844,-4.050740935672632,0.3165211117295901,0.09792352268877602
7.534733415,-0.4604656016442106,0.8296321564857151,3.6878433325969406,-4.014758299160947,0.24567360677576225,0.12767264672785153
7.634734198,-0.6723809749201407,0.9949324007177437,3.7530928540033424,-3.7798842981081573,0.19564835419362178,0.14613299154404097
7.734733352,-0.9734309612452546,1.1765097330541394,3.505156712748369,-3.5192329389481944,0.19699921832803724,0.15311876634987556
7.8347292060000004,-1.2723179218087732,1.2996654297212527,3.3440910015479086,-3.2730842546061116,0.21635013913959203,0.16006641782673875
7.934752978,-1.5613292775915664,1.4361361407980833,3.196387833305745,-3.0821837539053485,0.2599988733568805,0.1665914495976145
8.034730623,-1.9708861660737118,1.3421393239332053,3.055865543316279,-2.8711121713913057,0.32458544844539183,0.17631285276442948
8.134729509,-2.2044622092298285,1.0375957430856808,3.0471426542344413,-2.60566095167075,0.3680131882205747,0.18186111875123454
8.23473187,-2.4663450166800045,1.029761129125796,3.0798600748105884,-2.31848765408306,0.3972019060330215,0.18640996697806367
8.334729173,-2.6453403520363366,0.8282270304614597,3.155160381570542,-2.2239008507889584,0.42157099749651206,0.19532080032116672
8.434731126,-2.853124921120236,0.5483488080635934,3.104867699784779,-1.9443282604998644,0.4446290207970266,0.1939399318167063
8.53473369,-2.944139492955996,0.16293875435291827,3.198792842347338,-1.779183608548851,0.43005778598818256,0.19169938650499277
8.634731869,-2.941311250714273,-0.059492964884065684,3.128554520651968,-1.4834945582903523,0.4301200922385162,0.18548137074200827
8.73474557,-2.874456023464598,-0.40063291079193014,3.215043821651244,-1.1927768205907006,0.45002769755430366,0.18773299161580587
8.834752791,-2.589096390054672,-0.7432155014570512,3.149692527741595,-1.063760694117553,0.4352686684010198,0.1977862358303947
8.934732499,-2.4758903326291133,-1.0056758052350085,3.1936414488579716,-0.7796306759155613,0.43034824895042534,0.19367190369125284
9.034732622,-2.2494186973006345,-1.1175260319249884,3.1902692270951643,-0.5315576571922731,0.46498008083539033,0.20302442969989734
9.134858932,-2.0406143705449056,-1.3837888709587034,3.3105140484535567,-0.36492243993076734,0.43684277633225393,0.19498124927996038
9.234728893,-1.6862922335515538,-1.4018263075521413,3.2425478798603713,-0.12418003307125963,0.437937188180393,0.19542197976612227
9.334734023,-1.439881186805793,-1.3819523753357783,3.219826357259826,0.13302398121849152,0.4575230130442104,0.1991031563636031
9.434733958,-1.0737350977105613,-1.4710593520571764,3.3085545461620196,0.2950239231333496,0.4294149035406449,0.1950273725199919
9.53481246,-0.7607669998937188,-1.2469312624008788,3.292642169215139,0.5715083162576233,0.4098973842632111,0.1901013993079207
9.634730125,-0.533196685830941,-1.0105461366728514,3.259726269937395,0.8334300810168713,0.41327170042297434,0.180693781710691
9.734734319,-0.29602151499269314,-0.8288860136838878,3.246982329471556,1.019185899264048,0.4292978323237724,0.15884682672902223
9.834737977,-0.13900717320037914,-0.5004940999857459,3.394049957848137,1.2583470461169697,0.47528896265991716,0.09308251548697605
9.93474856,0.016255358273857844,-0.10204108944374439,3.4769158084066403,1.284205258124813,0.5592452144423443,-0.024943745988628408
10.03473013,0.07922333782534904,0.13657458230876637,3.627413024337637,1.2394890911429017,0.47518737302346564,-0.09096766154747124
10.134745645,0.26699464954883495,0.41893521847646853,3.697646340879815,1.2334798151056945,0.40802364091231963,-0.13986623092216993
10.234732084000001,0.4403408569976656,0.8145514380200253,3.6957508250109647,0.9371008360090032,0.38134044762882935,-0.16626847702502254
10.334738146,0.6785101743264376,1.1591425735558427,3.6601720867157375,0.8267375500051226,0.32800500921427994,-0.17712159992168772
10.434790696,0.8445911073811814,1.3795630804548942,3.541002879333365,0.5129559221063239,0.3092269214057308,-0.1916108393509737
10.534731063,1.2441398302312794,1.4927035576828271,3.4882098642222186,0.35225695464296614,0.34412539676871917,-0.19823306184905748
10.634733532,1.4907963676950982,1.5747737648340812,3.3418709053810467,0.038543190290534345,0.33930728692399864,-0.2050577926059725
10.734725722,1.828936239790905,1.570440469721049,3.315891112351456,-0.16332474566610675,0.36029248390516183,-0.21691722858828863
10.834734882,2.192164777287748,1.5245372901162908,3.2185542478157068,-0.4157039552655903,0.3993061979746407,-0.23233424113080597
10.934728295,2.5393878617662033,1.3260186878119675,3.2396098288452753,-0.6722034758824306,0.4343710268489431,-0.2329796485991499
11.034730266,2.713976411980126,1.0795396970070479,3.131780543528236,-0.8748897604392833,0.4550471479654859,-0.2228785762424592
11.13473665,2.8814854760543334,0.8989801833414172,3.2255824730436213,-1.0623903039140872,0.5247621984586979,-0.23849184427699052
11.234731255,3.078045725041707,0.6124171080039702,3.3769259719373004,-1.2289562614546166,0.49119664490629394,-0.2384445358896028
11.334725632,3.0723360747021924,0.2669888983182744,3.41526421596852,-1.507552747098195,0.47653348966706316,-0.22956105410902153
11.434726819,3.0678879618009045,-0.14360006430949235,3.437148642606887,-1.7624329737690516,0.4942151634081659,-0.22742600417560543
11.534732962,3.0229957491589627,-0.39856492132973526,3.4421797660293336,-1.9120425873138995,0.4916711173189852,-0.21669850400137738
11.634735659,2.9404708490060454,-0.8057562134395705,3.4754522199820315,-2.210680014369356,0.47671305204255077,-0.21853122719328086
11.734729329,2.7207427794756724,-1.0346149414988408,3.3935632801930513,-2.4220035122035726,0.46107647756972603,-0.2006467376490111
11.834818033,2.3392841594014047,-1.147614125027958,3.458829026325188,-2.5858098581315296,0.44394131973773676,-0.19712706507200023
11.934734858,2.1081322678550443,-1.3599200397838838,3.4741045543318085,-2.809375416624627,0.4071773751139884,-0.2006749658534446
12.034728584,1.7433393651082796,-1.4538986702064218,3.4504755192976244,-2.9639747578458513,0.3703189028621923,-0.20603083431391575
12.134740762,1.3954205721409947,-1.4621528822458156,3.365005423294589,-3.2551236463544817,0.36999440269196965,-0.209203111505902
12.234730982,1.1258477790363635,-1.4119521035933784,3.353605467113775,-3.457182827418356,0.3420462123935614,-0.2073860618937569
12.334729728,0.7638264995687128,-1.231160148121643,3.192190718690235,-3.7248513165395742,0.34176822463588613,-0.20758112258862718
12.434745706,0.4885313285592391,-1.0585375637817513,3.2891185375256917,-3.9381683384075403,0.37319860965934326,-0.21982715000884623
12.534729749,0.30626095117250524,-0.8126801387493428,3.221580220243972,-4.057377809670928,0.45915920908514624,-0.16500192345496748
12.634742746,0.15461651246169575,-0.492802101195282,3.4921152702531506,-4.29224745396194,0.5025076133976333,-0.09248235917642503
12.734729604,-0.009581731023566104,-0.25528080124073316,3.618523102312034,-4.260712687992956,0.5206982655123811,-0.0013744997692265925
12.834746884,-0.18116704892510138,0.14425361586421567,3.6999060207933514,-4.267384778877039,0.40358870511891126,0.053703612717074786
12.934730287,-0.3127513128783385,0.4384851620474527,3.7579769369913407,-4.152933835135034,0.3131262731437362,0.08521601589699518
13.034729357,-0.6226123919062713,0.6652742169772948,3.735870099797108,-3.963591167228133,0.255688619640485,0.11817072896936258
13.134774631,-0.9005902870021832,0.9857732231563859,3.6919389342147477,-3.741887424239247,0.18345639110367068,0.14538020252340056
13.234735779,-1.1166642046954542,1.2409938662409463,3.5970368588028214,-3.4815727695596768,0.1489414899873816,0.16192205722443145
13.334730797,-1.5420027144283284,1.3185344621766508,3.3657319353038084,-3.2861128480004327,0.17572608690666155,0.16621628331796318
13.434736685,-1.77900789821758,1.4077390239366336,3.083074898453347,-3.066586033209744,0.19859263831852775,0.17031005255719614
13.534735499,-2.146609257464635,1.3497641376286325,3.0178984561635622,-2.9428587439229363,0.2753764123594641,0.16638504808691795
13.6347346,-2.351832560742325,1.1923632724442266,3.0150156561871118,-2.7351502235173335,0.37364756765199764,0.18611795047226606
13.734743683,-2.7403351293070513,0.985203319308294,2.946946897252173,-2.3746500793890712,0.40343430913217376,0.19938827320899552
13.834855428000001,-2.786101537010009,0.8014328380790838,3.0242301140516648,-2.1144133212126626,0.4271724515818177,0.20549566074806816
13.93475813,-2.9969523312578707,0.4376835206290266,3.1548912591477025,-1.9069380225883592,0.45534472454145025,0.20424613060662028
14.034730197,-3.068228903198773,0.2991892729112875,3.1372357722061626,-1.6991259644345906,0.46764243963945284,0.20029416038682207
14.134731463,-3.1205753243092116,-0.04668478513551455,3.1984715900002394,-1.4357148925177843,0.4518713753213726,0.19894941494511414
14.234732128,-3.0493092984856496,-0.3888428003709466,3.242315762905016,-1.195181555288645,0.45321794836883544,0.20128748659269508
14.334728751,-2.864277174441949,-0.6067008803755112,3.2767650778487853,-1.0097108639649341,0.45589014342260853,0.197187302705542
14.434725264,-2.7350478240464677,-0.9434021386455513,3.30362870893178,-0.8021991168040855,0.4538342775748556,0.19773663031407507
14.534742199,-2.441085810818642,-1.0674009862759464,3.252523634223187,-0.5951593582405476,0.4632882597967229,0.19556651116759155
14.634730844,-2.1478051191039875,-1.3322732384344442,3.3810759874005782,-0.372744257008236,0.46131471449432576,0.19390539154527317
14.734736526,-1.7238059911586985,-1.4196211150382436,3.307344117394269,-0.08386458950560209,0.4425686289723892,0.19901392359934716
14.834727391,-1.474172112917448,-1.4257286822567283,3.302397733346384,0.09199249558164405,0.43330378584220725,0.19173801905988164
14.934762376,-1.180450708401201,-1.3534768135437623,3.345060545440774,0.40862600545246036,0.4250342232644472,0.19146665603099716
15.034730926,-0.8782495179479446,-1.1334663889282248,3.3450235638167096,0.6096072036502295,0.3998136652652866,0.18569241153730237
15.134741974,-0.5783849268435316,-0.9976595602609721,3.2669633171390884,0.7464812425794166,0.40513919438689433,0.17654134678913924
15.234755989,-0.40198272765927623,-0.7433104215946871,3.265359362306954,1.014556021846172,0.40350647259339845,0.1722478870640727
15.334729013,-0.20574812628809186,-0.42579388013303754,3.3476227330047075,1.2651740961387477,0.4707190252483564,0.08352560745694855
