time (sec),x position (m),y position (m),forward velocity (m/s),"heading angle (rad), from x-axis, positive is CCW",throttle (unitless; -1 to 1),steering angle (unitless; -1 to 1)
0.12533423800000001,-0.07687771741594968,-1.0270568792643417,-0.007818621169187617,0.7838764383634104,0.75,0.36439552579620416
0.225351879,-0.168321201609468,-1.087454545091602,0.003615048981118807,0.8288853738917761,0.75,0.13663079011123494
0.32543446200000004,-0.11840386040099596,-1.1150740512453283,-0.006566992725351702,0.7672706045169608,0.75,0.16894957369432348
0.425356905,-0.1434745429642623,-1.0526568248728554,0.5438271355930757,0.7730364552786378,0.75,0.22309924159696107
0.525367337,-0.047390916543925125,-1.0056825223285204,1.3869176576776021,0.9132477611077617,0.75,0.2033858316069656
0.625350972,0.05017147412741474,-0.796971519054117,2.314792525247211,1.0993406698347585,0.75,0.11589731256812809
0.7253710830000001,0.1934664919607147,-0.5767351327805768,2.8479237910507935,1.1894922309615144,0.75,0.006443851997855285
0.825352606,0.3501528688693868,-0.308086077927913,3.358793159219911,1.0579352550899166,0.7251324277168926,-0.08681094326761636
0.9253694130000001,0.5403138715633906,0.035056799629105656,3.4596864399106426,1.0030636327423215,0.5192584849123395,-0.1319044344844863
1.025346028,0.7970279207639591,0.2611725934040944,3.5788766621637595,0.8202622945809589,0.41241170914937086,-0.15496102220006938
1.125339672,1.08548529631076,0.5233468376004425,3.4689580416306938,0.6205638091273338,0.3523471019878397,-0.17251519324343756
1.225349501,1.2661632533058504,0.59757115194102,3.489800725391487,0.4606486086135236,0.29663657792926273,-0.18101940324301732
1.325344707,1.6343386051303892,0.7571370526858152,3.35264438443511,0.23293085767088967,0.27823222756000704,-0.18664395506541254
1.425343182,1.964315365619697,0.7107503437360972,3.2989121814020463,-0.03650321412797843,0.28994849578239174,-0.1982290519531421
1.525362306,2.2630881548101422,0.8057343425022176,3.176571734701687,-0.3691720959572566,0.28943402903677584,-0.20130808988773136
1.625348156,2.5323903180019034,0.5891028830309004,3.1703853681892977,-0.5391020536668832,0.3660471796481399,-0.22161412016847748
1.725344635,2.81157908908708,0.5019828276002382,3.1354805489776476,-0.7252253556353563,0.3767076489185953,-0.2342290150980938
1.825349835,3.1191700052182636,0.19792793876382306,3.0934557997794796,-1.091499705377853,0.5078235626416868,-0.237053625079222
1.925364381,3.2110612583048432,-0.11013216112882586,3.0925140702551546,-1.3268042089126821,0.4516178327978617,-0.2383468346147468
2.025368856,3.260393358356011,-0.39329281095248964,3.1408904212993325,-1.5664877842702245,0.47833092587732917,-0.22978542143521685
2.125346618,3.200737868316462,-0.7394869238511853,3.1650258328517795,-1.6890537853188887,0.46963903121567996,-0.23340370353695697
2.225348164,3.077215752336896,-1.0262373267454534,3.1349633968536974,-2.0032709519687577,0.47984564436677246,-0.2256098400212725
2.325350491,2.977392238772372,-1.30979110991295,3.24301125126581,-2.144884833677198,0.5255265080743399,-0.21960900687303947
2.425431453,2.764202588830875,-1.4926420910308025,3.325308894191877,-2.4707246922478308,0.49799616489408494,-0.20964540539120402
2.525343301,2.5055290830683994,-1.7396114572937615,3.3516660231202327,-2.7010934046366515,0.4780342472554318,-0.20757874580868774
2.625368249,2.1815750357541126,-1.8299329333310443,3.362366030915477,-2.8610503023478073,0.47050757739982285,-0.20366834555722765
2.7254374180000003,1.8181637354226232,-1.9528482739188913,3.406089110112566,-3.1514911938135697,0.44800171888553086,-0.19936439623600533
2.825363947,1.555778793010848,-1.9151980660593084,3.332366087049083,-3.3455288496256843,0.41954361022610587,-0.19640156845057094
2.925348725,1.0920532676752919,-1.9160509157477097,3.3833002674583126,-3.526576315698253,0.4100418239492111,-0.19688407293755322
3.025400069,0.8278259875379371,-1.6678460639374693,3.391784043435647,-3.7616785337747154,0.4114689197450265,-0.19977048423810487
3.125337725,0.6039600065342279,-1.4567652721819278,3.310593896275242,-3.9617320317624056,0.408007381126923,-0.19374904225180745
3.225347343,0.43424165350848487,-1.2315592688843577,3.4045339385628464,-4.246198645829643,0.4526171932306697,-0.17598202869230603
3.3253925840000003,0.23435258609401324,-0.986190979216289,3.4700141031085114,-4.310764509712709,0.5468061108712177,-0.07317651233053779
3.425435713,0.09104035110740999,-0.559677497465749,3.8308170865222095,-4.330804427579537,0.5136838124477746,0.010933267851656481
3.525349849,-0.0037722386516099576,-0.35547077478869743,3.8181858186971698,-4.277316442410227,0.4160298196691082,0.06677952895598879
3.6254399409999998,-0.20726019750319047,0.13579617388223805,3.880676171771328,-4.160724518420838,0.32975719014415933,0.10739875925694707
3.725354229,-0.36380508427261266,0.43756157226132686,3.84971613218007,-3.953021357873249,0.24235481421783742,0.13351316835251845
3.825348469,-0.7783236140045107,0.5819761009850735,3.729639313265148,-3.7899389723726284,0.18959659006324842,0.1545844458298949
3.925355695,-1.0014913690070537,0.8605266754024818,3.51707270371246,-3.486979684341128,0.18370567077635788,0.16240718268404924
4.025434417,-1.361304670761136,0.978268308364577,3.339245251778029,-3.277278774482715,0.18938115997603458,0.15349854577520194
4.125340341,-1.669807229610991,1.1192394261119358,3.1748524937354903,-2.9886207973983647,0.23633332842780527,0.15863031178989018
4.225424828,-1.9413253178690495,1.111310040416034,3.0566387180403924,-2.852896968277719,0.3034293259492182,0.16239995958407227
4.325346752,-2.2528226641716653,0.9767321285603775,2.805773074850532,-2.6655608123249688,0.07691107686225677,0.2625782641772394
4.42534603,-2.415677278603623,0.8721295742826405,2.754023965432484,-2.354330772905014,0.30393942586261385,0.23750759277767525
4.525406746,-2.5274420378145535,0.6752813601617415,2.81916666895992,-2.1051625827438856,0.5307618982013599,0.1667698399184479
4.625373179,-2.797021363921447,0.3380373236174822,2.9508462143212393,-1.8809052041777006,0.5042249052220648,0.1702045858371805
4.7253770280000005,-2.792146691434418,0.03668931239645758,3.115510747237544,-1.7947803818736077,0.4388544497002824,0.17875725230726056
4.825360089,-2.8142832964273676,-0.26586948196215443,3.0844382277127584,-1.4574691055889168,0.4250412643827846,0.19143177380843795
4.925363958,-2.78963212314811,-0.5097836315178071,3.202102269068443,-1.2761205191406804,0.39572007006931936,0.19693899808942722
5.025347911,-2.6827565069244956,-0.7747464791593562,3.1571942473480634,-0.9842696189211446,0.4103362522760604,0.19718076742352758
5.125336041,-2.499027611885948,-1.161197135064242,3.0791115890528795,-0.77279121220805,0.43563663839993466,0.198141311439548
5.225348446,-2.2492583485600384,-1.3067346801958195,3.212803663110976,-0.5394103106295624,0.4687306252725081,0.20011169847121266
5.325343866,-1.9724168556379493,-1.4817620893435297,3.2052340020400893,-0.3686571421094059,0.45768212835773314,0.20300585305261643
5.425376721,-1.641762935794071,-1.46526933240237,3.231806835783202,-0.09126475226956138,0.4418962320520605,0.19862199221811516
5.52534805,-1.3403057398763751,-1.5678438904343504,3.2393361227675013,0.066987217424312,0.4597054986697994,0.19843545345328173
5.625436566,-1.014464589039842,-1.4734801773739774,3.274314444831453,0.3215832150386339,0.427623879408626,0.19496406324038487
5.725392951,-0.7681541213335648,-1.3461072051517957,3.3204564543860142,0.5568637336468811,0.40289517271174385,0.18242654378080833
5.825453592,-0.3931829366584526,-1.1100091993611483,3.272836608875789,0.8265390848121019,0.410429490569025,0.17307556597894505
5.925360727,-0.25527019660704603,-0.9107782384354665,3.303339962265549,1.0043443729549784,0.4240448488587739,0.17398299061570519
6.025359367,-0.07233132902378091,-0.6089222938164766,3.2826129393317927,1.2318707540739555,0.46917228096274544,0.11187938159744969
6.1253364359999996,-0.0055357483682266645,-0.23953493632502385,3.451630919797538,1.237159591541977,0.5488219855899156,-0.018720937810906405
6.225368021,0.18372391527089513,-0.06370155972183428,3.5514071909918887,1.2803595784349773,0.4891347057947109,-0.09128515769291903
6.325409377,0.30337336717657903,0.4024701123574065,3.682185548295669,1.1656682625092856,0.41919290493591815,-0.13365907937555757
6.425350911,0.4235358972334053,0.707305969926659,3.617015784129652,0.9524870807664104,0.3907862399608567,-0.16190897587219524
6.525358968,0.7474897355917675,0.9199986633621873,3.5303071536092308,0.744530902647042,0.32539638688114436,-0.16837773015460897
6.625347428,0.9124523678982073,1.1509058714411389,3.526054016408217,0.4702607034092038,0.313098745589285,-0.18723481861513802
6.725419938,1.2461279350964656,1.372685349721143,3.466235832271285,0.3336392374386859,0.3308235710355378,-0.18226835048620232
6.825367107,1.5810746870692474,1.4474053559110642,3.345704705953761,0.10761368446871757,0.34274417052167083,-0.19084518065206924
6.925348033,1.8971152467640664,1.4150747908703758,3.308073761939722,-0.14004931037637405,0.35562117931579895,-0.20177162619409064
7.02539689,2.24123848512952,1.4286116273138436,3.3410417067884737,-0.38470972312794866,0.3801942282632516,-0.2054668376042941
7.125442078,2.572379479718027,1.1997723202302122,3.272547888933456,-0.5323217426085523,0.4193679326105838,-0.21617871649590434
7.225356542,2.8094887813321985,1.0816223580006379,3.2682287310629135,-0.8268875610140564,0.4182761298261404,-0.212241294459493
7.325364694,2.967691656038424,0.7529397149557627,3.3274466843179327,-1.0992573976475737,0.4445310323148104,-0.22444821052900218
7.425345786,3.130901027534122,0.5051718044588931,3.2983857461718986,-1.2679862697435438,0.4773057658173213,-0.22735083136915216
7.525355971,3.2518638550159,0.1428429493688954,3.3482079644725284,-1.5429218170803762,0.45193416002478937,-0.215823440204868
7.625346116,3.2077399742854915,-0.1693060977587983,3.3568155909068027,-1.7653517682074993,0.47703712283926825,-0.2195721877858144
7.72543704,3.1128971135439882,-0.47801990152729734,3.408658159396911,-1.9612330249320582,0.5048485757362247,-0.21450507284466136
7.825343878,2.9441520017274936,-0.7685163623543783,3.337038573766888,-2.1446139558781585,0.4776863716119,-0.20377143496740122
7.925368079,2.7230602240042674,-1.0441242640175692,3.3869989629861843,-2.3636500453112954,0.46531215549437344,-0.20280266662856888
8.025344362,2.5140337588586235,-1.2667824762742783,3.4700930516380035,-2.6235808462808445,0.47167437266219714,-0.19515755990159558
8.125336238,2.186758717124218,-1.369278501083483,3.4679621653125556,-2.9663183880482213,0.42796758956831604,-0.19986578029682128
8.225344648,1.8562159836016419,-1.5052332462914373,3.4229023013597977,-3.0485363405615264,0.39432127060065514,-0.18887574401936816
8.325347076,1.5418200289207498,-1.5474365014199551,3.377111726697462,-3.2628384224936413,0.38346440470128634,-0.1984796424723568
8.425345258,1.1899225599685541,-1.4420053878258914,3.3349045320356465,-3.5257113207989175,0.36331319853852795,-0.19754442426994676
8.525345537,0.834921201900192,-1.290522522543507,3.3248106581715193,-3.7455076336701243,0.36283913063849826,-0.20107891113434637
8.625344656,0.5515904190989445,-1.1643493084716812,3.343786977401669,-3.9471554315832966,0.3831218242644202,-0.19162646485303997
8.725345397,0.42246814331434784,-0.8497776194738687,3.318395505885599,-4.15030209074616,0.43996842312766954,-0.1705275280162496
8.825347028,0.20895885734008213,-0.6391500153176808,3.4521978913249387,-4.280983252770894,0.5031197394224014,-0.08628571256627565
8.925347327,0.10207746648585664,-0.2524922501424154,3.634570834782246,-4.295078009018899,0.48652153899169087,8.507574179937669e-5
9.025345803,-0.11907131303533516,0.06919827354752987,3.766437051374471,-4.288710345940508,0.4208574289338953,0.06206168172902894
9.125337338,-0.35812455233885393,0.40289314659530623,3.7890609327711124,-4.140359420988377,0.31339814916557673,0.10099432245826216
9.225341947,-0.568600443165411,0.7403953066410687,3.7669763082753387,-4.001182771478548,0.23973745818432635,0.12438528991498327
9.325350649,-0.7922291964391196,1.0023822493503702,3.675721277475477,-3.8085129675332463,0.19847429790615542,0.15283112789748632
9.425389941,-1.0583423165093988,1.2023758894426393,3.4428716176932097,-3.610933304865526,0.17948146581853963,0.16247371323085064
9.525348712,-1.4122955650684785,1.3037361295346914,3.379249105724459,-3.36678389561448,0.20571287946723169,0.1686417053904449
9.625354158,-1.7109751560939712,1.2716239854634397,3.217221415278131,-3.0749517700878863,0.2646824185804638,0.1701808019595997
9.725450031,-1.9946985814672171,1.26736702766703,3.0915447512168535,-2.9278408732324146,0.2998529227804492,0.16805713064048627
9.825345772,-2.3513638432037207,1.121410836615355,3.0365475926335455,-2.6044345424917297,0.3489309591586936,0.17834853345318946
9.92544117,-2.505120576009687,1.042916104242507,3.030804025859833,-2.34811008806944,0.39915823341814566,0.18831466715806663
10.025424914,-2.758647704783854,0.7437323797811684,3.0744329290009813,-2.182994518795695,0.40685726775364045,0.191563941386881
10.125335498,-2.936276826019439,0.5285577451577368,3.095126258528785,-1.9793869161069433,0.4164117177335039,0.19694486783658732
10.225348165,-2.9853407518512007,0.2916654722309309,3.133154905686366,-1.7557825938728633,0.4328355391551993,0.18965198691869434
10.325347023,-3.0581695982758474,-0.06726518148848606,3.083455769342167,-1.5144645072924656,0.4252132309904441,0.1920700609060708
10.425354569,-3.0008668917532964,-0.3985880400444154,3.1506882135371312,-1.2736487428649466,0.42203930038586346,0.19605275530162355
10.525352833,-2.7972877075139073,-0.6106409854277914,3.1882145987268733,-1.113737263065308,0.456641197961077,0.19349402851428907
10.625345007,-2.6983941978823056,-0.9513915427077937,3.221451438032311,-0.819622761734207,0.4593448628648334,0.2074249265773429
10.725343176,-2.443840603361566,-1.2328994049888975,3.3549251073123707,-0.6053751958768252,0.4427510235565995,0.20637313548541666
10.825344101,-2.1128198511729375,-1.3624109256374362,3.280315037859104,-0.3408839754400942,0.4553216458852015,0.21136033586024383
10.925371182,-1.8003277581869404,-1.3649264861361374,3.2515433952660424,-0.1957698369863648,0.4593510791160511,0.20779471296416363
11.025346965,-1.4848966513941757,-1.4305616422973848,3.3006243614141275,0.09121432507527019,0.4356916632269237,0.19260047807032663
11.125333871,-1.205695138472074,-1.403345598125875,3.312268967159765,0.30922900492952526,0.4272584267917479,0.183031090705862
11.225343492,-0.854066166449402,-1.2762603645937138,3.248518241492364,0.5442759158900476,0.40779574303772775,0.18839166836414278
11.325358604,-0.6120964028107446,-1.0917531576811774,3.3082832725922797,0.7401897072324115,0.3947493654901807,0.1923462696773427
11.42542347,-0.3587298244948389,-0.8247179024884601,3.215165093529769,0.9249930551976611,0.4243758122473044,0.1640974375664557
11.525423570000001,-0.16616231979551965,-0.5330360067988505,3.356746552245044,1.1404129033205634,0.4780764661200076,0.09578680502660081
11.625406314,-0.14736238295993248,-0.2912561093877457,3.4222195451564974,1.1702099386856184,0.5009855288513687,0.005657043019917783
11.725359794,0.017874199078918386,0.06415478871562456,3.56591029872273,1.1132959384418948,0.48873059575605654,-0.06558863161402954
11.825347163,0.14186284001838306,0.38777894121673206,3.702712961509097,1.1358156202194132,0.4175006529371391,-0.12453168654999115
11.925350008,0.2918715273840683,0.7289197240313556,3.7128238067196317,0.8859317225553536,0.3612162037456634,-0.15569836412328097
12.025370977,0.6515089524708658,0.9702216384556678,3.5885157342967977,0.7087897635309028,0.3328921190042846,-0.17466547310156225
12.125336549,0.9326180011234695,1.2587001479220414,3.580622875621896,0.5479473477442327,0.31842640132580646,-0.18674241796470806
12.22534992,1.1285301972860793,1.4357013862425387,3.5058399602478754,0.3214100096965902,0.3183092055486883,-0.19103186727999472
12.325346644,1.5001661136446076,1.565799795629422,3.4587519815964005,0.14580423998410755,0.3375566778298475,-0.19752391618344034
12.425362747,1.7863230349070913,1.5123036532191572,3.4211733000874958,-0.08981228446843557,0.35415371828697856,-0.20727899871253955
12.525343234,2.1627038942802073,1.5293465460034668,3.34164672983521,-0.3753693720376012,0.36791181099905335,-0.20576338157007393
12.625346897,2.439748323999655,1.4366157051242228,3.2974019795635976,-0.5613929434445636,0.41461310023116,-0.22252732515872745
12.725406328,2.6837821496182945,1.1536405244986536,3.2680370050054606,-0.777718066753207,0.42802534248287316,-0.23092693339255882
12.825343359,2.9312456948544603,0.9107731965485419,3.3010922037039974,-1.070650426653571,0.4351183215363747,-0.23162615937718917
12.92535045,3.0573482320869627,0.5963655980662574,3.3613596413294506,-1.2149133714640337,0.4572739573301832,-0.22813849289133747
13.025346891,3.2190341439200063,0.2854969554462379,3.284299578756368,-1.4515564537283023,0.46852093957707025,-0.23421146965575107
13.12533656,3.2278769956309246,-0.07464393300206038,3.3320646436973247,-1.7454944336291938,0.48088402724186924,-0.22449878480977628
13.225360005,3.1380268634553143,-0.3302913256723699,3.429843727062777,-1.886255744496827,0.4864435232723696,-0.22211096361912153
13.325361381,2.9774696713456863,-0.7487996308287234,3.435221208752839,-2.188184499625434,0.48386263812548386,-0.22208352807318252
13.425432799,2.788716780164587,-0.914632224610482,3.465374030784728,-2.3837324515315514,0.4618876572151079,-0.2125262439346955
13.525353968,2.580677014212491,-1.1960254649191475,3.4272530371600167,-2.536087966800842,0.4481524159791996,-0.2071594323503275
13.625437682,2.2711641686453605,-1.3791107215239529,3.4093131132714514,-2.7490968827731455,0.43550950927980814,-0.21114776856402437
13.72536184,1.930777864406051,-1.4376333238123211,3.4494150845929985,-3.014451260802972,0.3839162163190106,-0.1978590903065294
13.825454321,1.5390046438022642,-1.4700106874026773,3.36658677992699,-3.2687399495885208,0.38386382705789845,-0.20458210156498463
13.925354456,1.1837141653383019,-1.4869514922372822,3.360814581583221,-3.452374177904613,0.3626081946860977,-0.2010409391658533
14.025392534,0.9434994798671134,-1.3089294647976843,3.321694584258575,-3.704285276049336,0.3564864633958186,-0.21027531776462044
14.125337307,0.5894747129819822,-1.0993595091340858,3.3157110461642323,-3.9174698896347233,0.37416066705507545,-0.20300344457330366
14.225349485,0.45914646029690065,-0.8999751777215014,3.3357903839370153,-4.046336881490291,0.4221545508020002,-0.1797488472840549
14.325435159,0.22577060532183796,-0.5485301617959666,3.363223869775399,-4.27919404454764,0.488530477021798,-0.10153097527493532
14.425356278,0.058691176102665235,-0.3078858188106974,3.6149869433312216,-4.198185974984323,0.508651254873295,-0.0032368384105547774
14.525356115,-0.02803211730947395,0.04011445187390004,3.7930629449912714,-4.262677583681215,0.4212597068408661,0.05360345125921796
14.625365005,-0.2611155200726596,0.3346597973640484,3.8519508196821426,-4.121405841074889,0.3213684488016878,0.09209486991867377
14.725341735,-0.5512616226039868,0.7096984193686484,3.78687039573363,-3.9887536692816967,0.24804620002329283,0.11893577114887374
14.825348958,-0.7189213086283717,0.9135117754606573,3.7027621892332814,-3.7799709199962015,0.19607328743431426,0.14364677706938012
14.925347644,-1.0576089854207866,1.1339665338741056,3.502702424151185,-3.5591731123073287,0.17320207521659706,0.15897188265174805
15.02534328,-1.343486560817374,1.2059974407636502,3.2737234566789444,-3.296646188824402,0.20288263529228606,0.1523382878983241
15.125340508,-1.699527237794213,1.3209379809964106,3.1561653415489697,-3.060957862171753,0.25800868100140173,0.1546888143241777
15.225359202,-2.0574231742848736,1.204691628426857,3.051034888826307,-2.9013192117908195,0.2995049585046937,0.16507175939781438
15.325358607,-2.382720890905978,1.1467801667660062,3.060633101566365,-2.651891318847156,0.330792790977565,0.18254341886406375
15.425371903,-2.5864065081594214,0.9527303536353877,3.000327021426102,-2.42735070715338,0.3825266141871819,0.17779712676042833
