time (sec),x position (m),y position (m),forward velocity (m/s),"heading angle (rad), from x-axis, positive is CCW",throttle (unitless; -1 to 1),steering angle (unitless; -1 to 1)
0.138141817,0.4624686188390052,-0.47177945141954036,0.10332775243804979,2.274582728603106,0.16806774055637347,0.06104000910894201
0.17815281700000002,0.45677879081578465,-0.4646629804216441,0.2919912657624109,2.2737511862211033,0.5305569156447801,-0.11381469882888678
0.21813116100000002,0.446069527465125,-0.4517434265416815,0.48741100425939876,2.269609019968734,0.65,-0.1392445448071466
0.25813404100000004,0.430408612443065,-0.4320241279444716,0.7123068229350319,2.2590195040776035,0.65,-0.14943902228180886
0.298133386,0.4103334722935439,-0.4055117255661887,0.9009829387262821,2.242487576684636,0.65,-0.15736411527380717
0.33813157600000004,0.3851354342878337,-0.37190679549159616,1.134075078359704,2.219808243140317,0.65,-0.1575985116364872
0.378129657,0.35621023169676913,-0.3307893415231215,1.336307440385198,2.187580996704296,0.65,-0.15579094716580355
0.418194131,0.3234438555699591,-0.2815151853532052,1.5672073313785426,2.1528098778353604,0.65,-0.1520866224815689
0.45814098000000003,0.28760589488322363,-0.22480102803738422,1.6955134293158842,2.117042594936489,0.65,-0.1230422703504404
0.49813125,0.2485286405576925,-0.15933100360910357,1.970176938435625,2.0901140388228976,0.65,-0.08670966554345205
0.538132462,0.20654595370968587,-0.08627973791286793,2.185913779643135,2.070694437615807,0.65,-0.05073162406600823
0.578200134,0.1613113043744442,-0.004514409884113051,2.422721827122746,2.0698561404440157,0.65,-0.02661574326144775
0.618131885,0.11240294686033349,0.08450169549385132,2.6133585489599884,2.0783994398704313,0.65,0.006116416465810881
0.658147322,0.058270129663089434,0.17959181913266234,2.7608272340448234,2.0940806880209677,0.65,0.036265093015836754
0.698141128,-0.0015675476826460717,0.2796641747004091,2.9757565755484316,2.118568270204455,0.65,0.06001899566284982
0.738141523,-0.06797116729012127,0.3825159476837596,3.1186962682311496,2.151347858249337,0.65,0.06966581524403259
0.7781334790000001,-0.1402511772735576,0.48759432312169965,3.2284743385381702,2.1871184413826663,0.6487876552901332,0.08807779860791644
0.8181387450000001,-0.21895344774270867,0.5932971133137352,3.3366226169483624,2.2302916554106442,0.5765674821262647,0.10421600987282546
0.8581301250000001,-0.30383005598097057,0.6977220574028467,3.38246203050112,2.276949939605412,0.5355833257391434,0.11799761791516558
0.8981317600000001,-0.3950722349058424,0.7994748343840836,3.4198184573663815,2.3261342813063424,0.46318758530344895,0.12958101274658138
0.9381310740000001,-0.4920282716199169,0.8977769214764318,3.446079611324923,2.380152475838172,0.4093874627960875,0.13991298940776659
0.9781313410000001,-0.5946712633760969,0.9913171570081604,3.4901425413744005,2.438399537752436,0.38359397774293097,0.1499831565969441
1.018132407,-0.7027288486002919,1.0790069540986207,3.498226678803459,2.5048484320211584,0.368720822265664,0.15984641052339302
1.058133184,-0.8162796104620015,1.1598321361101311,3.4794862297548157,2.5796327466705486,0.3323395547597464,0.15992798034520275
1.098132666,-0.9341431910682357,1.2325150088466037,3.4519098485415607,2.6630872639651018,0.28698891552698025,0.17186884908549427
1.138132522,-1.056071971482275,1.2957411975158306,3.423359615550665,2.753270219971822,0.2659612237819929,0.18267765199649788
1.1781337490000001,-1.1810862554913453,1.3476886299315063,3.3604205030172465,2.852504968501591,0.25473139404161305,0.2033189631021149
1.218132591,-1.308226674165815,1.3883655932177354,3.3140060139737053,2.9521882532151222,0.23969200401450005,0.2034467818961919
1.258130133,-1.436166137335645,1.4164659970247866,3.260332215874778,3.0531155009071558,0.23416594598193788,0.2023530887647767
1.298130904,-1.564198246898174,1.431849022561735,3.1951213571852213,-3.13111815384309,0.2499413667581634,0.1988332803231053
1.338130328,-1.6910297152686438,1.4343902976968057,3.1427392762775423,-3.036786268309961,0.27173982411852055,0.199484616697634
1.378188735,-1.7847610950587887,1.428469119126787,3.1271367182377534,-2.9655189296009805,0.2737276739829899,0.2001486700837166
1.418130127,-1.9368605670749965,1.4033733322558377,3.0687276626300353,-2.852159801238496,0.293870570164082,0.2022888276250986
1.45813473,-2.0253844686917204,1.3793190983071066,3.043406634160213,-2.7876844382393986,0.3241049750107919,0.2060748753934408
1.498149161,-2.111576387691117,1.34925789036914,3.0364279340215687,-2.7254906973441297,0.3516383774383441,0.2153398228469229
1.538133034,-2.275203704626871,1.2714498325710217,3.0246835439144117,-2.605525596339839,0.37025368207581116,0.21333363097822786
1.578141325,-2.3783618497254526,1.2078943924151189,3.040019604446787,-2.5164898362384007,0.399613320022189,0.2265173638116219
1.618138416,-2.4757225781426215,1.1349801955843033,3.0463520397141965,-2.4252050061441053,0.4374817156098504,0.23971416927089062
1.658130115,-2.566341200307948,1.0531223160641041,3.062629321992596,-2.333562583999757,0.450111848301898,0.22804396159853343
1.698133235,-2.6498129889205644,0.9636145359560345,3.0666191630253303,-2.241614636546661,0.4547965013740773,0.23107094292856056
1.738140618,-2.725403356332434,0.8663723408274134,3.094234554625622,-2.1429724562924957,0.47677989904575785,0.2329668352977845
1.7781767990000001,-2.7921150484486335,0.7619046467155253,3.108632766079072,-2.048774014938872,0.5167632325781303,0.2250628787230105
1.818135491,-2.8496049063301916,0.6512440430145832,3.1318831814726704,-1.9521381903238355,0.5133487510098326,0.22517060962533922
1.858171094,-2.8862528861578625,0.5641053454256396,3.1525811574430924,-1.8799008823248429,0.5138408893657351,0.22321193091087865
1.8981439340000001,-2.934250714212386,0.4126266802387814,3.195551133247498,-1.7635260496579128,0.5327749637211353,0.22244413299756094
1.9382145990000001,-2.960781880879546,0.28721294044764,3.2035894596606767,-1.673183479295108,0.5540730082017868,0.2135733792113166
1.978148687,-2.9761404872719925,0.15855484558996855,3.2345466910347653,-1.5839211997247122,0.5477902377246234,0.21797418622851597
2.018135775,-2.9807722054528787,0.028294175515548393,3.277395062697641,-1.4920269223733666,0.5359742247658825,0.2093650358868578
2.058147877,-2.976431565706442,-0.07021103320312133,3.28424976671778,-1.4214986153382425,0.5553953297461263,0.20849142249770425
2.09814756,-2.960906701390068,-0.20144392575336273,3.2995122200467235,-1.3264633565722446,0.547896932954259,0.19834827558644186
2.138191318,-2.9254752365077485,-0.3643965836440959,3.3282486987676188,-1.217449749844945,0.5212300175791053,0.19728037383806668
2.178228216,-2.8843414811763854,-0.4917667677026315,3.351212770287745,-1.1323093407296074,0.5273267435867169,0.20288239285242948
2.218140104,-2.8321624623782333,-0.6154906006557623,3.369688260158611,-1.0449183234728125,0.5387784041276494,0.20117308861297284
2.258149651,-2.7692392401808346,-0.7348605297999562,3.379936320602619,-0.9590420316492156,0.499230256657901,0.18885290905308044
2.298178789,-2.6958907097293006,-0.848186854199011,3.3859132343611873,-0.8772984808491004,0.4788706080711427,0.18896739149288508
2.3381360620000002,-2.6131245517651815,-0.9549022403066328,3.3701865529075277,-0.7965960255133965,0.4724612140041988,0.18869122398144264
2.378130744,-2.5214857853673345,-1.0548065156498363,3.3922051459944735,-0.7180022561528779,0.4614625933912927,0.18281735735533497
2.418171717,-2.421980089387118,-1.146388150097547,3.3808714891622142,-0.6407134438953865,0.431036399031913,0.18396010140179667
2.458231263,-2.3149675549339443,-1.2288133933195224,3.3767223182912733,-0.5625339885241777,0.4216616530429389,0.18633906709189246
2.498216325,-2.2021346467582767,-1.3028168876486306,3.3723655474232337,-0.48318821767248077,0.4093187123347726,0.1900384421002852
2.538232876,-2.083657181645097,-1.366730903643853,3.3566936262457334,-0.3984981426688671,0.3890253869173766,0.18886925295297066
2.578142766,-1.9609555232242852,-1.4196126925256174,3.3259281968124674,-0.309125899364499,0.3617360433001427,0.1919485941617532
2.618231118,-1.8344165290970456,-1.4616488965733851,3.312526367789407,-0.22215828225894851,0.34695998975089004,0.1957092394538934
2.658247137,-1.706155012048122,-1.492179106693227,3.2905322021083236,-0.13451770046007452,0.3499504375413883,0.19847918403654397
2.69823622,-1.576432612589355,-1.5111881817010473,3.2547555108893795,-0.04723751691870104,0.3293857710017302,0.19807703642397906
2.7382137230000003,-1.4468326652896681,-1.5188053821826524,3.233356358161479,0.03779639614309834,0.31610392180274643,0.19974883135148522
2.778142602,-1.3181838903155711,-1.5149664029135734,3.2081422233630974,0.12773758830833434,0.3192288754014442,0.20194657656953857
2.818146043,-1.1913357560091018,-1.4997139700296442,3.1817322466631413,0.2209599104412326,0.3254339035703723,0.20532571737451966
2.8581335770000003,-1.0676428918268122,-1.4727935428931882,3.144578032664841,0.3154358567353946,0.31764735523620086,0.208641937027358
2.898132405,-0.9483751832630548,-1.4353284934412671,3.1229066710898765,0.4124736982364404,0.32478042137372665,0.21118898990700855
2.938134416,-0.8341726748504399,-1.3868060735563812,3.094462615845172,0.5054873983670111,0.3463233393608316,0.21303807928711183
2.9781319340000003,-0.7258332763946049,-1.3282992409385121,3.0731578000295197,0.5970620484308858,0.36222614793840024,0.21054194873086476
3.018134055,-0.6233551397830674,-1.260513618335156,3.068770762856638,0.6828465771023677,0.3704357092562933,0.21224563689860093
3.058134675,-0.5279197858432825,-1.183597227269707,3.055031985364255,0.767713624867947,0.39613715844861064,0.21541870249545217
3.098144598,-0.4607200086853935,-1.120775574975262,3.0684841693711373,0.8313860156234142,0.4340989626020646,0.21862337127227047
3.138149172,-0.3775474534631462,-1.0298889119674326,3.089558962275651,0.9156321382884303,0.48677235761318655,0.20346994474772773
3.178155411,-0.2824912433560908,-0.9055673205879509,3.159734069541005,1.014755887557408,0.5516432418146251,0.15826846134930833
3.218204574,-0.21329795946386995,-0.7974457856591575,3.2389613272397426,1.083098745182115,0.616818796281669,0.11998709565636095
3.258213097,-0.14868055855742174,-0.682370099842596,3.343050291958546,1.1315471752495663,0.65,0.07643005876884451
3.298134679,-0.0881218152137274,-0.5606312169863825,3.435258992419042,1.1551879887025056,0.6197488717926034,0.03691852010354301
3.338131094,-0.029356861715669712,-0.4336759369091468,3.530381468465486,1.1594587591906838,0.6117102136575264,-0.0017791925782735581
3.378134957,0.029146529914692788,-0.30257652819110215,3.630116943759153,1.1577142331988148,0.599584860297098,-0.03433316030771191
3.418192339,0.08945952398908921,-0.16877442733938278,3.6901482403633232,1.153930985870803,0.5369259377306,-0.051391164277539994
3.458191595,0.15133828742625083,-0.03288046256634034,3.740734105513107,1.1478774555713567,0.48928216630527155,-0.07192066065140418
3.498131019,0.2154828825537256,0.10404020634032031,3.7927385795944515,1.1344650719858385,0.4455770356765704,-0.09135065567880245
3.538164974,0.2483761764778591,0.17257208063385024,3.8124140248775116,1.1250424772571281,0.4211563663089721,-0.11078968930039719
3.578133643,0.35177143086817103,0.37709822552744954,3.819582822461586,1.0881304986784333,0.3576427533297216,-0.12719438121919102
3.618132196,0.42527682807248396,0.5112036509236387,3.8090161053269767,1.0496119963002257,0.30993198891141926,-0.14622708828421396
3.658131085,0.5038086984322462,0.6419962703142456,3.81344440505648,0.9970137919392956,0.2907163751620768,-0.16657799957058178
3.698160402,0.5667514729351951,0.7364915488527392,3.775144526736411,0.9473179911871578,0.26478511148991724,-0.18181501968632605
3.738142583,0.656779402180152,0.8565960798137692,3.7253705274168887,0.87080709155464,0.21861820865558046,-0.1935739156765195
3.778145584,0.7785650579077421,0.995587878662132,3.672399914651467,0.7656871991928403,0.18359403954694803,-0.20393583950685892
3.818131224,0.8831809287557117,1.0958522615754793,3.599147359743933,0.6716735922846314,0.17678456721066932,-0.21588709233030004
3.858134991,0.9656407840496941,1.1636635707106964,3.5420145829226954,0.5966412185988172,0.18014466361780213,-0.22112942830972085
3.898133675,1.1094260373189273,1.2614492896223413,3.4376987142198923,0.4760933678240328,0.16142114549147893,-0.2224500372528597
3.938129361,1.2292022143668102,1.3257640479721748,3.375140685436515,0.3839365557854226,0.16475071943130373,-0.22417497021465327
3.978130544,1.3518735438222664,1.3768620997941967,3.292624187253382,0.29114739014748486,0.1791603910966788,-0.23224848583237628
4.018130896,1.4759801241058688,1.4148012368502778,3.2241232018854133,0.19779101963754,0.22996095971659394,-0.23559875820057705
4.058135818,1.6012291160577519,1.4399175476594706,3.167089766243202,0.10562581551743705,0.24139831252135824,-0.242285719690185
4.098132473,1.7260707063050547,1.4523974151212597,3.1245429039003847,0.011420661412482576,0.27703939454904153,-0.24932881253902495
4.138134304,1.849928650132134,1.4519021483352883,3.0968326863931366,-0.0580120591987845,0.3250935081258815,-0.25584291333401055
4.178131005,1.9725629234531266,1.4398714599104703,3.068259512714378,-0.17249537594796222,0.3713689610423339,-0.27199250827724986
4.218132243,2.0925296482077536,1.4153904079301938,3.0695637515042042,-0.27047080520645445,0.4033023508681066,-0.27405833660660317
4.258144927,2.2094765738085744,1.3792356423205774,3.0656263674364426,-0.3668942510796016,0.44371748718898724,-0.28369398958881265
4.298135025,2.3225238056849786,1.3315690362543045,3.077492161496792,-0.46069328477376104,0.4926637953980068,-0.27649157709768524
4.338133908,2.4306282777960386,1.2724209273570228,3.081712782496488,-0.5662124959208007,0.49720720151170067,-0.27615369791844413
4.378147957,2.5334384980298927,1.2030330710030939,3.1053747550236523,-0.6669583565437994,0.5177454133814552,-0.27621927624794607
4.418146507,2.629449597284624,1.124310813551817,3.1331335817869,-0.7719646272929557,0.5461849938662625,-0.2764939841045925
4.458224523,2.7182683716764444,1.034684457579237,3.1585609228568994,-0.8736415034969791,0.565849760617993,-0.27071238267751063
4.498147223,2.799207943123691,0.9373234971272989,3.1294093927750875,-0.9693736481594724,0.5623378580009807,-0.26653348018123424
4.538224463,2.871531057625018,0.8318300836371713,3.2118756279136056,-1.068659069398726,0.5694978775896723,-0.2607787065952005
4.5781339800000005,2.933930095530443,0.7188331374579209,3.2401752283724528,-1.1689953032280584,0.5895844870857521,-0.25568298401618955
4.618134476,2.9854370238113415,0.5995814803511231,3.2730675558568656,-1.2748810200970802,0.6002071100121673,-0.2494227366456438
4.658156045,3.0260450997072423,0.47601260832638026,3.197186611506665,-1.3771035051901268,0.5669138800772794,-0.24529991732383252
4.698235829,3.0540681081664554,0.34848706397691226,3.261617662016398,-1.4806393710298906,0.567436608352572,-0.24076091313519582
4.738214843,3.0702987214496993,0.21782154466825768,3.309886204416606,-1.5793319190342059,0.5786054397357335,-0.2340494700471037
4.778135803,3.0737469970104496,0.08579754274178951,3.3021717345539,-1.6762449544277864,0.5778230653371702,-0.22534799767392616
4.818134302,3.0648220842684557,-0.0463319190170718,3.294510236030434,-1.7682439193631119,0.5438365086030511,-0.21987095026678863
4.858134082,3.043502965777881,-0.1774920713457121,3.3287631407866796,-1.8566043254030302,0.5289081345051438,-0.2162265408332999
4.898134965,3.0101449052741063,-0.3062065156941707,3.350257401642898,-1.9405283949872814,0.5234173401625944,-0.20903492887848096
4.938145306,2.9654656223674833,-0.43182428453777716,3.3370399069341294,-2.02072054641691,0.5024383890685035,-0.2074429531251362
4.978130383,2.909008973236791,-0.5532385718631591,3.338430287066413,-2.0984519962097057,0.476801839317934,-0.20783656630603822
5.018154151,2.841981290054587,-0.6695981665735576,3.355778270709349,-2.179204237565319,0.46949983424427266,-0.21007817923344457
5.058230991,2.7650344814086147,-0.7796560555095325,3.369803102066315,-2.2574025553427135,0.44480771865252205,-0.2116155155841837
5.098147749,2.678860182601608,-0.8828003467279665,3.3446536140701344,-2.3381352156502055,0.42061609689322416,-0.21490639420346772
5.138135086,2.5844445838201113,-0.9785541385619526,3.361498554614916,-2.4151734797857283,0.40196158171562074,-0.21796318492770814
5.17813374,2.4825133946234414,-1.0658198049024172,3.367225938449569,-2.491334815615058,0.3973939842157518,-0.22228238765657762
5.218134171,2.3739607308115875,-1.144703652294417,3.354652193891526,-2.571432377971407,0.3754601629098306,-0.21754881495383366
5.258152984,2.259560046945275,-1.2141450629200603,3.323745743386285,-2.655175786907289,0.34166755407021343,-0.22520719961008648
5.298130482,2.1407393181079137,-1.2739985477230795,3.312207999084467,-2.7415977339546824,0.3277312494813889,-0.23422330091250615
5.338134261,2.049078817155075,-1.3118889375310638,3.2936500412828282,-2.806512106780547,0.3374248258904145,-0.24234332568437197
5.378146354,1.8924355773677257,-1.3615646505752224,3.2631909147289155,-2.9192783198860544,0.3260800838982542,-0.2398516438974981
5.418134063,1.7649794801441727,-1.3881759808033687,3.2454389544796753,-3.0106662991232787,0.3173448443999821,-0.247003722517455
5.458132028,1.6364620003373622,-1.4029160721772187,3.2207701072362616,-3.1039799546073548,0.3328163366094556,-0.26115784403990355
5.49821158,1.5086292750436368,-1.4050776769175257,3.173363864849414,3.087780134331671,0.36230866462986994,-0.26056842154067444
5.538131895,1.3813355108662515,-1.395663826232369,3.184247795379899,2.9952563410134947,0.36271305109938573,-0.26553812666606375
5.578145173,1.2565971351239869,-1.3741765213526325,3.1787542560194204,2.900131520122027,0.38969096408671255,-0.2682948453570718
5.618131859,1.1344939491668629,-1.341425161629311,3.15115658370284,2.807178240243364,0.4399909988050032,-0.2709598897103038
5.658262584,1.0454752587479503,-1.3092630672377774,3.1564877515165017,2.7331412741743826,0.44783035062487225,-0.2662145515279353
5.698232307,0.9029689780096654,-1.2421518405539427,3.153908435913355,2.604290206817505,0.46280697469228405,-0.2662680007353869
5.738134502,0.7951722994044403,-1.1765607902685316,3.1462299344207922,2.5004284432268964,0.498643748992282,-0.26660544339479497
5.778136233,0.693995261242211,-1.1006855335929366,3.1767388797541587,2.3984531432696876,0.5389863057238927,-0.27172427850608083
5.818185987,0.599782755025981,-1.0151738914279218,3.212471828258758,2.297225428691835,0.5460812653654303,-0.24175002443762864
5.858127753,0.5132216173449917,-0.9201843890991935,3.2296790037999994,2.204848164485614,0.5855998200706857,-0.20761771000871745
5.898135534,0.43348982780618706,-0.8167909361361814,3.2810087221612503,2.124763145104231,0.61138230932666,-0.1737730189213387
5.938225891,0.36053703026127853,-0.7054393761043195,3.3735008617111526,2.057625412445388,0.6347585141401171,-0.1398576839478969
5.978135347,0.2932948207272808,-0.5869476313806489,3.4360372775644112,2.011919732195783,0.6133806160381563,-0.09763303931640888
6.018132108,0.22976760548404127,-0.46107575095767833,3.563197690272213,2.0031345416783664,0.6109741049655587,-0.05517440203739937
6.058131621,0.16755968747255626,-0.3301654342004767,3.6649461105436867,2.012806464100465,0.5983461592284903,-0.016659018618115067
6.098136832,0.10471767969070102,-0.19609485756913375,3.7194053372565934,2.0317120138815388,0.5522312858704895,0.0064858829587381255
6.138130291,0.03913991590771553,-0.06040494019724425,3.7950475279781384,2.0473739311913337,0.4955551240097038,0.02918658116633791
6.178183269,-0.03009405168212911,0.07557195473201385,3.826416128796012,2.0695143733405725,0.45254836001431137,0.046688960730108225
6.218130762,-0.10384215775201291,0.21099150155396465,3.8562913891363335,2.1022664207154165,0.43094745969703374,0.06183456595664524
6.25824942,-0.18296846457571123,0.3441902095050949,3.8771178930684678,2.141419153496886,0.3689488193499841,0.07559423541378052
6.298204489,-0.26745376551237626,0.4745126631559742,3.888375335294337,2.186595351854231,0.33429719269715574,0.09206591921995547
