time (sec),x position (m),y position (m),forward velocity (m/s),"heading angle (rad), from x-axis, positive is CCW",throttle (unitless; -1 to 1),steering angle (unitless; -1 to 1)
0.12548532,0.1821521041645949,0.2022930494428331,0.020359362609818184,1.5386000729966702,0.75,0.4751964944805464
0.22543003700000003,0.15807814877827936,0.23975274312287959,0.6359024938104525,1.5497330054860634,0.75,-0.13305978706988064
0.325433423,0.16527896502036182,0.347180412868506,1.5008408240650304,1.5187261402223589,0.75,-0.1798070686338887
0.42546507400000005,0.20043559816038028,0.5217471391376902,2.179047513616255,1.3367703972879572,0.75,-0.238775101499295
0.525496847,0.2940629623605553,0.7498289420827252,2.7050391763776824,1.0864234023879806,0.75,-0.2459532244590719
0.6253968440000001,0.4737142447972311,0.9800644604454619,2.9704063998825343,0.8411496306719249,0.6182744079002741,-0.22232236057737914
0.725454432,0.6834144228127987,1.2017797942375004,3.115818090951056,0.6071049016845672,0.5168330258418794,-0.19384263646935937
0.825475841,0.9640519335373003,1.3597228215261286,3.1519151937710332,0.3816811925891685,0.485181435567925,-0.18803026606601236
0.925472968,1.2494599060945848,1.445299499758463,3.113565414876951,0.16212043355380773,0.4243110808545343,-0.18214100602496036
1.025490058,1.572722057783525,1.452711708245079,3.0980591251811274,-0.06775601304317891,0.4091759919752881,-0.1697980261060469
1.1254747090000001,1.8665507814343405,1.4061997413018086,3.063402672079775,-0.29997156129100544,0.3699050148573615,-0.1764107586382356
1.2253935550000001,2.154725054124644,1.285300871864433,3.03906819705859,-0.4940229022647525,0.3453186366627492,-0.18571632595352366
1.325478524,2.39432855725948,1.113639730363388,2.9816997522554183,-0.7326414634905418,0.3590368844439554,-0.20232646251490974
1.42540945,2.584617180723203,0.8974366579165097,2.9533920555797937,-0.9524502983866834,0.3903943702835675,-0.2076955983124835
1.525437577,2.757128676543757,0.640330008560879,2.9289350088368042,-1.1866117783342385,0.4156712178809211,-0.21238979515087192
1.625437657,2.8284268850870706,0.3767137529843847,2.9513514546245903,-1.4176377332654246,0.4626246597992301,-0.20754207514254952
1.725478144,2.8350422259988717,0.079282949235618,2.9937115698516226,-1.6668620348378393,0.47565439325138065,-0.2114601205890064
1.825398126,2.778065214598795,-0.23303710102142963,3.011730785739121,-1.893839861322585,0.4767044197862835,-0.20884893129386833
1.9255105000000001,2.642547127741715,-0.491565702219547,3.05257325949747,-2.1372743762201556,0.4806251948584731,-0.20397442446798592
2.025451918,2.4751232677171537,-0.7474029779691725,3.043547278617865,-2.364659191650867,0.49136174535672333,-0.20083133221098695
2.125444009,2.2174480067733815,-0.9287341828010244,3.1159008975839977,-2.5747678398978784,0.460399550449353,-0.19176446309376427
2.225460629,1.9457744003919457,-1.08178741102751,3.118866643405843,-2.771805710370422,0.4354234603828823,-0.19476271305825815
2.325401902,1.6543780601420832,-1.162387954981447,3.108278218937356,-3.039115534395902,0.42510681729274274,-0.1965614615801357
2.425493354,1.3515867925737413,-1.1680610533301516,3.0753456772367675,-3.261825725489451,0.38118476894351183,-0.1936911794488485
2.525479591,1.0610720286643762,-1.1114311999907103,3.001022215528688,-3.48750302339637,0.3553273464009504,-0.1905288051104603
2.6253996820000003,0.7859983952710506,-0.9878539339558364,2.9570563157835483,-3.704331701894609,0.37673817860892034,-0.19804835582296967
2.7254495160000003,0.518220946620325,-0.7970899549691733,2.895537665295498,-3.9241588533152623,0.36728721279509075,-0.20098968348666893
2.825462973,0.3676314539924903,-0.5830923015863125,2.918998832231709,-4.1638151278239395,0.4463816325016921,-0.16419563527490177
2.92544249,0.21457707361757827,-0.3137390206327437,3.0776337419953843,-4.305132468441611,0.5314608192851048,-0.08865775072970733
3.025477003,0.12469643356203604,-0.03021723152541045,3.2827161577582555,-4.3709085118561815,0.5194528933284636,0.012389805383131315
3.125396515,-0.03262723044454154,0.2666947572427202,3.4269980761454226,-4.315140685484614,0.4371495539959549,0.08100644640515882
3.225359575,-0.19148164287540587,0.6057350849775115,3.492728544325635,-4.218402164184454,0.36916001174262214,0.12910062805214786
3.325423537,-0.35748457158533903,0.8912857514175634,3.4786226229347545,-4.0748304150936185,0.3126221102434937,0.16962479143358905
3.425492649,-0.6094735762305153,1.1399335401148902,3.4280922215735177,-3.8832153146476975,0.2811513591569872,0.1935073645542437
3.5254833320000003,-0.8643125065382765,1.3407196521201272,3.3365545501589207,-3.6349726057312886,0.30148341566225495,0.1995333798428926
3.625405664,-1.1439644105417193,1.4689093792918924,3.2613748793168456,-3.4015839741701472,0.3313865171353762,0.20148711097366598
3.7254685910000003,-1.4553756588682139,1.5731956490570138,3.1990659729162285,-3.1889385040644305,0.37974025446220955,0.19835749687012236
3.82540693,-1.8071065702886762,1.5439965610379274,3.2100139723861747,-2.946911223263197,0.42303098310979387,0.1970611376356713
3.9254111490000003,-2.1014304278944316,1.4916074659452179,3.2242157213904457,-2.731911968357833,0.4331222637417994,0.20381667849853788
4.025500063,-2.3689132527644094,1.3199158036858325,3.2375694357132825,-2.5191954593499712,0.424317433159448,0.20350244315133265
4.12540514,-2.638772827071653,1.1030667390254607,3.3026787252194802,-2.3291068413372806,0.42499640920638376,0.2072067052008706
4.225447282,-2.863073407239117,0.8544917418269926,3.276185849825827,-2.0820448660445328,0.4179021759632271,0.20889051065184958
4.325421957,-2.974974682887195,0.56030607506664,3.2824916235252424,-1.8547730780966476,0.38327762030933005,0.20418836649811273
4.425450507,-3.046524726232639,0.25215448445978694,3.2370907096433434,-1.6506946335577517,0.37374465364392123,0.19381247852126363
4.525472431,-3.067601825591706,-0.08347563868559928,3.2343001256446953,-1.4223622064597354,0.3463198953878794,0.20284230824905775
4.625398863,-2.971381923193647,-0.3756994601742507,3.1352700147046173,-1.1845738922858602,0.3204412652551961,0.2098650117523162
4.725398951,-2.852313998288082,-0.6525532314194754,3.094081888819422,-0.9872177026049356,0.3183405533345175,0.2122218378298613
4.825471503,-2.644333166350651,-0.9035607712418229,3.0314706765616077,-0.743755693873057,0.33346778088477735,0.22362448474157404
4.925477581,-2.4266122752389556,-1.0762534309224772,2.9954142522744136,-0.512801258564222,0.3625021488354424,0.22975892470431492
5.025400658,-2.1492097494615376,-1.2140332217931014,3.033742242438873,-0.2897246033809911,0.40860941774251364,0.23536133923420263
5.125497928,-1.8742749571028778,-1.263056902594199,3.0665064749190276,-0.056979747129822615,0.4529908281430926,0.23514324710338302
5.225491277,-1.5261988684108148,-1.2565952427994747,3.1430822892437105,0.18570722829264963,0.45712732808287204,0.23565028559098414
5.325382549,-1.2241309482112726,-1.1767925955966092,3.1862377625937346,0.4118704308354694,0.4577463052751977,0.22892724266005518
5.42537979,-0.9588076582817274,-1.0448523930613285,3.1976828981689693,0.6348754189843219,0.45528020021637877,0.22508372180126549
5.525374837,-0.7157921956993529,-0.8323695193039302,3.1963479888491353,0.8360616485059278,0.4477662501230384,0.21435622206305457
5.62545831,-0.5337596659463824,-0.5749498100243916,3.2710789482969584,1.066842705137721,0.5015391804327834,0.14028955923000752
5.725379821,-0.38773631501718886,-0.2676666080409086,3.445879801722151,1.1494527032219477,0.5385871890661263,0.03778209273729825
5.825463391,-0.2406606151470936,0.05119165177128015,3.6135559314575043,1.1377715808761886,0.5358475539594444,-0.05263067228208074
5.925463446,-0.04384563156179465,0.37615384068557917,3.6789844392968796,1.0195025715627715,0.45372132069071835,-0.09773641938497497
6.025439493,0.16377118452066214,0.6885965959032319,3.6924630295091,0.8620772338575512,0.4020108447849429,-0.12340291083198708
6.125410197,0.4033698442841281,0.9439080103156001,3.597631268716691,0.675370038411013,0.3807935616796926,-0.13681154827733732
6.225460338,0.6935199567267969,1.163279145935057,3.55704717471099,0.46696818735632506,0.3532749318742983,-0.13725256502864328
6.325393337,0.9997393002915544,1.3127948302161272,3.477982896685644,0.29542264068213386,0.3317799369433623,-0.14241068013522354
6.425400191,1.366927158759197,1.379724857513968,3.3324781999479325,0.09053762638884683,0.333635783959783,-0.14561905689830615
6.52544055,1.6847908860957888,1.3952890845866626,3.26835512439731,-0.10578620665255029,0.3067677648693219,-0.15150668569341108
6.62540722,1.9961017202254143,1.3561253349851945,3.1738204574712476,-0.2983775860769338,0.29706047130890534,-0.1678358195132999
6.725414875,2.2757682886871797,1.2200846587582208,3.081886726017729,-0.5262183250526332,0.3167905234089379,-0.18284529528208027
6.825406987,2.5336218606138403,1.0461334141835998,2.993901215952045,-0.7370605904178764,0.3279597886376481,-0.1907659931375521
6.92540448,2.7300325110103114,0.8149131411970302,2.96458901648275,-0.9639339092679564,0.366890908398903,-0.2113149150883293
7.025455502,2.871329068508495,0.5964428490621565,2.933262893525765,-1.206156480893525,0.42283647694690024,-0.2197926334202257
7.125404056,2.948917644624235,0.2920471103627007,2.932976325200589,-1.4283360650478647,0.4458804032941415,-0.2207811898680598
7.225407185,2.9410019381497454,-0.005802245733406831,2.9644780631441767,-1.668277664116813,0.4853347059689306,-0.21292149776750463
7.325405648,2.907575841549552,-0.3073070179734718,2.996271994882174,-1.903550685837064,0.5029112945670638,-0.21573834717027124
7.425466915,2.752784460300581,-0.575906069073294,3.0396083345011253,-2.1300761656995406,0.48266760412530485,-0.21321642104924246
7.525406448,2.5849258633482664,-0.8125528001272113,3.0608860138861873,-2.372614829588148,0.4788768407359455,-0.20639004855162119
7.625403349,2.3296652072004593,-0.9897269674493075,3.08550173546222,-2.5794479304467455,0.4892149420789937,-0.1968037264255349
7.725403898,2.0692178665588385,-1.1496907408966397,3.111273643669672,-2.7921462842297373,0.46048491061413294,-0.1922686258916703
7.825397159,1.7723703172278409,-1.2432390367805792,3.113626979829591,-3.0288058556791113,0.41881341333958,-0.1925559621939151
7.925395628,1.4663801980865785,-1.2359336924358981,3.068780519227841,-3.260092314243273,0.40314449323369456,-0.19163448430840313
8.025396916,1.1542623303358448,-1.189666444943765,3.003909234536587,-3.500437651375128,0.39126957130151646,-0.1900073003599791
8.125402871,0.8966771058594206,-1.0448075890344588,2.9879375700266766,-3.7150152434607366,0.35752324492083987,-0.19492282807082553
8.225399614,0.6462084108728005,-0.8601476253858817,2.9324942227826307,-3.9358670854541407,0.3735035801016426,-0.19503680150305913
8.32544344,0.4770855715844089,-0.6376380355078112,2.94236404432325,-4.139356952594847,0.407083670383348,-0.19819313257026255
8.425402172,0.33105176588353086,-0.3754128597405416,3.0821875200135307,-4.317174538725236,0.523993875000377,-0.08477241558913487
8.525523025,0.19654221855259782,-0.08659493101779626,3.262339272526018,-4.359082066094783,0.5292974623244464,0.02002704637769674
8.625408892,0.07558723456033133,0.22014560691780352,3.413118103407678,-4.3281854056043425,0.4720148979442276,0.08627140316119429
8.725402509,-0.05694193410616913,0.5515414939541717,3.4948760655946116,-4.236741085632725,0.38581575988587585,0.13518723397766352
8.825402276,-0.24071802467713183,0.8437585072106497,3.482751812625375,-4.062844809189251,0.3165891223153153,0.17168406202864697
8.92538891,-0.46927714178867,1.0955362463968206,3.4369074073318946,-3.8645430285065268,0.2949447375785057,0.19259853977769326
9.025393825,-0.7383800393949392,1.309292579852403,3.3180497185086018,-3.6140312748944368,0.3090053778722657,0.202320479595598
9.12540685,-1.0427289579964,1.4485256623147433,3.2939785799074777,-3.3854469767820845,0.3460181250612717,0.19660092237952764
9.225435139,-1.3654847386153637,1.4943892574577367,3.2244753266997037,-3.176340783737927,0.40967350679205905,0.1916993119510595
9.325372983,-1.672918308164254,1.5055545481884829,3.252944941337037,-2.9762156631127135,0.41949738086168437,0.19955084617138336
9.425398508,-2.0022239315445085,1.4230668701170226,3.291614984710683,-2.7718158840236273,0.42223768449602855,0.2070609625515278
9.525398799,-2.289804086407868,1.2682859989944706,3.2831514507016397,-2.555331279635317,0.42722133586562894,0.20188790692867883
9.625399651,-2.5419126048466127,1.081035291051479,3.3093885069561195,-2.3335862337511917,0.4153409155625488,0.21167721577724807
9.725403225,-2.7573322914808562,0.8041890382134631,3.2423907057621526,-2.105071054063417,0.39267518746733904,0.20875341205730544
9.825401251,-2.916293368242781,0.5201143509829269,3.234344859731014,-1.8583036295112259,0.38535845238138217,0.2046841702517699
9.925395135,-2.9791155232616893,0.21510139673834566,3.2051216181598146,-1.6543140006607504,0.3751399757376196,0.2007180402653864
10.025398834,-2.9868937906348685,-0.10118359233115752,3.18353515790363,-1.428312339897714,0.31765837076011033,0.19907190662535051
10.125417389,-2.9341187427951403,-0.4014906335280078,3.1096787674571593,-1.2101488669735778,0.3225749867071513,0.20475420842698802
10.22539757,-2.795279585897049,-0.702820369987941,3.0359544485794463,-0.9810890638828846,0.3112183174484512,0.21486273862996338
10.325404477,-2.607382237792868,-0.9415583058729375,3.022800808190861,-0.735784243473614,0.31793535021642283,0.22275019059122023
10.425461565,-2.374058968360784,-1.128913462682984,2.964089497998943,-0.5379436142981494,0.37544882429867427,0.2278049587466031
10.5254035,-2.0988065594398226,-1.2229890770709073,3.0030067749886453,-0.31883601332802275,0.4067313543125287,0.2401486949843817
10.625404207,-1.8037532218273502,-1.294659907337656,3.0462478982321084,-0.0773780645072658,0.43850522905540046,0.23932026825799035
10.725399844,-1.497097204881086,-1.2868971563456724,3.0839016878849463,0.17459273258985183,0.46295352798171596,0.24063129085120968
10.825405749,-1.20250297154069,-1.2135236310250712,3.1315560733948287,0.4013750465194748,0.46281596800978614,0.23283712892459896
10.925427508,-0.9443460501426456,-1.045365777966527,3.1500784279146603,0.649290553717981,0.4671742877440167,0.22229645950860205
11.02543965,-0.7036502471850191,-0.8468214939754604,3.219407618212321,0.8684051266458085,0.4791363135412785,0.2030920315340801
11.1254008,-0.49393504126163856,-0.6007239771641344,3.2804348563368424,1.0663444749174635,0.5123195418916494,0.15272876747894937
11.225398872,-0.34173350086333004,-0.3013884827915298,3.3813431824584086,1.23502965969424,0.5126445891800743,0.05790444029321032
11.325398491,-0.23336160407140513,0.04236162099621134,3.5197715315630096,1.2151018144000594,0.5315325009179909,-0.08708969042340589
11.42544735,-0.06893235624556757,0.3569462638125133,3.592365662761951,1.0463772792566821,0.48847041839456395,-0.1326322475579312
11.525409246,0.11642404601972542,0.6552984870299847,3.580869561455041,0.8578948559631953,0.43395478641393886,-0.13480480386528812
11.625478487,0.3801463074892689,0.902319707954804,3.5177993467995092,0.6429683927203789,0.4040562020044214,-0.1317944351429398
11.725401909,0.6599913646403494,1.1279407520769773,3.464215953270114,0.47355015046501575,0.39990769193813824,-0.13707895107111392
11.825409997,0.9701923377033501,1.2439562776297575,3.421417935662626,0.27408770157645046,0.3796465425976073,-0.14041368280723673
11.925405204,1.2942215707238132,1.322613234704211,3.3262971639890253,0.09990043470179992,0.3447884101545309,-0.1417448728701623
12.025396656,1.6142976445946031,1.3190130323562705,3.272659012483631,-0.08695400542102578,0.32915090596388075,-0.15033260587302028
12.125398133,1.9451899622574267,1.2755304842765454,3.1691279793070346,-0.28907800719007026,0.3123519010029784,-0.16552098443911747
12.225398359,2.226628906916462,1.1696787407396336,3.0685094839378158,-0.5071987934500374,0.30104283095852824,-0.18234661161143076
12.325409294,2.4898485618170274,0.9910173184207508,2.972876022266071,-0.728209158375526,0.3313982544057062,-0.19837210969241564
12.425440295,2.679295870566687,0.7785380263755745,2.907858822664784,-0.9758635696546446,0.3673957450742271,-0.20822036908711855
12.525401438,2.815725173190526,0.536630384243165,2.911867937764085,-1.1992067272265778,0.41227199649151436,-0.21816602460488135
12.625430617,2.8842801854059936,0.25662570050715133,2.90498640792453,-1.4456116443007774,0.4567863607818323,-0.20692499634311065
12.725398644,2.9010354035802286,-0.06951500042864892,2.9607792676047704,-1.6648640806349186,0.4796795748215979,-0.2107602168323189
12.825414832,2.831950533211161,-0.3430315413387268,2.973904609571308,-1.8917702233716673,0.4830308457681189,-0.21309446807557142
12.925398363,2.710467635792928,-0.6134168116731847,3.0430072083446085,-2.146551626582049,0.47890692998446965,-0.2016485549643745
13.025402947,2.5325460069929417,-0.8490341101367512,3.065668972562095,-2.3602672009233228,0.4948740724317159,-0.20350626261175256
13.125460396,2.2716629173332072,-1.0726478147430314,3.1175300647321285,-2.579682110834742,0.4684251251581038,-0.19799037649728954
13.225401289,2.0056896657072967,-1.1836492473637081,3.1257809661342693,-2.7800991040613234,0.44279560687651937,-0.1984562537031202
13.325401756,1.7051842953858503,-1.2660933337684357,3.0919680982227122,-3.0388074311782245,0.4266882327934618,-0.20058323833658803
13.425399524,1.4094829580763604,-1.2803012901405983,3.081484872807295,-3.261519364198769,0.39439775397259025,-0.19702098082396274
13.525445711,1.1001308216358123,-1.21426367475346,2.9955816640106776,-3.48086185448925,0.3786390188551217,-0.19318880897517282
13.625394062,0.8389734732176937,-1.1052668020126168,2.9380264930464235,-3.7345007109625596,0.39484409051793357,-0.19452735104146357
13.72542756,0.6163586308793559,-0.9088576450989703,2.9221498741561684,-3.9669354908776167,0.38287085699858403,-0.19908858187269396
13.825404911,0.44466355417753795,-0.6758046085672582,2.923017279488382,-4.14549440118955,0.4630856229709327,-0.16265511558304657
13.92540152,0.2866829285640424,-0.4077347527505005,3.122845718712865,-4.315897053589608,0.5198177074018003,-0.09009236668720892
14.025398885,0.1557092521272061,-0.1273012648790964,3.3052939962343904,-4.327595042051491,0.5311252704560034,0.010760076943981785
14.125411697,0.027711533477435917,0.19011562672835303,3.45305777613117,-4.2956665910147995,0.4520889875983377,0.07698325717587867
14.22544408,-0.1107775752989871,0.5053822638869611,3.521243596145463,-4.207000496184136,0.37695282356914306,0.12402175537414352
14.325403422,-0.3071427778042982,0.7862321181160783,3.5170730464128974,-4.065291569232322,0.3291953730132859,0.16512202885950844
14.425438979,-0.5345528213218819,1.0722541337253948,3.470817557016928,-3.8805252772617376,0.28603919756533963,0.1901708973598132
14.525405756,-0.8194664284548264,1.2573885445967963,3.3777216020906344,-3.643514237700497,0.30262396255114016,0.20038743914333157
14.625407899,-1.121945749588536,1.413145680253082,3.2873979082993032,-3.389541389523203,0.3367854112552176,0.20211383463213567
14.725435793,-1.416527165577378,1.4840071066381668,3.216759318166196,-3.1856343225005066,0.3728892333755929,0.1939436703225361
14.82540103,-1.7550579198565337,1.4603980510223236,3.215804311536664,-2.986608920610699,0.41145381404722886,0.19919277523003495
14.925403411,-2.0545415734142587,1.3940674217901792,3.2314160164252783,-2.7653124345751183,0.42585630983236733,0.2091102761287741
15.0254371,-2.3483539061444834,1.2585031989155973,3.269567257532867,-2.522383244061791,0.4114400482388166,0.20900921124042793
15.125404463,-2.630037617245417,1.0325380998002565,3.256210662843343,-2.318821932530511,0.4165175158164003,0.2086849130691828
15.225402754,-2.7951533769933388,0.7734529516426174,3.2588171925102083,-2.078553920536363,0.40697234282445127,0.2102376429395991
15.325398953,-2.966096655478809,0.5280773222482466,3.2672522899306764,-1.8862273606658446,0.3824091857519491,0.2042912792857908
15.425429068,-3.0256803341684697,0.18251173952885147,3.223727206835905,-1.65470150254853,0.36736572136012074,0.20520618254677156
