time (sec),x position (m),y position (m),forward velocity (m/s),"heading angle (rad), from x-axis, positive is CCW",throttle (unitless; -1 to 1),steering angle (unitless; -1 to 1)
0.12968695300000002,-0.8657910893898203,-0.8967424492486933,0.016362636820523548,0.9260556164251948,0.65,-0.2997692247976138
0.329686187,-0.8755507603073106,-0.9052315916690259,0.3774147896354179,0.9147165088245731,0.65,0.03876371791489318
0.529685119,-0.765524334786414,-0.726664952695337,1.4545020583000812,1.029325362102003,0.65,0.12624337697619703
0.729692235,-0.5941527376369451,-0.375193093663206,2.470762146076195,1.1622983133055285,0.65,-0.008048228679607378
0.9296858010000001,-0.3157546117849298,0.15712847597716556,3.2644098085886406,1.1096935605513318,0.65,-0.12025226261058228
1.12969955,0.03978074642414067,0.6991544938010344,3.5137533098372438,0.8598121734092617,0.4334747452117904,-0.18636818719364434
1.329689994,0.6292107248661887,1.1432344839065829,3.41467979915909,0.41924225485542416,0.31494257809510295,-0.21522624955089362
1.5296900070000001,1.2598099413024495,1.302058923467404,3.246678965629315,-0.02636407323845847,0.34001133115659365,-0.2341086163221543
1.729694571,1.887960138127349,1.1225240069159201,3.1805788774417474,-0.5012455394526351,0.45740949982634643,-0.25412960154860054
1.929693285,2.338381533207045,0.7669173861675872,3.2248753610274004,-0.9466032143606639,0.518750961179734,-0.24690200431764175
2.129685886,2.5906020690595684,0.13764990037214642,3.2689440105323917,-1.429198284308473,0.46794236889248664,-0.2352703871429807
2.329685951,2.5639631241496024,-0.5118516504130638,3.2330324458456716,-1.878689129239544,0.42203970139268976,-0.23515701756965432
2.5297858939999998,2.2391134493388365,-1.073342888638037,3.1786194279881506,-2.312471497056434,0.35701337818864054,-0.23799375109024704
2.729689238,1.7556515697676165,-1.4455378981594178,3.073265864304381,-2.7609931860269814,0.3153467616445909,-0.2631482681447477
2.929691418,1.1556567465650662,-1.5021871423889845,3.001760264746744,-3.2673462121301546,0.4190401811892035,-0.27677642710343314
3.129689194,0.5929242871445622,-1.2964708781852003,3.0357425003605885,-3.7794805096832587,0.5399931465137905,-0.26882359370031633
3.329698708,0.17240766172337554,-0.8678880312915689,3.2431404668370964,-4.281136819594794,0.6416474230595035,-0.1497738379034699
3.529685932,-0.11613772750324762,-0.24137763909839982,3.6798556272814777,-4.341729818649624,0.5900637662184428,0.055240552414893625
3.7296837590000003,-0.41720551477133977,0.45820722508462064,3.789476774489584,-4.134437085529313,0.330999144511639,0.11876223800435654
3.929686175,-0.8608998966716943,0.9984593373072634,3.6343989293355943,-3.7916958311511717,0.21286410596175276,0.17212666532915896
4.129686627,-1.4765220259174976,1.3638702714080577,3.2954742718478447,-3.285014812163844,0.22792847644807473,0.18369158926595475
4.329689246,-2.1053303492564277,1.3768510962850258,3.0192490840548474,-2.8731701274731307,0.29287770077877895,0.20359363980133421
4.529739494,-2.641008559768074,1.1338588241422165,2.9850504325542704,-2.4385796749080786,0.3871808347201929,0.2366310632422349
4.7296978460000005,-3.001915097433036,0.6638696332715288,3.070565533827443,-1.9423295152288307,0.5216843694976676,0.2434480062538301
4.929784992,-3.162585945406364,0.055374307581283984,3.1774825179678663,-1.474938452770394,0.5375690831463529,0.21532564908627658
5.129697111,-2.9920589427620516,-0.5962601201401038,3.2785610977902087,-1.0291376382623052,0.546249075215997,0.2043504302144719
5.329704794,-2.586668508041902,-1.0752516386974835,3.335465580601728,-0.6131129730971406,0.46661696235550415,0.18773910784125172
5.529686511,-1.9975861691247152,-1.3854361221208418,3.3082074635645085,-0.19625644677953102,0.3817066869443332,0.19373230357568744
5.729691526,-1.3611550160085069,-1.4352402726849416,3.1856803918281478,0.23322668518565406,0.34405822546921894,0.19963026330558592
5.929688905,-0.7912186108344609,-1.1528678700244501,3.0631897291651815,0.6995704831600009,0.3922817231460876,0.20350511404029806
6.129685264,-0.3923647042114051,-0.7050247803547307,3.2254509905223667,1.095350682890698,0.5814097969249092,0.10195790488459217
6.32969809,-0.09013733050850509,-0.09067839637214055,3.654412120378114,1.1470910429834713,0.5405166520142688,-0.07615113630707526
6.529687341,0.25855700252216796,0.5678662737873083,3.7509790633421853,0.9689955866250282,0.328640427371375,-0.15042824252877668
6.729746337,0.7624985585538623,1.1123975930280725,3.547928369851694,0.5766812861954951,0.23118754301065683,-0.19122588495980855
6.929686018,1.3751356819057459,1.3676259686423176,3.2828075019435587,0.14591867079480253,0.2746667814966854,-0.2180948808636164
7.129686494,2.0206834623709478,1.326085731371013,3.142726697692634,-0.3316412095385899,0.39428927322543017,-0.2525132567559897
7.329745938,2.537910810614684,1.004059962579392,3.143527798459621,-0.820312943738105,0.5320838294894544,-0.25221274952885453
7.529692619,2.880886759253058,0.4737404822398355,3.269798541967019,-1.2747433999805824,0.5205997970327834,-0.23929241273080162
7.72976348,2.953147107073751,-0.16983859643419463,3.242917755569451,-1.7401974893582015,0.4983610756811861,-0.2181238045332175
7.929688567,2.731391774158879,-0.770841307638791,3.2702138762925093,-2.171283822080805,0.43951569107099037,-0.22464615425044443
8.129690563,2.2809704241607682,-1.2390496975543395,3.1930665697230927,-2.594956652198189,0.35590179144322864,-0.2374826385287601
8.329684726,1.670245834296552,-1.4434471686158674,3.1410541198991613,-3.0566762479800387,0.3569006136681859,-0.24654906734785126
8.529791301,1.0639469378126492,-1.3601965239707998,3.110166747772918,-3.5069877214256575,0.4653828331482847,-0.25859933739299434
8.729686088,0.5237095790391495,-1.0222404841274333,3.169014891382371,-4.0258027122393205,0.5695888094833234,-0.2245251793244248
8.929686002,0.1945715742233776,-0.45458828320692785,3.5251231910723053,-4.304131299540454,0.6043053900722707,-0.04646697826946787
9.129687967,-0.10611019556988903,0.22339774714275537,3.832860406862467,-4.236728647942057,0.4418863199559402,0.0793157287266728
9.329785118,-0.5119042061272056,0.8594377379878572,3.7756304570624692,-3.9419237928015662,0.25351438429109846,0.14787609301081395
9.529689233,-1.0841375388980503,1.3231853582104647,3.527403524351104,-3.526821252822413,0.19861950977273218,0.17400765989696165
9.729715281,-1.711005074646182,1.459457734727746,3.231665859391611,-3.0914320732616205,0.26352678474862545,0.18099716583735764
9.929687167,-2.338072810439316,1.3405196818397827,3.036666435718329,-2.6197291093741297,0.35294608806429234,0.21288722078047703
10.12969071,-2.788510080168601,0.9478880603435946,3.068396313950319,-2.1777612391010064,0.45470659640626804,0.2290636995228988
10.329702634,-3.0676273175240545,0.39749893462726654,3.158576754987221,-1.7378737703017706,0.5179402330903038,0.21353581297344795
10.529691306,-3.047592217748235,-0.27265132815908794,3.291523906407056,-1.2659862044709393,0.521063088340481,0.210855131759692
10.72970613,-2.75272723334528,-0.8232576482067527,3.3188095233916357,-0.8371921697589094,0.4893036091130501,0.19444995730749648
10.929685501,-2.232951858150279,-1.2754780901753362,3.321592810146315,-0.430937621634152,0.41733286914063256,0.1890735757451967
11.12969005,-1.613549669819854,-1.4602921750215936,3.2597458850971344,-0.0170926392067879,0.34458438185223195,0.20283361661600058
11.32968543,-1.0098368841337089,-1.3509108489042982,3.1132742347353104,0.47695197883108764,0.3508486747293199,0.20960692940630427
11.529723517,-0.5265148375853849,-0.9791492954183132,3.05925572319749,0.9155651332895368,0.4846011055157307,0.1845986754737288
11.729686641,-0.20714327410254404,-0.5199894895429894,3.4427161738986665,1.1237767983136222,0.6198766705967785,0.013800746370394657
11.929687018,0.16726250682782823,0.20888136865172108,3.7846420535159653,1.0914327274634945,0.42283872192847205,-0.09739566350112451
12.129687969,0.6068070758463763,0.813202755894512,3.7431832273830308,0.8133699544645712,0.2466756385382959,-0.181253403218967
12.329690222,1.1745525026130537,1.2584570004287696,3.4321826154731743,0.34285618528253986,0.20304718992511864,-0.20128801569335528
12.529688038,1.8187854216854178,1.3681054609180043,3.1329682110530928,-0.09156870577979684,0.31553156844065716,-0.2390629172128801
12.729685756,2.3831243009111316,1.1649518754484953,3.1179300682094495,-0.5842659485100116,0.4690457946832219,-0.2530272792687111
12.929689218,2.8187196798168386,0.7232149417516481,3.18643262053424,-1.0700250399958586,0.5650727255935646,-0.25109924059605393
13.129688172,3.02630352416765,0.11550198683517535,3.249811879836455,-1.5474258833462278,0.5046416676370568,-0.2279599208064146
13.329690259,2.9137946552860488,-0.516081724263073,3.2631353010384827,-2.0129808585451645,0.47125436528615966,-0.20488134536783265
13.529756935,2.5376054280573443,-1.0511618630838646,3.2887540513599482,-2.409942853437005,0.42689799589748,-0.21388578946327566
13.729777825,1.9830954635721574,-1.3717396020970973,3.2203470257303706,-2.8497232358439177,0.34321276455342,-0.23112433006042848
13.929685826,1.36756919209456,-1.439507378915523,3.129613235344025,-3.326010099716046,0.4005315269063074,-0.25180631718805263
14.129695554,0.7952918903751546,-1.2085771697972172,3.167608568161383,-3.8114825915100794,0.5167735684991696,-0.24308096247256158
14.329685405,0.3566527752347598,-0.7269978192200086,3.2744795014912818,-4.29245204949457,0.5880400087018539,-0.15137951299617844
14.529707943,0.08555899202376359,-0.0653094720483075,3.7378732186029535,-4.326178512953564,0.5390163791574261,0.058132682340700376
14.729686015,-0.2275544163692924,0.5947434268194259,3.8343593181744584,-4.1151123159581555,0.31274165347635013,0.12226732046120393
14.929686696000001,-0.7312118821291085,1.1773416655993763,3.6497917020417967,-3.760550558373407,0.22159066082492157,0.16784847300524813
15.129686703,-1.349368442829978,1.493936121961486,3.3355686688711215,-3.3275277582268634,0.22444225321091718,0.1845961399531054
15.329738717,-1.9872146223805598,1.5153057527071965,3.12206994580314,-2.884907367881483,0.3055005227240421,0.20846937682024352
15.529696819,-2.5523035196060415,1.2769546017994309,3.0599866726036904,-2.467740436862951,0.39110177777008315,0.2352767798105464
15.729705651,-2.9234770196648325,0.8284469307365233,3.113668716251289,-2.023633765359459,0.4850986594622297,0.24137036339270151
15.929704216,-3.074391792923077,0.18721565249193492,3.218131084051733,-1.5286681204798125,0.5310912976884189,0.22005248955305456
16.129690386,-2.955087208085473,-0.47833294201142945,3.3055923733376367,-1.0801393872069565,0.5089379678464169,0.20722520632862929
16.329685181,-2.546554487593492,-0.9782497978598231,3.3487416161575525,-0.6512702287145569,0.4744555790705984,0.20178491085935257
16.529685881,-1.9748702470451824,-1.318821203645334,3.304195600325109,-0.26203615997968294,0.36225089751937173,0.206580628419322
16.729685877,-1.3448163363657577,-1.388580545142485,3.1685050481288157,0.17360942525068704,0.3205990263280533,0.21558573685855148
16.929691279,-0.7861147793013299,-1.1656062516829226,3.077548157726853,0.6337499206290308,0.3646756880756245,0.22840275811589256
17.129686741,-0.34278115350417016,-0.7284306366830475,3.231573356059603,1.0279234564318709,0.5592073412818452,0.12605316920785856
17.329686714,0.011376299631214365,-0.12007409493226548,3.6401649096873854,1.0700215936762356,0.5384057288049443,-0.03866639627865006
17.529694409,0.3888639479940514,0.5136488203130527,3.8052438639683843,0.9720975822327671,0.3306202930482219,-0.13814643429081677
17.729703723,0.9045217226950123,1.0559875982577573,3.5755958210192715,0.5788722350543354,0.20562293043076127,-0.18994299713138446
17.929700156,1.507811345380794,1.3260754475613479,3.2761604049788087,0.16337883328844585,0.229466665705409,-0.21977311082196466
18.129687091,2.1282759961177122,1.2743935645686828,3.1081552583776944,-0.3046284489124707,0.4034245697252391,-0.2589083007827354
18.32969096,2.674416363377466,0.971031709032874,3.131529832467299,-0.8035844925539252,0.4953645094660668,-0.2560505247636121
18.529742893,2.995922939280357,0.4511218376228104,3.219574543799661,-1.2523699769073433,0.5276973174748248,-0.248815364475944
18.729686533,3.0589562393062217,-0.18385618982332996,3.254748935899691,-1.7902457717852214,0.5006747563051067,-0.21721031948803737
18.929765616,2.8278961554324713,-0.8122731070813315,3.246516947135027,-2.2132999066314114,0.4369769647342634,-0.2094452610337977
19.129685784,2.3462371664932222,-1.228662706635385,3.2638221633523363,-2.6387377084724144,0.39024218251275755,-0.21920726764728815
19.329685895,1.7304449726607172,-1.4335758045981093,3.2195697579529,-3.0570823669246194,0.354973471951132,-0.2415239416321926
19.529687261,1.1032010061401023,-1.3653122485055833,3.1653284153935375,-3.5307694089774944,0.4460739777232668,-0.2597617472579753
19.729684862,0.6018976863745542,-1.018897002286656,3.1587145162250363,-4.038106902074518,0.5417976014895906,-0.24221017904108957
19.929685249,0.24948615738601446,-0.43175672647506685,3.5468812410282724,-4.32181631053444,0.5972685321674115,-0.03812823961193313
20.129685684,-0.05950572832096916,0.23341947253833886,3.8004602465582944,-4.205490652230898,0.41526405367172914,0.07815045319852491
20.329685857,-0.48718631571997967,0.8786008185983013,3.7733214403493296,-3.922148362342242,0.2782311596636149,0.13226429085946134
20.529688079,-1.0723554085953546,1.3247983679625415,3.511814163735209,-3.5087907739091446,0.19814757154310642,0.1806539102754815
20.729701332,-1.7165007561966354,1.4805084010303198,3.17459579860298,-3.0657440708731403,0.25585159746615255,0.18437226205001467
20.929702515,-2.2587477102487417,1.356686725599629,3.0656390524498938,-2.654940756401864,0.3670487962563032,0.2009033012043348
21.129683898,-2.7565276286085174,0.9716791873597127,3.100956435255834,-2.1946585046223013,0.43550333008481784,0.2303433361694119
21.329687414,-3.0095530846153795,0.3971513818752114,3.168969119917253,-1.70613593399513,0.5132665171570608,0.21868672570251144
21.529749689,-2.99174991705065,-0.24200793469686402,3.2452824998104286,-1.2399237786898751,0.5409955097915001,0.19209129435379316
21.729688075,-2.717257879093971,-0.8315900285002553,3.35715976629588,-0.8258787235578748,0.47492918362061587,0.18350728457011142
21.929683996,-2.173186495570257,-1.2590516073037927,3.361985344660185,-0.41049040001317966,0.4070597072770186,0.18890043800660972
22.12970415,-1.5728840733981022,-1.4137477510732568,3.2502644758777914,0.0015202708993154474,0.33759807398387703,0.19650862123879742
22.32974087,-0.9609628066867064,-1.3070964322321277,3.1117841210752606,0.4851958520555734,0.33532799160180754,0.21151505919372723
22.529731166,-0.4646326160871506,-0.9334535159955083,3.1200918719160398,0.9015490767789278,0.4713724869449154,0.17832403842226502
22.729687935,-0.11439365593257324,-0.39423160683266206,3.4827187539644933,1.1389708340558433,0.5866002341702087,0.013877565785965107
