time (sec),x position (m),y position (m),forward velocity (m/s),"heading angle (rad), from x-axis, positive is CCW",throttle (unitless; -1 to 1),steering angle (unitless; -1 to 1)
0.122717982,2.986034978064235,0.0447916424009111,-0.010641512755858163,-1.5451229206037065,0.75,-0.590175869467734
0.322662722,2.98001111044959,0.019922543266024568,0.37855939884324424,-1.5183091301150018,0.75,-0.15796033212740684
0.5226562060000001,2.960874777979705,-0.22449484559475266,1.9445827744872186,-1.842955636417127,0.75,-0.2858639483638763
0.7226583350000001,2.668975444761898,-0.6535742348189607,2.7887748886223727,-2.368890560018366,0.5605951155909644,-0.2704589455105056
0.9226515240000001,2.190635017175822,-0.9167541643724813,2.8386486207921977,-2.8701875030567154,0.40976757259209756,-0.2335284607074148
1.122655121,1.6183939803522667,-0.9082292938181169,2.847755086437928,-3.3892108901637954,0.3937523564344334,-0.2211274493075288
1.3226543099999999,1.136024103233217,-0.6699760450174634,2.777152789587194,-3.853236665195635,0.3545741716811643,-0.20483086023191643
1.522652023,0.8050944837072568,-0.2355493972131459,2.813372107157914,-4.2751482056968335,0.3954294219493351,-0.1433658016806585
1.722658142,0.5810385761801516,0.2953614895696418,3.0382213559558444,-4.3808427109409465,0.40719861765630483,0.07123661707380682
1.922649715,0.28472991488829996,0.8639913721376505,3.1662497766569384,-4.1301674247176265,0.3361169788248478,0.1912674735594629
2.122653564,-0.147731833014933,1.2965495964351794,3.136543076520659,-3.6921704291613335,0.34531625628575846,0.2177084572009127
2.322656852,-0.7022260922852259,1.4938658394992,3.0889427030733874,-3.210103358965872,0.381369105710926,0.1988035448614552
2.522654669,-1.3237412036547016,1.427340915345417,3.1388662877280877,-2.826863089898351,0.36729806971714024,0.1937390152169016
2.722652856,-1.8782957384897174,1.1209383441751846,3.129876553862242,-2.3967696342755684,0.315896697838273,0.2097639242741763
2.922652704,-2.232926154029418,0.6432983555234008,3.0209480101612045,-1.9433525979726671,0.29989748636616603,0.20151725019185693
3.122651048,-2.3323427627080147,0.06747887465129923,2.9100518922599936,-1.4771608422537557,0.2805825137426255,0.20577889832731125
3.322652042,-2.1625969335883006,-0.4604805868201929,2.8077987191111147,-1.0634044822288804,0.2801826245487923,0.22776397774954676
3.522653425,-1.8003977853237785,-0.8734130423888131,2.7466520506260568,-0.5714779505763306,0.29014057652085606,0.23351196150364167
3.722696646,-1.310709226540424,-1.072513618027476,2.743664678571311,-0.10262796800787098,0.3266102519017272,0.23422273475522407
3.9226657190000003,-0.7560431031330908,-0.9752258835446905,2.764673137686924,0.35737230322755775,0.36024090195004765,0.2374854650203196
4.122649171,-0.2923991565485707,-0.6811964275443141,2.7768426455973865,0.8324061989457876,0.342886045959459,0.23484099944729542
4.322726188,-0.01671570887604653,-0.18590703738843403,2.880445540767314,1.2206006510351757,0.37773311758640754,0.11576112252281974
4.522651921,0.1821066960430595,0.36344514089656066,3.000284221994672,1.1910252409760504,0.3405228865050477,-0.09479649614253553
4.722653344,0.49051162676222393,0.8648015174630101,2.9895396659788567,0.8678540801365248,0.307356615476362,-0.17733872103496398
4.922653232,0.9509043608535875,1.2358488169912565,2.9057820527032785,0.41552501943814696,0.35113896438630876,-0.20372102743325085
5.122653163,1.500303522490306,1.3382753130917933,2.840960744821578,-0.018067426762462195,0.36279236130193193,-0.20215341601432624
5.322651423,2.0670896986003395,1.222668741960666,2.8421746985456773,-0.4708100378813236,0.36395873406362866,-0.20763852972645538
5.522689467,2.4707426322794466,0.8631338326197693,2.825887090083699,-0.8948576437464932,0.37967357895929604,-0.2146481248462967
5.722651173,2.7323224536826856,0.34614596754179994,2.739458846213246,-1.3696590395942199,0.3724646850385874,-0.22018798945085233
5.922652161,2.703429407892259,-0.19382648590838508,2.7800907477727956,-1.8016402580240625,0.3766637065285066,-0.21657476274936793
6.122704542,2.464597529256218,-0.6830744001883279,2.756497852656583,-2.255935786214928,0.3897216596832595,-0.21404361935843733
6.322651198,2.0215637555884904,-1.0161182607059553,2.78843518151205,-2.702510345996515,0.37383233417389083,-0.20857760173774453
6.522654898,1.487496734426216,-1.12175023873202,2.7611059931976474,-3.1844381969476485,0.3724120979000145,-0.22251212042207208
6.722655748,0.9641140460216413,-0.9788528952824611,2.758903033857412,-3.634137784628314,0.4015052206266379,-0.21860298425503374
6.922651221,0.5585519615672517,-0.6390892998407252,2.733109926935991,-4.086009586922081,0.3647433310701259,-0.22078461310759967
7.122649292,0.31913396072486033,-0.12733343039074163,2.901173055082572,-4.40676922308565,0.429191805914903,-0.04185853668045396
7.322649302,0.112099685515724,0.45261608612646737,3.075338692804332,-4.297895405994548,0.3463798378512519,0.14357436630474182
7.52265242,-0.2370606216555537,0.967565511481137,3.0324051955560307,-3.9385758726095874,0.3054153451735469,0.2100578449157659
7.722648573,-0.7328914355825328,1.2770459864569217,3.015643729847668,-3.4580853217366307,0.352355864579574,0.2117585763890672
7.922651371,-1.327272214133251,1.3559934393634956,2.9975964232715397,-3.0180654413034875,0.36253416189004745,0.1985580569659022
8.122648679,-1.8674750706336825,1.1507315763116017,3.018277244613974,-2.581548527465519,0.3445990426800778,0.2020724393730734
8.322650411,-2.316276702555701,0.7517324798400723,2.963487579454937,-2.13782226667506,0.3144490249102963,0.20230110019401615
8.522646322,-2.495362706811131,0.19470659500584978,2.88650852204818,-1.6872112388430767,0.29159863643651396,0.200194709397645
8.722650934,-2.452278914845437,-0.37332206404733753,2.8496563391879475,-1.2592073270244584,0.2985229059129996,0.22130244438976412
8.922653503,-2.18734186718775,-0.8466513592550957,2.788680594094626,-0.7726617730828976,0.2875274487359937,0.2312811063008542
9.122652814,-1.7066846827205846,-1.123034552053473,2.7484968858206695,-0.3066533255559082,0.3272777617398921,0.22864699003317726
9.322656232,-1.157517717530528,-1.147133294319743,2.7800039902929092,0.16874323976698236,0.3734604941428459,0.22802690185894448
9.522656699,-0.6836203991825786,-0.9323158958732227,2.8202067750232587,0.6021277616009909,0.3504084688100756,0.22146936456396682
9.72265287,-0.274988992306332,-0.5165748647225954,2.8519784393998715,1.0730973008271931,0.3481683337006481,0.22736147149896055
9.92265286,-0.0790557134402208,-0.0007137113514383425,2.9653575584207426,1.2922618415068787,0.3783368334547886,-0.026042374161693704
10.122657715,0.14147320507319236,0.5536632214197568,3.014862935119113,1.0415984902851574,0.3318873493322982,-0.16155672107327285
10.322653698,0.5499197227204392,1.0194867156733245,2.9789181103691185,0.6290395333635853,0.3490337765751935,-0.19124938347805984
10.52265751,1.0768858811282174,1.23311047823176,2.922504755699022,0.18757866542186777,0.36849846292354727,-0.18996739846942987
10.72265207,1.6524682054583384,1.2388178516280695,2.8586743074718104,-0.24021669339749072,0.35523525517620813,-0.19364738579097726
10.922708974,2.1498903467683697,0.9703898755827798,2.8237432536036375,-0.6928363100607768,0.3665339863513662,-0.20412044522282105
11.122651611,2.4909804361489147,0.5369121691830416,2.783811085409843,-1.1378823991067508,0.35791270878209314,-0.20536332217209916
11.322672833,2.592110736663773,0.004065718772716031,2.745569375080223,-1.5928813845326306,0.36852198805463027,-0.20940420280323468
11.522651904,2.4661563772571724,-0.5071779014514908,2.7222193772775385,-2.0342902309025934,0.3736526608067302,-0.21859717819295896
11.722652849,2.119908490926049,-0.9335020234886937,2.7122268717231908,-2.4962002863050845,0.3670525136442072,-0.21329965739495935
11.922652816,1.5995650642004586,-1.1215012497926307,2.7299563063755694,-2.9782308295300797,0.3691951327810685,-0.21709675876385182
12.12265272,1.0859313256453922,-1.0975527003964107,2.716039560303171,-3.4130850444789105,0.4045661985755368,-0.2146288187742519
12.322653071,0.6167004779514336,-0.8170349282660304,2.716484300310599,-3.8992272167644026,0.3793490938670132,-0.20953192885307975
12.52266397,0.308568594095698,-0.3704533387680024,2.7854881240096825,-4.332386189272508,0.396048989052644,-0.17008987219224417
12.722651907,0.14788793766231884,0.17737589341963875,3.015380124004649,-4.455692743309456,0.37311465093971746,0.07120899621057517
12.922665665,-0.1091631116011163,0.7476551325201367,3.0687295893073783,-4.178864675118447,0.30863111700499,0.1972890658361319
13.122663076,-0.5221829619842469,1.1832957758516667,3.0299418988643327,-3.7288282135578315,0.31479527270335694,0.22563637037822773
13.322657058,-1.0693108203404667,1.379784946044851,2.9300248923014394,-3.228829502235692,0.35881862065224635,0.2084657888569642
13.522649758,-1.6616726297711473,1.3258286709906058,3.0104216097164467,-2.830197114928577,0.37472294410203627,0.2065762359914896
13.722645793,-2.176058306045065,1.021585578225419,2.9874045905750517,-2.3830701393054037,0.32270310877220515,0.2099885758892044
13.922691756,-2.4993302409215574,0.5458737139582723,2.9309959671423655,-1.9096694308069415,0.3118963226100629,0.20724467157005763
14.122695002,-2.5680159570789933,-0.037599995536232056,2.8664181496284273,-1.4529959256521614,0.3152854663009287,0.2130559771384116
14.322698887,-2.417224640914491,-0.5660179545024635,2.8131246667756904,-0.9796855757118099,0.29237211275889985,0.21406377250744857
14.522652119,-2.009112241735805,-0.963125165196077,2.7693601943588577,-0.513055059399288,0.31876732462758733,0.2203482148504206
14.722656972,-1.4824450693574587,-1.1208380568630778,2.788250647713755,-0.05510064723875578,0.3657048019354322,0.22442175341485776
14.922655261,-0.9289381888478602,-1.024302621815146,2.7689792591526703,0.40592941017317274,0.3453965930779549,0.21527076075921517
15.122654907,-0.473497074706703,-0.6933544026617605,2.8024196954569387,0.8707801011601035,0.35117195706495363,0.2094886736019527
15.322650321,-0.21056258695528593,-0.19539171829052634,2.9005281240371783,1.2415925898018185,0.36015131549627694,0.11300737779422951
15.522652861000001,-0.035911177361839006,0.3749924391834003,3.0351856778176667,1.2168565662611164,0.3404036947301792,-0.1178099437325264
15.722653854,0.257104093726501,0.9006518718627924,2.9460761909130304,0.8584570658853461,0.3462536404122874,-0.19970355156735545
15.9226492,0.7123942171233375,1.251359689940648,2.9216451810762423,0.39905316919378003,0.3703612545075843,-0.1933375251356728
16.122656976,1.271006265884015,1.370294772870421,2.894452684608633,-0.04730210297739564,0.3858388190809307,-0.1865946436171409
16.322651844,1.8372720055430698,1.2039467792904643,2.8823145114855726,-0.47724185472581704,0.3892722986116407,-0.19646913526886653
16.522652009,2.2487752397644067,0.868093487145039,2.8169619861850115,-0.9266528233906567,0.35412541561836275,-0.19912581231686757
16.722662039,2.497237751254089,0.33249693035792816,2.8054103585624333,-1.364971863593939,0.3619285974917265,-0.20388446877011898
16.922674052,2.501294493688151,-0.20909471008284888,2.739810436937869,-1.8136390644596279,0.357153411558419,-0.20857600599247877
17.122651576,2.2373320580917135,-0.6940082650812852,2.729513416542501,-2.2708773340325834,0.35936114823475596,-0.2126654090812036
17.322653172,1.789583170424813,-1.0153910661957282,2.711899171037317,-2.738433512675858,0.36975357437721806,-0.22026066582348575
17.522657154,1.2739223603874095,-1.1165297813550168,2.689140306693451,-3.2067161917661644,0.3613476645706497,-0.2168829638240567
17.722657906,0.7582472537573816,-0.9593125407832922,2.6974840323935325,-3.654404330495838,0.3765216457538852,-0.215298038781974
17.922708218,0.36684228688028236,-0.5941225374356349,2.7109443525878323,-4.117187304716352,0.398109029380701,-0.2174807869666219
18.122655501,0.16401787163315498,-0.08409629652331255,2.9050083915977787,-4.417132429042918,0.3933224599730141,-0.05158292939016196
18.32264998,-0.05980731389527458,0.4866188625230174,3.0708898012819907,-4.332000102592136,0.3279155651992863,0.13690773205644147
18.52270432,-0.3946524487336203,0.9897505510555163,3.063541608969037,-3.953990838742747,0.3101102765755396,0.2203951693298727
18.722655144,-0.8592223843258409,1.358702542503681,2.957670979038076,-3.4714067321152657,0.3269112717043868,0.22014678497623674
18.922653562,-1.4474572058905597,1.3831225484031053,2.961476278485357,-3.0128055007110897,0.3728018496199672,0.20228859128737975
19.122657959,-2.011909463436643,1.220571790070796,3.0018271018239613,-2.5742360802850315,0.36803564040114317,0.20884839222223314
19.32270187,-2.434528677908393,0.799304906325246,2.9456285909425004,-2.113334437160751,0.3244306047323942,0.20312039256646827
19.52265455,-2.6046502033278056,0.24602259254060357,2.8910067670679047,-1.6868836516630696,0.3183061484973428,0.20434047218565063
19.722654857,-2.5514542010454577,-0.3231272225987071,2.872019894577608,-1.222399172316412,0.3121342910513528,0.21122729335790136
19.922731057,-2.2363963405962046,-0.8007164710120441,2.800233391399478,-0.7790762472661864,0.3024238446565472,0.2198582844884702
20.12265522,-1.7697527648258864,-1.0623833514153298,2.7979548218982804,-0.3036737631206927,0.3346016597876344,0.22393196159829443
20.322652248,-1.2418841878033813,-1.1136221168063969,2.801184896133118,0.1740978559945589,0.3457518537641367,0.20860606880819815
20.522652798,-0.7183718724071941,-0.904808996165733,2.805284669464793,0.6282441015484992,0.34629350602665876,0.21699464248047923
20.722658205,-0.3455037264565225,-0.47624934855280965,2.8494055561505918,1.0991042819742225,0.3545800255910469,0.21608124247107494
20.922652476,-0.15289516121384272,0.07777631981502284,2.977191032535057,1.2559225344039842,0.36625252928462665,-0.023516258976862884
21.122655914,0.08784477829115354,0.6300870994691428,3.029913194152829,1.042851916998886,0.3305212539562897,-0.15843670106075539
21.322700157,0.4884605216116077,1.0769678458388674,2.969163737717401,0.6405162062108322,0.3672848033486365,-0.19734544321698794
21.52265225,1.0212830324455024,1.306892146249056,2.884431723358605,0.18308604624484143,0.3622178519566113,-0.1996245877911588
21.722659501,1.5981001288138568,1.292792555695699,2.840713108432502,-0.22937086535504808,0.38151325252863755,-0.2000679746973221
21.922646909,2.1189786092343788,1.0514462441640116,2.8605341921705256,-0.6728923221095706,0.370611445796476,-0.20582544619578155
22.122652107,2.4534461076461187,0.6148989925970059,2.83141732825494,-1.117996490405148,0.3544209088539724,-0.2137464968666247
22.322703379,2.5827026550953813,0.08997789092191971,2.7689018641259815,-1.5456272185053586,0.3641825062419926,-0.22122952241923774
22.522651949,2.452706738864439,-0.4421567474299591,2.7421408808980154,-2.006984734217977,0.3674216605125554,-0.2201682611115043
