time (sec),x position (m),y position (m),forward velocity (m/s),"heading angle (rad), from x-axis, positive is CCW",throttle (unitless; -1 to 1),steering angle (unitless; -1 to 1)
0.128514306,0.01990406076745656,0.37734908334735534,0.01618096130250539,1.698302762038925,0.12002676229218298,0.14323412461067575
0.32851162500000003,0.017908835107950008,0.4423267973923629,0.9158860803126406,1.713281090771473,0.75,0.1981287396762746
0.528505275,-0.1306684170006777,0.7639642311143361,2.501458162151594,2.103324005582422,0.75,0.28162867147999476
0.7285218050000001,-0.545370332806695,1.1955815990229974,3.0748714496162264,2.609218835087408,0.45275652167049907,0.23152363504508428
0.9285303650000001,-1.1373626347882573,1.378852496612181,3.1171214403171725,3.072922348860028,0.4050531344247476,0.2145415236160644
1.128507066,-1.7386811013110381,1.2853318015803228,3.148995863817984,3.5430202805574655,0.3961437790845676,0.20988790238942484
1.328503801,-2.259949762409205,0.8996420291532454,3.1064800012609037,4.018214629216103,0.3698243279764249,0.1983780801527918
1.528495742,-2.5654267924901264,0.3603626080290239,3.0741750608722795,4.473891934331716,0.33406352024776054,0.21297068349450526
1.72851068,-2.563444445214694,-0.25078142623884203,3.0558064444086286,4.940780758203225,0.3529630523155757,0.22258249856070894
1.9285156200000002,-2.3458084186346535,-0.7671556762387612,2.9892257631508756,5.413855154047023,0.38755521717318964,0.23534954214348042
2.128511164,-1.883322247281009,-1.1347589726126242,3.042353068803155,5.885816607276303,0.43534713864451857,0.23226628354436846
2.32850814,-1.2783770516164514,-1.275840842934337,3.126132822022852,6.343136297794103,0.4573720376743429,0.22456091600428932
2.528516733,-0.6663941674762166,-1.099883097083974,3.1576271483400626,6.803021864220129,0.42237559436954925,0.19923792021387798
2.728510855,-0.17606724468468318,-0.656345556079514,3.1721146765039148,7.252325379432586,0.3988400635054977,0.192231884897884
2.92850953,0.07690764817668372,-0.11137415697479161,3.2533008160710213,7.547600400188464,0.48941791698330006,0.006964746220969116
3.128522684,0.30304709933907875,0.5179494802170604,3.461862028448265,7.361361921732558,0.40239136180514745,-0.13797088459299545
3.328521625,0.7430840919552782,1.06703474452477,3.3972344154880774,6.9613037017019845,0.33704614981507447,-0.1718325700389153
3.5285004090000003,1.328522630265242,1.376971362567155,3.292481623755984,6.512787106981903,0.3676257465007144,-0.17414537598395824
3.728500092,1.9868219397572526,1.4069377071015754,3.2508092490719287,6.044609964657531,0.36710767399678573,-0.175880094953138
3.928564561,2.5430464614410897,1.1577394834087356,3.2155794450241597,5.615983576554388,0.3670102119402367,-0.19133085621048326
4.1285102,2.9895016262202336,0.6870160292891733,3.2094427993854,5.196121553451197,0.39969482200117146,-0.19800371126493369
4.3285058880000005,3.138486693959682,0.06628689834553132,3.1712661029614093,4.716311080717499,0.39217874364351674,-0.19477522149016088
4.528511742,3.0385579495750155,-0.5705267414200162,3.2075721374363826,4.24138736270582,0.43550965770814004,-0.19489419535846966
4.728509798,2.6395841226702115,-1.0607515877143043,3.2665350198449787,3.8101182849649007,0.46627277224801494,-0.19173013507719128
4.928515452,2.0822113037221834,-1.3613142230639335,3.3044211227803277,3.3751516850459193,0.4112342203228483,-0.18076549388453025
5.128515216,1.4167608666492284,-1.3885946227398829,3.2788525169627047,2.9314941846413007,0.38536390541784155,-0.17007243984328732
5.328509707,0.834811211474606,-1.1342532456778638,2.9341173505525937,2.4186518838067452,0.2579037414199555,-0.22488873199890974
5.528499051,0.47415973466227845,-0.6264665779033403,3.11144776662528,2.01471700215043,0.48692091565584095,-0.10960048259521364
5.7285283830000004,0.22669165685406378,-0.044669128255306126,3.4922508567910224,1.8948564083148918,0.46285598352262225,0.051592877979892586
5.928515234,-0.0745601634491869,0.6291894789242716,3.6552420347479226,2.1035231178204046,0.3145072151476264,0.14561051015311907
6.128504732,-0.5142244031474854,1.125781379663719,3.506763352786935,2.5391840550621287,0.2553270185537812,0.1831907515242044
6.32850642,-1.1090356394496745,1.4372055090907165,3.269028249453738,3.0088606462728613,0.32032363191757673,0.16448743985679914
6.528498475,-1.799783038563172,1.4101905532094001,3.1769234905409824,3.4373216630865007,0.3665380435181836,0.17475554974100238
6.728508152,-2.333751152129026,1.1063733435628254,3.2070391861023606,3.8640638947697865,0.36413024600009647,0.1812777117122889
6.9285016630000005,-2.699335597876502,0.6105404568485725,3.1166463518796266,4.343939117166692,0.3302350286995348,0.1955191054328647
7.128509204,-2.819135214372811,0.0136942955682283,3.0117865326079674,4.77865653071842,0.34622043010730724,0.18897815811729246
7.328505416,-2.670865767377796,-0.5596373838324883,3.049687514339158,5.231145171878671,0.39022210031146376,0.21503283049542563
7.528547302,-2.2460014173981744,-1.0229433105667947,3.0998467404452845,5.718694985976656,0.42134362377621987,0.1977471371395367
7.728517511,-1.6868931062855483,-1.2472023744201828,3.190715921145161,6.15162529079268,0.4414592511846856,0.21604018331625294
7.928529026,-1.06957746299674,-1.2089668548451507,3.189089851218552,6.6391575053575895,0.4292378716483631,0.20525363333584104
8.128510888,-0.5170392973018374,-0.8989701326893568,3.181846774075562,7.0637741449747065,0.3924322716799001,0.18078388590266647
8.328521655,-0.16534224492204347,-0.34263087640691847,3.238902510360899,7.500705797738425,0.440760305608665,0.094683160910932
8.528523909,0.07526775942456203,0.30437313585895154,3.431347765910533,7.502561891051182,0.4591114666618835,-0.09345192929970562
8.728513476,0.3631833443197373,0.9043999832193124,3.522627993765439,7.225369950012562,0.39090388898513545,-0.17448994554272235
8.928524634,0.87613254333267,1.3704637894607972,3.511989202468742,6.857530472079767,0.3252663961005224,-0.20146055046328554
9.128514997,1.4946798945097792,1.6301451295643659,3.3257159017978934,6.384097043642306,0.3476953105173568,-0.2223351497193377
9.328506728,2.1466287981564784,1.5904472967158518,3.1805962147106905,5.904133712151608,0.39728536159869493,-0.19559282329992103
9.528497738,2.690218406801862,1.2196480228633064,3.199980157801771,5.429296413848096,0.4391300750668675,-0.1992722490520126
9.728508146,3.0133865426149815,0.6458366661634034,3.2607563917275537,4.979637384113019,0.42460008958604967,-0.2077061906053923
9.928510383,3.0103657454867867,0.01301646777222707,3.2531565207690276,4.509143717950251,0.4087594026250652,-0.20014246483009157
10.128516611,2.81111629879945,-0.556228189848533,3.257318283133692,4.075802125736748,0.4434893035167848,-0.1951103340093998
10.328507513,2.2977217189937336,-0.9979712504612417,3.28549152437418,3.609028627169534,0.42596857898992196,-0.18070016339654715
10.528521199,1.7082083463364628,-1.1811222124687613,3.303769718229185,3.2045095275068025,0.35891450213701903,-0.18131352107396667
10.728511096,1.0595896116239087,-1.0934156997163573,3.218735588673458,2.7584805787889692,0.33620389748359464,-0.186904997705168
10.928517643,0.5372903211857231,-0.7602698093623431,3.0812951301738263,2.3031987767374864,0.3338800434685189,-0.1841717664687611
11.128507137,0.2153346056303023,-0.20817610904993591,3.1802292393943397,1.9021143198207473,0.4454369047353921,-0.05516190925262793
11.328511071,-0.0053549942654095295,0.4025241461964927,3.521619884220948,1.9770404023147914,0.4094939501888716,0.11533955824215522
11.528503632,-0.40206225485021413,1.0555271773545594,3.5437121010116606,2.2788540708003646,0.26726469114913,0.1686455383734457
11.72851697,-0.8995534579087378,1.4376031492845518,3.331635816509553,2.762527157928723,0.26772180043668264,0.19178946309904035
11.928507687,-1.5355987942545453,1.5657951456852663,3.1313378378197423,3.2244691585323313,0.3642300901663111,0.16749558726186475
12.128503956,-2.1308787390879416,1.4115901054260827,3.1012967104645504,3.666945985688181,0.3955915600357928,0.17683119756493001
12.328513546,-2.601484459565487,1.0230140181691123,3.1433001096769586,4.065171052579733,0.3707485537321418,0.18825011468275543
12.528500292,-2.8480642950662047,0.4402028841055437,3.12508082861631,4.546909409735592,0.363079316040058,0.1988762593763347
12.728510463,-2.8391732645341845,-0.160977750358786,3.088935742342123,5.000495323565484,0.36729843532366657,0.20325355523355704
12.928522332,-2.548966085779927,-0.6978533376246965,3.109399958660304,5.472905916441777,0.4092325605517646,0.21086351296385686
13.128508695,-2.03135364592295,-1.0706196330077675,3.1195307855853462,5.92952762307783,0.4637582209208304,0.21259450826714854
13.328533488,-1.4366374428241089,-1.147932515594645,3.1954983798487206,6.38136175282156,0.42261912811830993,0.20912807445847378
13.528502493,-0.8173311851327631,-0.9828628622437596,3.17020448986556,6.859160899436589,0.4022933738026582,0.19105613868787824
13.72851291,-0.3592727404526608,-0.5509548920341161,3.164597770041779,7.29066497683099,0.39883233403795415,0.16876988008209368
13.928521048,-0.09019412439579476,0.035112868637674585,3.3300956631750647,7.514826055308842,0.4421359547652501,-0.009853153917144843
14.128509938,0.17904283858111403,0.6577819570800171,3.481339546646214,7.333298505853357,0.3992885808548612,-0.1376002663579238
14.328512907,0.5998575737850088,1.1957049545834397,3.4659776362330845,6.945419266149938,0.3422133303924577,-0.16695124032997144
14.528591721,1.227227246087878,1.5197126768997202,3.343128069355692,6.489906594787995,0.35338206611398304,-0.17412771048977885
14.728510059,1.8645251291488496,1.5322798624292437,3.3006834213878826,6.098535560631224,0.38171753882047144,-0.17468516552479668
14.928510096,2.458400787771846,1.2980282249263344,3.2833382702500624,5.655981841671714,0.3796682500402521,-0.18587745582066514
15.128525119,2.9158357983241165,0.7776821940465736,3.2603794433228135,5.177016979947798,0.38246024074227797,-0.1945459634331464
15.328514051,3.086594544087513,0.20863619665793925,3.2357884788089817,4.739906467853777,0.4100193585740574,-0.1967803181737135
15.528496227,2.959914169542645,-0.44314703198019917,3.211604029011589,4.272632739794412,0.4231452783338802,-0.19797239760821703
15.728510314,2.6028246150263388,-0.9797154463138709,3.2513376006871577,3.8151374087706262,0.4183452602526044,-0.19087974350824866
15.928507206,1.984152769088643,-1.2902174640770177,3.2800870883522983,3.3622622585388977,0.42279633267147587,-0.18906205224378012
16.128512145,1.3879018138398533,-1.3220926012279417,3.249468093984364,2.9436122527996864,0.3729228787410716,-0.18304874520263614
16.328512521,0.7727877469051315,-1.0811442757590437,3.1728994538742703,2.5068627023001397,0.34204506319522593,-0.18750286954279022
16.528500097,0.35838140949551345,-0.615532330622741,3.1056094164291026,2.0585545198575947,0.3654771340144762,-0.19102825900395803
16.728506433,0.0818456941824933,0.01746054174974054,3.4083163262821956,1.9296215556217908,0.46773765789390287,0.04865277889279413
16.928515371,-0.1856120656445937,0.6116538423173092,3.5893634929772555,2.0864867721992324,0.31467544338879244,0.1386571962277824
17.128511208,-0.6319026019500905,1.1758949411213309,3.4831409234778787,2.4956561888302984,0.24650426518909066,0.18154782755072818
17.328649777,-1.2516567583141196,1.5003378297368917,3.211857271297286,2.99172747417683,0.2826834961456909,0.18482824404611758
17.528515768,-1.8334453138233267,1.4937759190272943,3.115876897702787,3.4058340294643523,0.35835742259084885,0.18242194861967612
17.728506756,-2.418756097813175,1.2109880145572338,3.1237024680710688,3.799830689754654,0.36411240253074667,0.1977865305982318
17.928523048,-2.797615621146491,0.6991627663435154,3.134685553637287,4.304230910124555,0.34478829326175114,0.20812160779362235
18.128510944,-2.9135112628057374,0.12057469615080335,3.1037422420533733,4.757060019600679,0.3724696410305047,0.2110387670319419
18.328524944,-2.794633118654134,-0.459892605033598,3.0449345518204707,5.234074089414267,0.39258632203266025,0.20582615183074765
18.528496166,-2.3829371121526775,-0.9533540180007537,3.1390897740580397,5.713086084187261,0.443310139249625,0.2152454173119987
18.728511423,-1.792373282893606,-1.171099537090097,3.2131769661907708,6.144904983816008,0.45632591345185153,0.21551592748927087
18.928522454,-1.1689130973869215,-1.1385724840861566,3.221045719488146,6.604248521285284,0.41024014486924165,0.20083722346353147
19.12851097,-0.6231529286527638,-0.8073877013253159,3.171349425546609,7.075493231580723,0.37547981203072767,0.1908515411378568
19.328521081,-0.22608442692499106,-0.309182552713182,3.194097597498442,7.470056018722667,0.4051164489989709,0.10509872711319947
19.528508842,-0.02291514282564275,0.3190860788542383,3.4215130545906436,7.463504845593385,0.43843801219288375,-0.08994292853393099
19.728528591,0.3131809742972509,0.9200489874079247,3.535823857920195,7.1718404921439705,0.4857624382707256,-0.1554831603746695
19.928506354,0.8381714757576598,1.3843733143524544,3.4484288042501783,6.762241895917878,0.32769658139058666,-0.18291915326899452
20.128514298,1.4771918089509795,1.5904268955466616,3.2959023591352605,6.3015437843394775,0.37375619650354686,-0.17701003746257318
20.328513385,2.1118310010023706,1.4851572594108697,3.2615403642154686,5.836824944570369,0.40085152219835357,-0.18202551687342902
20.528497007,2.674446195052098,1.0961009911012691,3.2329152025443197,5.403997061786066,0.4000968975630211,-0.19249606679492479
20.728516441,2.950579733139467,0.5226734792010629,3.2287290809999587,4.961240644645243,0.38633308525685406,-0.1930836709325267
20.928509214,2.967649507014419,-0.1101330383752655,3.241430175009851,4.47554746062736,0.41805912128755507,-0.19348154690161143
21.128508316,2.7478399919897676,-0.7000556034333334,3.2247022274079233,4.065566469387887,0.4148183544040444,-0.19218672877496765
21.328516633,2.2263346815222955,-1.1285341089193797,3.26092393508131,3.597363566801744,0.4086344724285581,-0.18371117128626002
21.528500667,1.6348962875771174,-1.2864593361533436,3.289752241376535,3.1973396402065166,0.3848930944207604,-0.1842052567100942
21.728501741,0.974769464289086,-1.206122127405067,3.135102462259923,2.677110714073083,0.17928490012420645,-0.22731169469706863
21.928507227,0.5490769861495102,-0.8767292491171854,2.874980709666547,2.18390750909823,0.38077312180369677,-0.19440868721690938
22.128508156,0.25211986949964793,-0.34684959753757244,3.266907454554521,1.9251647204678057,0.5298020454351836,-0.031209842200143622
22.328519558,0.0019336602228389112,0.32030937644796775,3.560752149854814,1.9993791432715387,0.3813281225765845,0.0937703358361429
22.528500108,-0.4043777703822158,0.9309167641950461,3.5629522931072666,2.3059371916912843,0.273092821458956,0.16761376613994244
22.728508419,-0.9546369086007438,1.359750982781891,3.3590274742285517,2.779084070064002,0.26140356194589176,0.18864039608278052
