time (sec),x position (m),y position (m),forward velocity (m/s),"heading angle (rad), from x-axis, positive is CCW",throttle (unitless; -1 to 1),steering angle (unitless; -1 to 1)
0.128514306,0.014558918918846517,0.3822833767487667,0.0011790242427213759,1.6897600618659903,0.12002676229218298,0.14323412461067575
0.32851162500000003,0.005615789109971365,0.4342440708695743,0.91410059071297,1.7167279533851236,0.75,0.1981287396762746
0.528505275,-0.13313674064325845,0.7663455856224045,2.5036398790844956,2.0914962598414566,0.75,0.28162867147999476
0.7285218050000001,-0.5433629508162172,1.1709270520929833,3.0836249870405887,2.600496673591651,0.45275652167049907,0.23152363504508428
0.9285303650000001,-1.1272895860202963,1.3657985246779176,3.115805902381791,3.078283124838795,0.4050531344247476,0.2145415236160644
1.128507066,-1.741748477279078,1.276487600754077,3.1424139802738074,-2.7380822604201196,0.3961437790845676,0.20988790238942484
1.328503801,-2.2697068858678704,0.8995472953945529,3.0969458862672408,-2.2581549735452398,0.3698243279764249,0.1983780801527918
1.528495742,-2.557300930460451,0.35627214553740466,3.076785440859286,-1.8083237455213186,0.33406352024776054,0.21297068349450526
1.72851068,-2.5757261089769803,-0.24797703315117348,3.0325536520029965,-1.3431163113337596,0.3529630523155757,0.22258249856070894
1.9285156200000002,-2.3413296829701595,-0.7628040047868024,2.9920402568668747,-0.8775093708781173,0.38755521717318964,0.23534954214348042
2.128511164,-1.8758653347310383,-1.133843578524296,3.0373535696761373,-0.40776273301351607,0.43534713864451857,0.23226628354436846
2.32850814,-1.2787970589216495,-1.2537431470107334,3.1216485847209805,0.06598921012006365,0.4573720376743429,0.22456091600428932
2.528516733,-0.680083559606514,-1.091066685557148,3.159442389136612,0.5202771580435854,0.42237559436954925,0.19923792021387798
2.728510855,-0.1865936291545028,-0.6584379321962675,3.170128337939459,0.9782990928500691,0.3988400635054977,0.192231884897884
2.92850953,0.07141891690599583,-0.11197001696821347,3.259876512780953,1.2683218605933622,0.48941791698330006,0.006964746220969116
3.128522684,0.3134026704341967,0.5182552140258863,3.4502614085561656,1.0756657177242754,0.40239136180514745,-0.13797088459299545
3.328521625,0.7304314632380106,1.059083636431135,3.3900868566101257,0.6753112397206555,0.33704614981507447,-0.1718325700389153
3.5285004090000003,1.3123537958394826,1.3762042603384672,3.287252097264778,0.22897410563246312,0.3676257465007144,-0.17414537598395824
3.728500092,1.9905597329429563,1.401409157985672,3.2468159291811802,-0.22464720135776006,0.36710767399678573,-0.175880094953138
3.928564561,2.549705736958429,1.1601717027887581,3.219707836232263,-0.6439256656339706,0.3670102119402367,-0.19133085621048326
4.1285102,2.9742839297660826,0.6858675889639833,3.2078282440051744,-1.0921799409884063,0.39969482200117146,-0.19800371126493369
4.3285058880000005,3.1469878656326755,0.07712170797950668,3.1864144435154076,-1.568340677338128,0.39217874364351674,-0.19477522149016088
4.528511742,3.0172464512311477,-0.5743943723842481,3.2074755431739077,-2.0380937438322215,0.43550965770814004,-0.19489419535846966
4.728509798,2.6468990724613426,-1.058022598268277,3.252575160480936,-2.4805480725772773,0.46627277224801494,-0.19173013507719128
4.928515452,2.069977466730712,-1.3579895570789042,3.283961591434646,-2.91965126871154,0.4112342203228483,-0.18076549388453025
5.128515216,1.418019132007712,-1.388450029458419,3.2853264605549612,2.924972140263093,0.38536390541784155,-0.17007243984328732
5.328509707,0.8502411793624642,-1.1431241954136564,2.945380172072808,2.410577668636427,0.2579037414199555,-0.22488873199890974
5.528499051,0.47053801822593194,-0.6452347549751324,3.1102820311429653,1.9979296634554715,0.48692091565584095,-0.10960048259521364
5.7285283830000004,0.24626682074217632,-0.05634089115384706,3.4901543145123064,1.9037473699756178,0.46285598352262225,0.051592877979892586
5.928515234,-0.0688411710935223,0.6299131726805438,3.653150004995899,2.1215464465333853,0.3145072151476264,0.14561051015311907
6.128504732,-0.5116652710260554,1.1443217617006731,3.503753898619317,2.540200874748197,0.2553270185537812,0.1831907515242044
6.32850642,-1.113050763122813,1.4274964034454494,3.255505108019174,3.0119076001374854,0.32032363191757673,0.16448743985679914
6.528498475,-1.77920838980664,1.4007747919315219,3.189879830690041,-2.831881118061068,0.3665380435181836,0.17475554974100238
6.728508152,-2.335774229120665,1.1007445870811132,3.1897357526504613,-2.4121401446473514,0.36413024600009647,0.1812777117122889
6.9285016630000005,-2.709507603513663,0.600866640512897,3.1146151733665928,-1.946552762528539,0.3302350286995348,0.1955191054328647
7.128509204,-2.819732875727684,0.03003187806543213,3.03233287243758,-1.5146841138000757,0.34622043010730724,0.18897815811729246
7.328505416,-2.6673238738188654,-0.5569077429723416,3.057901368809986,-1.0523083118246301,0.39022210031146376,0.21503283049542563
7.528547302,-2.2412769822118594,-1.0284410346018815,3.0903907580913192,-0.555531096063931,0.42134362377621987,0.1977471371395367
7.728517511,-1.6935564733878194,-1.2437620806914433,3.182316628158969,-0.13610066127578158,0.4414592511846856,0.21604018331625294
7.928529026,-1.0641971807776756,-1.2006967632352288,3.175067536522122,0.34599156582926227,0.4292378716483631,0.20525363333584104
8.128510888,-0.5205176859885278,-0.8844226426567653,3.16745784320372,0.7904110552527224,0.3924322716799001,0.18078388590266647
8.328521655,-0.15232616002061533,-0.334337791621422,3.2197749377680207,1.2173516594736493,0.440760305608665,0.094683160910932
8.528523909,0.06279456272743933,0.29895327046291115,3.4426000346349963,1.2218029942221214,0.4591114666618835,-0.09345192929970562
8.728513476,0.36399060001566985,0.8886554395558244,3.5255243092956556,0.9262756122929973,0.39090388898513545,-0.17448994554272235
8.928524634,0.8601051639027978,1.3854245450806049,3.523936645398516,0.5736613811661194,0.3252663961005224,-0.20146055046328554
9.128514997,1.488659957685838,1.644840671272488,3.3314689802634088,0.10178496240585913,0.3476953105173568,-0.2223351497193377
9.328506728,2.1285362938695673,1.5872607308800109,3.1841154557511184,-0.39286893886160607,0.39728536159869493,-0.19559282329992103
9.528497738,2.677025300781839,1.2150207766925256,3.1919604187411874,-0.858950031793953,0.4391300750668675,-0.1992722490520126
9.728508146,2.991665386609132,0.6548606731848668,3.2464447721469893,-1.3048818405707845,0.42460008958604967,-0.2077061906053923
9.928510383,3.030252335923763,0.01395263539295475,3.2513930029282605,-1.7830232587276817,0.4087594026250652,-0.20014246483009157
10.128516611,2.7999429218246714,-0.5527174442961559,3.2567195866207737,-2.2066642586400724,0.4434893035167848,-0.1951103340093998
10.328507513,2.2946443462308554,-1.0061022464241645,3.2836365542224195,-2.676503093886047,0.42596857898992196,-0.18070016339654715
10.528521199,1.6999468296034344,-1.1891082151414356,3.2963964317288474,-3.088826846682137,0.35891450213701903,-0.18131352107396667
10.728511096,1.0591735180168786,-1.105951303138324,3.21836655982533,2.7436524618547775,0.33620389748359464,-0.186904997705168
10.928517643,0.5375108028918743,-0.7615286766308911,3.1027126951420647,2.293128839148342,0.3338800434685189,-0.1841717664687611
11.128507137,0.2100206454211624,-0.20274880406115656,3.187582386106584,1.8935904421608452,0.4454369047353921,-0.05516190925262793
11.328511071,-0.011484657848026127,0.40361310019926394,3.5207119065537493,1.9667065400163375,0.4094939501888716,0.11533955824215522
11.528503632,-0.3967715055515048,1.039447067673929,3.529606921099701,2.297208423769255,0.26726469114913,0.1686455383734457
11.72851697,-0.9034814803703853,1.4423265413261377,3.3163544855001073,2.7629324307447134,0.26772180043668264,0.19178946309904035
11.928507687,-1.5240707093709591,1.576754930171094,3.132871842645323,-3.0510520908720045,0.3642300901663111,0.16749558726186475
12.128503956,-2.1209065051976443,1.416915029034195,3.1121844549687623,-2.6294648894863686,0.3955915600357928,0.17683119756493001
12.328513546,-2.596375802828315,1.0138688474181117,3.1414327469920416,-2.2101960912347685,0.3707485537321418,0.18825011468275543
12.528500292,-2.8574272206015316,0.44797730069655356,3.1109734244411436,-1.7408291675356815,0.363079316040058,0.1988762593763347
12.728510463,-2.838619529601495,-0.16563665057966576,3.0800504305279643,-1.2787259747665187,0.36729843532366657,0.20325355523355704
12.928522332,-2.5503842604402776,-0.7053153208181733,3.1051281640165045,-0.8113590821661482,0.4092325605517646,0.21086351296385686
13.128508695,-2.0463269002069464,-1.0612332857904114,3.1277600710782476,-0.36128489120895607,0.4637582209208304,0.21259450826714854
13.328533488,-1.4245660617806741,-1.1634613435376098,3.196690869421572,0.09426630595432052,0.42261912811830993,0.20912807445847378
13.528502493,-0.8202434622380128,-0.9817585149293542,3.168497026274635,0.5732639003888058,0.4022933738026582,0.19105613868787824
13.72851291,-0.36086170396222034,-0.5552552010503555,3.1596083404889455,1.0121914245141757,0.39883233403795415,0.16876988008209368
13.928521048,-0.09108483759296274,0.027546302907644444,3.3162401403120203,1.2353194304100632,0.4421359547652501,-0.009853153917144843
14.128509938,0.1729112318700603,0.6594486643286658,3.484177817610908,1.0508381920883842,0.3992885808548612,-0.1376002663579238
14.328512907,0.6086657995550937,1.1989303193502727,3.4608636530803896,0.6630429296846763,0.3422133303924577,-0.16695124032997144
14.528591721,1.2369311876921754,1.5216422880862688,3.332463080021867,0.19477536273526572,0.35338206611398304,-0.17412771048977885
14.728510059,1.8625407024160592,1.5399678923567965,3.308890146814035,-0.2006022796118243,0.38171753882047144,-0.17468516552479668
14.928510096,2.465516528567541,1.2893274248145217,3.2840449832544447,-0.6397840801635505,0.3796682500402521,-0.18587745582066514
15.128525119,2.9130072079903715,0.7796943869159241,3.252358046920319,-1.1104128009856276,0.38246024074227797,-0.1945459634331464
15.328514051,3.0755382072537745,0.19257343469791036,3.2306210538567726,-1.5537083739154154,0.4100193585740574,-0.1967803181737135
15.528496227,2.9543870903059917,-0.4667664658799983,3.2217186588721045,-2.0135222343760186,0.4231452783338802,-0.19797239760821703
15.728510314,2.5944189204148667,-0.9603173063548619,3.257960014113667,-2.452326965749148,0.4183452602526044,-0.19087974350824866
15.928507206,1.993967446343425,-1.2841453553370707,3.2750482934580005,-2.91264474243148,0.42279633267147587,-0.18906205224378012
16.128512145,1.3779959630100633,-1.3188385658021873,3.249545707813908,2.949511839588986,0.3729228787410716,-0.18304874520263614
16.328512521,0.7824128219753429,-1.0821981001438585,3.1815499799026643,2.5031783333394086,0.34204506319522593,-0.18750286954279022
16.528500097,0.3609757378000591,-0.6232962962255522,3.0966554644844178,2.058387763925557,0.3654771340144762,-0.19102825900395803
16.728506433,0.10364175383525043,0.012402001574815727,3.4275726965104956,1.9159402398414664,0.46773765789390287,0.04865277889279413
16.928515371,-0.18173724850238993,0.6235044889466085,3.58628261933941,2.098593329895536,0.31467544338879244,0.1386571962277824
17.128511208,-0.6301981565734113,1.173922746276706,3.4868259102512815,2.479035819290636,0.24650426518909066,0.18154782755072818
17.328649777,-1.2508874104574839,1.4887212215109098,3.2165648878015425,3.00269312357162,0.2826834961456909,0.18482824404611758
17.528515768,-1.845180464963295,1.4834273214530114,3.124493752703582,-2.8768704623912504,0.35835742259084885,0.18242194861967612
17.728506756,-2.407104267702638,1.2136385046110019,3.1427675708124903,-2.466377387069781,0.36411240253074667,0.1977865305982318
17.928523048,-2.8171732745323137,0.7045787253381149,3.1363177792143415,-1.9742877945657908,0.34478829326175114,0.20812160779362235
18.128510944,-2.9390261248365697,0.132878456103968,3.109226646178974,-1.5311633610460547,0.3724696410305047,0.2110387670319419
18.328524944,-2.7914152233518705,-0.4568133619329888,3.0421977871162347,-1.0503247407812044,0.39258632203266025,0.20582615183074765
18.528496166,-2.36587527518915,-0.936745243768,3.118161768771996,-0.5709846146746336,0.443310139249625,0.2152454173119987
18.728511423,-1.8131850557647304,-1.162884126611281,3.204554065973753,-0.13901340282893568,0.45632591345185153,0.21551592748927087
18.928522454,-1.1764447287129747,-1.1278640572189789,3.22695296152982,0.3278017347825703,0.41024014486924165,0.20083722346353147
19.12851097,-0.62069839936937,-0.819976947101743,3.1817318692181935,0.7730409799244949,0.37547981203072767,0.1908515411378568
19.328521081,-0.25322898326678905,-0.3048896447175786,3.205538240629474,1.1889560110676054,0.4051164489989709,0.10509872711319947
19.528508842,-0.02224054009183699,0.3174452223310885,3.4320285256582297,1.1874278829346818,0.43843801219288375,-0.08994292853393099
19.728528591,0.3172629135853751,0.9251493634634756,3.53755913482437,0.9002743333277213,0.4857624382707256,-0.1554831603746695
19.928506354,0.8326385345336837,1.3970569196479956,3.451200020434486,0.47665791349911385,0.32769658139058666,-0.18291915326899452
20.128514298,1.4688285484164572,1.59181790084089,3.296504749352696,0.00601170253146425,0.37375619650354686,-0.17701003746257318
20.328513385,2.1085140344583104,1.4828515588705218,3.264784390771052,-0.4240391541883514,0.40085152219835357,-0.18202551687342902
20.528497007,2.6559524318886396,1.0841496449036672,3.2562410456347517,-0.8842631117462331,0.4000968975630211,-0.19249606679492479
20.728516441,2.950211256797062,0.5466047401286083,3.2401349435826052,-1.317650591652076,0.38633308525685406,-0.1930836709325267
20.928509214,2.9814946893614294,-0.12399860267881384,3.2345050016835275,-1.7918884671795754,0.41805912128755507,-0.19348154690161143
21.128508316,2.7431244504610124,-0.6865462674215749,3.2357854314760433,-2.2186809156618295,0.4148183544040444,-0.19218672877496765
21.328516633,2.232368046250527,-1.1292510059219942,3.269728394567238,-2.691297049406104,0.4086344724285581,-0.18371117128626002
21.528500667,1.6383563104330299,-1.3025676368381038,3.279123585370045,-3.0971968371365897,0.3848930944207604,-0.1842052567100942
21.728501741,0.9738440037246913,-1.1989135560674593,3.130954923340642,2.692505581049508,0.17928490012420645,-0.22731169469706863
21.928507227,0.5360085213373489,-0.865066520990596,2.8639507131456265,2.18320679842361,0.38077312180369677,-0.19440868721690938
22.128508156,0.26124219793281095,-0.3263317399216985,3.253077410429334,1.9304053203706826,0.5298020454351836,-0.031209842200143622
22.328519558,-0.0007593459592603502,0.3112153725317101,3.550527628963016,2.0094073967204955,0.3813281225765845,0.0937703358361429
22.528500108,-0.40642962743391187,0.9473337954555406,3.574781275325164,2.3064609771048543,0.273092821458956,0.16761376613994244
22.728508419,-0.9527515278611327,1.3693144662464656,3.358181546962335,2.775204988252336,0.26140356194589176,0.18864039608278052
