time (sec),x position (m),y position (m),forward velocity (m/s),"heading angle (rad), from x-axis, positive is CCW",throttle (unitless; -1 to 1),steering angle (unitless; -1 to 1)
0.132746958,-0.1007648980182141,0.18331170529663882,0.0005554363237993078,1.7143667148482247,0.1408247932482931,0.028233621860533666
0.172651401,-0.08829765522275541,0.2156124087423266,0.019286445425116986,1.6995253758234674,0.5032253576938979,0.0863021554355508
0.21267812200000002,-0.08877838931990636,0.1915976245439609,-0.004011384680879779,1.708168328434316,0.75,0.0949476461380083
0.25266713700000004,-0.08101826105871177,0.20754479098609976,0.00022819309633421157,1.7089866959326006,0.75,0.09844214356009114
0.292664152,-0.10897898699395557,0.1972646992557318,0.005817370993287179,1.705964609412156,0.75,0.12138045113555863
0.332643067,-0.09175512273627556,0.19895963573662775,0.01290189032084309,1.6974420074497432,0.75,0.1512676331925159
0.372647716,-0.10835811340230468,0.21180219416206772,0.36529490990222596,1.6956338153624348,0.75,0.18071573026795767
0.41269702,-0.09353718945203798,0.23301572661822997,0.6845200374957463,1.6937332047728229,0.75,0.20945375225691804
0.45268220200000003,-0.09512237182233499,0.26545259261266346,1.086510610081871,1.7606951598266414,0.75,0.22936570319274666
0.492647637,-0.12072877073319781,0.3152858775365028,1.426137431333704,1.8080056106543172,0.75,0.2630042274344106
0.532693221,-0.14487067343291124,0.37749547425397134,1.783658551947578,1.868204751759421,0.75,0.2923894978612906
0.572643639,-0.1805055531366925,0.4460050744144574,2.0560236126577798,1.967927273535272,0.75,0.3123348351523515
0.6127243990000001,-0.25014091124286547,0.5470352258460113,2.318726699292804,2.0537088922377884,0.75,0.3163263499146187
0.65269845,-0.2823647025484462,0.6159221927224604,2.5533317147163053,2.1725103771378835,0.75,0.3168098498123276
0.692666917,-0.3344234523467743,0.683384553222694,2.700994465632763,2.2984196780024013,0.7134796991019001,0.3117534778406503
0.73263962,-0.4215769254481301,0.7537343407363418,2.8277674705327516,2.3977356967025787,0.6209234672442714,0.2929391335683694
0.7727080930000001,-0.5102570928360111,0.8333911420961577,2.8568051496407096,2.489825054212742,0.5340406171282401,0.28835038922580913
0.8127143710000001,-0.6102476261055746,0.9163316627834738,2.9335156839743544,2.615115964559301,0.4775339858346821,0.28446527239450325
0.8527226170000001,-0.7223364173194868,0.9726785430538788,2.923428796476119,2.7132542968284272,0.4482083609465612,0.28174259915696487
0.8926507560000001,-0.8288415898541123,1.0009705089161791,2.9459151381987563,2.807921677397873,0.42893544919031146,0.26812226832102337
0.9326439460000001,-0.9365330721862491,1.0511157055393328,2.927252069204839,2.90749047560265,0.39846453317552777,0.2657325885984457
0.97265312,-1.05105033601828,1.0527660189056158,2.944995490550955,3.0038211196296625,0.4088352180071981,0.262976215886863
1.012691189,-1.1756490299098838,1.0729056012475398,2.9258046688469856,3.1258660592650247,0.41994588270466576,0.25992853334486904
1.052719991,-1.2883570946129819,1.0750041888625408,2.9361546199050608,3.2334057090238395,0.4042374777003999,0.2486990982979377
1.092650811,-1.4128780604620528,1.0784751447614143,2.963977787104322,3.3344823949667783,0.3976812029722189,0.24375086266504697
1.13268601,-1.5174101135040812,1.0360708673297316,2.946787565636642,3.4220151293278853,0.40344772567436016,0.24034730319272518
1.172655741,-1.6443446631606062,1.01800078409554,2.9504652071030772,3.518964076219393,0.4150860447703632,0.2376540575243362
1.212680689,-1.7345573146574962,0.9623847594540852,2.9759723094138395,3.6137735899717036,0.38294683222675086,0.22450706750498878
1.252705076,-1.8506995745510966,0.9072214589277149,2.954782673798568,3.709824166334363,0.37430511121600063,0.22521096948794597
1.292646184,-1.9503528531724297,0.8466020180740248,2.9544505203412963,3.810234936124748,0.37691561042433686,0.22621445495029668
1.332681341,-2.0455665029161723,0.772746706098816,2.9486811282401835,3.860569007986135,0.3855900766066723,0.22871597044898342
1.372694145,-2.1207166536777624,0.6932869951786363,2.9503164644679876,3.972562617345804,0.3503749468647648,0.22200815182768455
1.412666733,-2.2129487884656056,0.5997043438140314,2.960913367034771,4.047347917639392,0.33870099024306694,0.22437383487112955
1.45263683,-2.2814501649323216,0.5012710481521054,2.9501474864460318,4.139664665133154,0.3409130406835921,0.2279738386907584
1.492643219,-2.334825101651243,0.42218510788664604,2.954247963117159,4.248087090990258,0.3305546300432459,0.2228917914534479
1.5326490270000002,-2.38604081175905,0.2914435343524181,2.941283439834707,4.33125639597713,0.30636104977467726,0.22546571982166594
1.572652983,-2.4161811946320175,0.1788606921263123,2.935328636695889,4.412047776705014,0.2981487987895054,0.2292055345832477
1.6126443080000001,-2.4595523109608246,0.07371525609856625,2.9033605012501638,4.503035288797428,0.30685823082734875,0.23101921745961568
1.652640861,-2.480715155988774,-0.04299694629678801,2.8666107748032448,4.6088391570391956,0.28681174902651513,0.2282886852474289
1.692647181,-2.4896278721240925,-0.16875933193111942,2.8740046012530334,4.71276248884425,0.2774948615259308,0.2315665627837112
1.732645604,-2.4802277889851907,-0.2713688214139599,2.82845768548059,4.785768161130699,0.2832056126587513,0.23485755881762865
1.772643833,-2.473495688280327,-0.3883066261609971,2.8120406044790665,4.866169582384645,0.298837384766478,0.23935324193396784
1.8126423950000001,-2.432933380075961,-0.4819141835735872,2.7758002305226097,4.965424528169068,0.2771399423738282,0.23977846903267458
1.852654832,-2.4100631804317234,-0.5983580271397627,2.7825451849227405,5.07640832812641,0.2754558096363344,0.24370641777049432
1.8926461300000001,-2.3716344828918086,-0.709611182383692,2.7582898620899092,5.165791916771926,0.2874089617270082,0.2481080323891992
1.932643948,-2.3122757331845403,-0.7952721937831994,2.7485880568623506,5.262609306998615,0.3156804563646283,0.2510679124175278
1.972644341,-2.2585141132454973,-0.8891046727344996,2.7379882092456556,5.355326925048834,0.2902945214322787,0.24815702946791898
2.012714498,-2.185789742412151,-0.9975272507908398,2.719734130586621,5.447964958666156,0.2943193409071538,0.2529187460166042
2.052700659,-2.111485802273099,-1.054702489978354,2.718463292883293,5.553902983744557,0.3191381704186294,0.25670826887820863
2.092650576,-2.0345764467435856,-1.1201500772756456,2.7081285693211505,5.655300104032648,0.3176579879216248,0.25161659523035723
2.132713159,-1.9209588249117144,-1.1766385377709832,2.690540311664489,5.726603588290332,0.31788696808294625,0.2558044869252255
2.172686728,-1.847709457085595,-1.2386966353864284,2.727656858171381,5.816129790602785,0.32934698689150255,0.2600038878125724
2.212706835,-1.7279142371892524,-1.2888476696176037,2.7178798023055815,5.933451317040523,0.35721692624393214,0.26511728260067235
2.252660255,-1.641947600378343,-1.3194490273087505,2.722514364592358,6.027851848800487,0.3539866984188099,0.2620134199098709
2.292650508,-1.5233554536923555,-1.3147838447689375,2.7338678792197473,6.136584787171355,0.35816059883590357,0.2634737173691775
2.332708063,-1.4135508749506975,-1.3495310896237163,2.71984109785309,6.220820779698323,0.37719233877135316,0.2634618333789207
2.372655615,-1.3052520411255257,-1.332168357901341,2.764388946593394,6.312731157654293,0.38476196717206657,0.2593186087498243
2.412651898,-1.20132267400711,-1.3445197442355217,2.7782342943544687,6.425754430869501,0.3856721528277967,0.25628377841533995
2.452678494,-1.0879962254830642,-1.3197384402350552,2.8001793808919038,6.520197909438559,0.398560990103737,0.2532799268308387
2.492662977,-0.9763009285395245,-1.2820663959327976,2.8061171428275777,6.614877672113539,0.4072552444466135,0.2508512072596682
2.532690498,-0.8760703945686098,-1.2337700151751352,2.8279958920038477,6.7161930280676945,0.4038006087104244,0.2469931154282987
2.572651493,-0.7878880415797207,-1.194566925317274,2.8446132267009263,6.807160857273038,0.39611700921538673,0.24353321475313436
2.612658762,-0.6670683117449183,-1.1394376917568483,2.866757656297455,6.888315515336035,0.4080914494757754,0.2407186341126038
2.652653822,-0.5826122384558522,-1.0661451599167373,2.894799547304152,6.992685959552841,0.4297080445262425,0.23731565530087825
2.692646689,-0.5162411235729589,-0.9896507503642439,2.9235218704048878,7.0799395514563,0.39756228222753737,0.2292505144583614
2.73264161,-0.41320142427284423,-0.896459334964523,2.940884256922045,7.1545697972652444,0.3920319220079134,0.23068404598759795
2.7726453710000003,-0.3547873680584449,-0.8093032879662871,2.955472142319816,7.241532887442804,0.39925002621200595,0.23204904312689176
2.812644176,-0.2754088293643954,-0.6882654927595807,2.95012432524176,7.3374601528739145,0.39955672538295733,0.2020057066583406
2.852682195,-0.23545529096265624,-0.5947420324589368,2.988916119768968,7.417224364559784,0.4094142044252997,0.15928986522592692
2.892661064,-0.1826539101482416,-0.5065921267542928,3.022905992442851,7.453900416456083,0.41889053034837553,0.11581841208122705
2.932702009,-0.1328289682327004,-0.38382227283771475,3.043167156148644,7.487897670135667,0.43138860861020234,0.07223244403951098
2.97265075,-0.09265574235802168,-0.25447438022504687,3.1000240203981444,7.516412041796775,0.4115806306616363,0.025577041787041142
3.01269072,-0.05974745010706593,-0.16002203758926525,3.1514429152186065,7.497075887866507,0.4003266167734716,-0.01910390584182041
3.052708365,-0.02251638388179392,-0.039071352915103774,3.1893959900560547,7.46725967415394,0.4014427470839224,-0.056298226873343
3.092646313,0.04655644133002464,0.0773035985612872,3.207459788747309,7.435088618459652,0.38525569439637947,-0.08278281285354054
3.132715927,0.10497893057219163,0.19129514216396698,3.191554718028823,7.355111863253022,0.36686000023828086,-0.10923405754204185
3.172700898,0.1777771938126084,0.32527899169448904,3.18049744343231,7.3091122260790815,0.3504231192373667,-0.12976680773929658
3.212646886,0.24011572661809297,0.4213044846837795,3.197701755408511,7.2526189978893925,0.3558248276500253,-0.14384948012004153
3.252695196,0.3057960039545549,0.5286563530640358,3.198373685658234,7.165067660566616,0.3429857418907057,-0.14976503554243192
3.292647069,0.3932534850456107,0.6116316876578555,3.140068088938134,7.075122191063125,0.3344009469926972,-0.15660868437605097
3.332690826,0.49827261492708014,0.7039098991647926,3.1095903873929696,6.968955633713616,0.3351504592854548,-0.16086325664697615
3.372648987,0.5718646438065995,0.794476651296118,3.1115999308738327,6.911250296433999,0.3576520474404691,-0.16283766900912733
3.412644676,0.6959526360132053,0.8559055081388796,3.096130974271514,6.820134690910698,0.34103547947736784,-0.15822073934281078
3.452645319,0.793746627567075,0.9204422565440182,3.0663548960010867,6.726310815285678,0.34302480696673643,-0.1603096439355602
3.492647475,0.9014531656121518,0.9764291185507477,3.057292674934648,6.658022650998412,0.35180247609752546,-0.16235031035598096
3.532691543,1.0243253824561884,1.0145895148762407,3.0366239917369025,6.547963594201082,0.35536249983127444,-0.1578196077299535
3.5726458660000002,1.1285755426108628,1.0535027035137494,3.023167849037531,6.49015300511782,0.3429658101281046,-0.16019990360052996
3.612684028,1.2374755374874102,1.0613499770748491,3.0127172205053876,6.41737815971204,0.3457396021287299,-0.16235866734885596
3.652651013,1.3669612830719307,1.08796888185615,2.9749983154506623,6.316842210749028,0.35793335423091155,-0.16631394053000353
3.692645733,1.4909323655332232,1.0777334588775855,2.951973879192271,6.229944936264818,0.3475701042319385,-0.16295275752924163
3.732725756,1.612770150733195,1.0738579294684352,2.9165839108862284,6.165739733564998,0.33734028488136564,-0.16681832502566296
3.772651168,1.7122319572946993,1.0679349296295566,2.9262737878489014,6.064262457213765,0.3426804556039683,-0.17155350179371096
3.812710727,1.8255584764110173,1.0233180047312826,2.927765445692018,5.9762730266472985,0.3545959679423588,-0.17529557191575532
3.852651551,1.94005777527792,0.9785946979444532,2.892844588508917,5.902391313632365,0.3407112131798908,-0.17386733212507757
3.892650347,2.0513544852330554,0.9274459392293997,2.8575639724912834,5.798371396495788,0.32946624163032595,-0.1775568739412162
3.9326459060000003,2.152839525189667,0.865057203072997,2.85363693917951,5.726321558221661,0.3321145181060846,-0.181536080820626
3.972652318,2.246245612056962,0.8376147249305756,2.83833629852825,5.605855276996986,0.3544754949811443,-0.18475677497177076
4.012701597,2.3186041783437847,0.7381669863466012,2.8094986733561393,5.537697504467068,0.33007904278117234,-0.18179914397645577
4.052656272,2.3900787675166764,0.657577256589409,2.8069062729723675,5.444418331769005,0.3276424326116519,-0.18571069320587252
4.09264671,2.4920339974378356,0.5729092809954627,2.77698297063825,5.369491720372906,0.33807949744641913,-0.1892346890234209
4.132644151,2.5270792433151703,0.474183542270936,2.746369155597442,5.263656675111658,0.34467749523432967,-0.1839596960517272
4.17264829,2.582469010012584,0.4047051926669725,2.764881210736262,5.178336341732928,0.33412833323933977,-0.18930720578875262
4.212766764,2.6257570746736203,0.2826926149807507,2.7439321708176103,5.066384719844262,0.33886655106452285,-0.19316153359842106
4.252662988,2.6726638685087183,0.18193365581810375,2.7255933203935347,4.973555240892792,0.3639183407993484,-0.1972429384706538
4.292646184,2.7023741105956836,0.07606992317260416,2.742620003044037,4.904137588308678,0.382359969968974,-0.20098733807993743
4.332643569,2.7125709869692405,-0.031867124628060864,2.730239874849943,4.806467489408365,0.3491832256364667,-0.19586134215396844
4.372649307,2.689493839143792,-0.12723095598592932,2.7421656037808035,4.709140873795344,0.3536240663908325,-0.20106320416752682
4.412695575,2.714559419211825,-0.2521498096367636,2.7170209225905113,4.616852368646643,0.3644655931799714,-0.2047542003896532
4.452679353,2.6949995866716923,-0.3466122889696711,2.72349236163054,4.516698559236161,0.3543928729580983,-0.2016193723344608
4.492651964,2.6716267206267528,-0.45836439405350476,2.7104621772581914,4.442708823675473,0.3486488095277253,-0.20372817996213036
4.532641231,2.644468644128872,-0.5668003783105184,2.700049197447804,4.349832501118144,0.3678893248756348,-0.20574206735213107
4.572689631,2.5861729349970415,-0.6582865863288535,2.7160715564876035,4.245703429275811,0.393358708028502,-0.20776721556110098
4.61264833,2.5311713460675827,-0.7710800218380611,2.6861626975962407,4.150155457576084,0.36780528307684335,-0.20126463573196354
4.652658301,2.448880249567036,-0.8443970912019069,2.6977992554794836,4.0316136783662815,0.37555076400839277,-0.2035346442761046
4.692706588,2.407039582715115,-0.9286729680173323,2.7219242339401695,3.9432204655266916,0.3883180231015431,-0.20471063784875285
4.732720502,2.3130700315876966,-0.9918725432496976,2.688846416516904,3.8580949939161377,0.38855490765662865,-0.20268440323079576
4.7726596820000005,2.2364628522998347,-1.0618892015162682,2.7244790932735357,3.753795750310668,0.3842310905806086,-0.20149914376059244
4.812671876,2.1556674511831653,-1.1387078006239986,2.7306311349549865,3.692086057531922,0.39328021793150936,-0.20078120290993312
4.852681264,2.048525177075371,-1.1643264332390426,2.7423433134001796,3.5812515578288258,0.4194392750747262,-0.2003944949276091
4.892657841,1.9503521145674378,-1.2133563367203168,2.7505007581633407,3.508356599188708,0.39583938354287296,-0.19580768675148869
4.932737135,1.8191586307375507,-1.2551974022898826,2.768318654330085,3.4001170121431437,0.3916701816060898,-0.19831274674736452
4.972651632,1.7208524549622248,-1.2737405927991965,2.759663938857803,3.3140737007967127,0.4029326039359506,-0.1991418297676351
5.012655466,1.604574251342376,-1.2957656125412245,2.7544674258048607,3.2094174287878223,0.3972758705563985,-0.19771800721114896
5.052695073,1.5037302962586199,-1.2913786023527862,2.751590400673825,3.1455754227823607,0.39028184287894974,-0.19659835028747372
5.092655688,1.4080560563766191,-1.2707838247879342,2.7880048573663014,3.022844864999161,0.3941350344744586,-0.19452680618919743
5.132713091,1.291966720523496,-1.2887349667699868,2.787756177770126,2.941696841492121,0.4107848048331642,-0.19287043925098593
5.172641894,1.1702722398686223,-1.2373113858765599,2.8029461189830793,2.827605055735134,0.4027673050743373,-0.18497613836414006
5.212701636,1.0591082482709437,-1.2083672272511237,2.7945383079376804,2.7620647526819795,0.38797236862367795,-0.18666986961397922
5.252645619,0.9831798247264604,-1.1557295101850713,2.808544666003192,2.6602163001833516,0.39321810721381517,-0.18877073033350275
5.292648439,0.8899876001081085,-1.0972155985117513,2.792872075881063,2.572063461335031,0.398167672897214,-0.18155793419491023
5.332642572,0.7840657907959493,-1.0095186282359963,2.770099514755069,2.4596670177033215,0.3846831170040378,-0.18300687897834395
5.372652284,0.6959502313653864,-0.9689945972161721,2.759082602684408,2.3707935665039517,0.3796778434726921,-0.1844796347026135
5.412649911,0.6218385416827706,-0.8903291988464379,2.7793042992131403,2.307296438553245,0.3963996200937428,-0.18725705349951463
5.45263832,0.5381323756851331,-0.8048573799103715,2.794394394624789,2.2037632968086878,0.3938650459366395,-0.18029546701947224
5.49265461,0.4986458180613309,-0.7014032661666364,2.7994737677410986,2.1245799358952513,0.39054325885538116,-0.1794475688971515
5.5326479729999996,0.4324738500429961,-0.6031307188699362,2.799402904465567,2.039336962906138,0.3931284372791328,-0.18003771458798196
5.572647411,0.3844055414342366,-0.4966910881649244,2.801411811238624,1.9323056161818053,0.40370210478081087,-0.17976954674993623
5.612644716,0.35763168416474095,-0.40549385702981083,2.7949003071894287,1.8552587387579216,0.4073903547231476,-0.13132460869285392
5.652650085,0.3204728290181041,-0.2850746281384767,2.9037964395233082,1.8140207936893304,0.4217227280504095,-0.07617381959777032
5.692646579,0.29617828789809014,-0.17587634762985188,2.949560744518093,1.7710594217705806,0.43618772601915423,-0.01950583863579574
5.732648575,0.27089477392137407,-0.0556390605810343,2.988473050395484,1.780814248388602,0.4663111716483962,0.03504814668161622
5.772648914,0.23648342565547475,0.07173563118882902,3.077692176020715,1.7890244443032008,0.40951104736468724,0.07238582338159265
5.812684058,0.19488042790115767,0.19664259434444112,3.1037293911669295,1.7771520623679693,0.38920199993596555,0.10967326520037413
5.852656109,0.16150520281732675,0.30093770494617206,3.134211548542818,1.8542584957488268,0.38016720245877483,0.1390156147582385
5.892652534,0.12314308411058278,0.42159311963817836,3.1535387037140428,1.8916572075623486,0.3500358753090218,0.16104329678972498
5.932649452,0.07203405783565711,0.5391580198165266,3.139608782394858,1.934452545766276,0.3286342416864928,0.1830754194739148
5.972646851,0.02602449511879987,0.6381921471548915,3.131413033274091,2.015330789697151,0.3223210676181945,0.20068237541917278
6.012644735,-0.0361223765964585,0.739176174348406,3.154012844002001,2.0999385423365973,0.32477538182211796,0.21371302156764863
6.052643038,-0.10194936789410947,0.8559813786190116,3.1335806483415705,2.196971076514193,0.3116919729951494,0.22167965087637453
6.092646118,-0.16639477706808853,0.9676295360168026,3.1164896856233413,2.2843289248848277,0.3109616338413465,0.22877421117691957
6.132651824,-0.26887969173539505,1.0401556277839141,3.096906954575686,2.389349486458491,0.32025894113359293,0.2329041894083912
6.172658403,-0.35393558046677326,1.114831341653057,3.06345092566486,2.4911040737502703,0.332233417024275,0.23104996940722441
6.212698316,-0.4539093280089949,1.2145523733809984,3.0411001951583043,2.579644981663643,0.33007485458754865,0.2296696162552545
6.252655121,-0.5365746384005659,1.2754078364090025,3.0544085264851106,2.6608309901370286,0.34004035885424466,0.22726421424062537
6.292647897,-0.6463015365020471,1.3301814750897494,3.0300065488988692,2.765180613841282,0.370151251126025,0.2241789449820582
6.332648105,-0.7686400012528939,1.354293654172013,3.00388285705646,2.8463709661475143,0.36793044155733023,0.2161975619680682
