time (sec),x position (m),y position (m),forward velocity (m/s),"heading angle (rad), from x-axis, positive is CCW",throttle (unitless; -1 to 1),steering angle (unitless; -1 to 1)
0.126809067,-0.10373119462049928,0.16949829816186487,-0.01674976846870965,1.6637703315010954,0.11461033079925301,-0.026147542941827175
0.166881673,-0.11706801085398255,0.17030220020920647,0.015915734706455218,1.6523242079708493,0.49530826985637477,0.09761754969950646
0.206811492,-0.09831375612723997,0.17408329917000787,-0.008007310902394645,1.6644701612367092,0.75,0.10797913916443887
0.246848857,-0.09955110887661733,0.1893425939596168,0.00986195368507018,1.6642800602911347,0.75,0.11178570521886207
0.286817347,-0.0858682052582921,0.17307960259508148,0.006418166214319914,1.6642407675864495,0.75,0.12560224308503118
0.32681279,-0.10815564529030983,0.18987800406467684,0.13774232685191062,1.6546860578991998,0.75,0.15377283593556917
0.366821447,-0.09037830914205441,0.21485276473044815,0.46724197251973076,1.6497681476161852,0.75,0.1818934308955902
0.40680911000000003,-0.11550393207593651,0.2073887857062423,0.8536659066303701,1.6789375569940934,0.75,0.2085591937497506
0.44684956800000003,-0.11453953425857105,0.27486706005381273,1.2070849347511603,1.6905474832205232,0.75,0.23564939986058195
0.486894578,-0.11164702633938843,0.3345202030281296,1.5740082740699575,1.7884174530060115,0.75,0.26439650856027214
0.526822973,-0.15232014616489745,0.3926616088806989,1.8673185021511605,1.8699384881310108,0.75,0.28826505936698044
0.566818112,-0.2070255791086334,0.46251620282021627,2.1483947615606978,1.9418377261061786,0.75,0.2861870552071317
0.606817998,-0.22723846816991225,0.5334149283598341,2.382469152360809,2.0514205839664954,0.75,0.2861681790642412
0.646814207,-0.2884064409066952,0.6267730603406871,2.5841559574388593,2.140287854255163,0.75,0.28079615037361294
0.686826441,-0.3574576105426755,0.7256199909481128,2.797438608087693,2.2498836967292766,0.7431060007269089,0.27138368989850964
0.726810422,-0.4260708474493307,0.805763186487895,2.916388286872455,2.350167678583799,0.6523765882440087,0.2576257809713204
0.766814045,-0.4908210505340435,0.8809632762265588,2.972559829411501,2.430730660158971,0.5779305199445136,0.25105947046301214
0.806815846,-0.5971225957088829,0.9542985745065187,3.0076926434504294,2.5483833206879414,0.5034134325430295,0.2449880097640356
0.8468151530000001,-0.7164841556224522,1.0063420736042166,3.0376166506906177,2.630522296152786,0.4766883094482691,0.23952351181311546
0.886825347,-0.8245068876372383,1.0865757272307237,3.063390269723482,2.735637017527894,0.46717429612554817,0.23434302874689664
0.9268094760000001,-0.9596445205078739,1.1052963085946055,3.0745466663864502,2.8169054701160245,0.4534281973503285,0.23352839254278612
0.966858898,-1.058069802387869,1.1412469019317628,3.0806988677505496,2.924223352200407,0.45340394368330095,0.23275312813514334
1.006811958,-1.1595255602944672,1.1637058758500292,3.0932700896561447,3.0333983778472455,0.4679890146845109,0.2334219376073189
1.046864161,-1.2818089117807479,1.1718394348048007,3.1104265839236693,3.1120667795897634,0.45465584049138436,0.23060309338036783
1.086813985,-1.4241231211980439,1.1822046968106026,3.1362965130627645,3.2200545042669733,0.45219484262011556,0.22781763115373146
1.126808321,-1.5462638069968222,1.1541678185220452,3.1349472288553453,3.3222429251547396,0.4579179068336698,0.2249396822992751
1.166810875,-1.670412554168279,1.1493762604317885,3.1556032921445216,3.437491915433163,0.46277697760167713,0.22276987886048763
1.206810781,-1.7985418772034976,1.0881880253852583,3.156353954753364,3.5230659337534243,0.448250461660466,0.21949080686236794
1.246863986,-1.9047503138092587,1.0796598857015416,3.1834718866057514,3.6160994081880395,0.4506252653114798,0.2176017289358172
1.286822573,-2.005300038259607,1.0111516627716046,3.164438672051809,3.709007231410958,0.4625129957655352,0.21794482527834932
1.32681107,-2.1305973432726786,0.944733756423109,3.1590472104953786,3.786242065644133,0.4544952803570351,0.21449620537316155
1.3668705540000001,-2.219429592596936,0.8520742339997474,3.164597513630758,3.880008856737208,0.4476410032679816,0.212752808420649
1.406810414,-2.3055588370828897,0.772335467717029,3.1917386251020687,3.972712764541946,0.4611059065146305,0.21147131871882469
1.446823934,-2.415547934064929,0.6802016070311041,3.219371968007087,4.078462167789422,0.4527949909423779,0.21242064762751767
1.4868168480000001,-2.476077654369946,0.5838289186684001,3.2203522667080424,4.157861166772742,0.43848717927607916,0.21244976400479776
1.52680838,-2.555338416636669,0.4786282567090878,3.244487636451733,4.2444682562783935,0.4323812086340023,0.2113549751222427
1.5668223239999999,-2.614818056308065,0.35646065125560444,3.2339890790680625,4.343528374103269,0.4366201150945122,0.21056028017373118
1.6068089859999999,-2.6540193498486273,0.2259705082400054,3.2512780582017524,4.423368933260353,0.40692759073011064,0.20599783958903464
1.646893766,-2.7059404926263397,0.1131066744105412,3.2443858618410744,4.503148066059475,0.37746937737210395,0.20548226405597136
1.6868244,-2.726199323979002,-0.008702607350377518,3.206152857086422,4.594277179286322,0.37378606353599036,0.207951589501449
1.7268124720000002,-2.728135459146897,-0.14393772858285334,3.208730668418656,4.701518541739759,0.3622701085555111,0.20839006817575031
1.766811597,-2.7176568320056536,-0.2633524598297431,3.1719534715471798,4.776201943487729,0.33604592246336673,0.20851987910164993
1.806848106,-2.7168822553169427,-0.3892243609376894,3.126823780233233,4.877634079763619,0.3248555166902295,0.2095949899422524
1.846858976,-2.684788079226023,-0.5177623190047831,3.154083664512129,4.961445765439581,0.31767113640919203,0.21171074244075497
1.886819363,-2.6793837105924014,-0.6500814786859315,3.113280593737768,5.036330256483123,0.31592010548580396,0.21102839685649222
1.926808153,-2.64250126879718,-0.7588774449051026,3.056043483793636,5.148043312026648,0.3042224709128338,0.21332363508073443
1.966816708,-2.5912575325797977,-0.8748155997348042,3.0309911897431565,5.2550756368362785,0.28693751758022196,0.2170958235541997
2.006863419,-2.5351524803677603,-0.9738905359947636,2.9869986797811783,5.34347140632503,0.30963337650451855,0.21951429970749126
2.046810446,-2.44217761464011,-1.0612898258574508,2.9793170467556713,5.4392405222935825,0.31398378184498993,0.22420915672628414
2.086828229,-2.3676985349859403,-1.1414176683341317,2.962107041347852,5.506503422924868,0.3173017123851043,0.22698328309239402
2.126885292,-2.289608826399088,-1.2315261278016596,2.9410522366456,5.61397985943234,0.342189655905636,0.22974828431129501
2.166822644,-2.1968499848654344,-1.3113009836951273,2.934059177749002,5.7098126393768105,0.37298891662168937,0.2360208828042658
2.206813247,-2.089424567730936,-1.3640883556974077,2.923737370221323,5.791690961654652,0.3827777774883543,0.24005441466818125
2.246852553,-1.9918128695741377,-1.4085204556088982,2.9531504858854047,5.9030947140836965,0.40086156683149704,0.2438373162087375
2.286823887,-1.8791536507199262,-1.4588422824918978,2.9599161714296316,6.003812515339332,0.43591792383181355,0.2461783505133017
2.326810658,-1.7562637250416917,-1.4807006308163393,2.981344796744367,6.086527843952804,0.4361524176532151,0.24646197995000946
2.366813026,-1.6589836729459093,-1.520179365999023,3.0136565920739957,6.170595319442932,0.43663692102514173,0.24514511876382306
2.406807379,-1.522304810148677,-1.5210861525354888,3.0228945323722463,6.276854990168411,0.45878011232409643,0.24397507872447802
2.446888755,-1.3854545687211748,-1.4966811225864942,3.040692533857353,6.358902665134576,0.4808633678536859,0.24167001672486227
2.486849237,-1.293883536146731,-1.5003296576791525,3.08546218480674,6.455936301942667,0.46966269927229687,0.23833854462701098
2.526807615,-1.1566189593261562,-1.4956870140123757,3.1072797778231025,6.553196602912878,0.48014875527267664,0.23824088599220675
2.566814393,-1.0359745419897826,-1.437323758977157,3.1327418184453224,6.652372171327255,0.4898609363170367,0.23856722070627123
2.606870545,-0.9332211977014021,-1.400772534406938,3.1437739784642638,6.763340239295957,0.49179363810372134,0.23260533112472337
2.64688539,-0.8192475612512323,-1.3262716423754015,3.1657914509057967,6.852987196619269,0.48273873747564056,0.2303337328838822
2.686835911,-0.7065994456099037,-1.280706851855742,3.187096749110816,6.9416249173682525,0.4852362471521925,0.22780511968949493
2.726806663,-0.6121604603626485,-1.1872403505926956,3.2291334540899577,7.040469553488871,0.4988015282129656,0.22403475592191144
2.766815946,-0.4947436371276421,-1.095909535508072,3.2312135511768707,7.123562342042563,0.5086044580535496,0.21012325333748483
2.806812181,-0.42106423057276865,-0.989205468199684,3.292345716694229,7.209613028744696,0.5246745246291175,0.18541299667569294
2.846891813,-0.3378781754118108,-0.8748897271424981,3.3341522776510653,7.279524351211858,0.5378771306103753,0.16178671006963743
2.886820051,-0.262720793579155,-0.7753529765517829,3.3531673250033376,7.360343304052642,0.554083288787171,0.13865620060360484
2.926812827,-0.19784993664103953,-0.6594382128236034,3.4247921140622855,7.400242925206791,0.5498085934124155,0.10106517911899356
2.966817877,-0.11426705997592304,-0.5269324248557975,3.525523172130741,7.425811419644425,0.5603662494900844,0.05638223022257114
3.006810746,-0.07111654888787976,-0.4042519111083438,3.5913840785615325,7.438558337596527,0.5734202617646119,0.015886148669014413
3.046872565,0.004628800260250582,-0.266826882126306,3.6516694319906575,7.4346359263366555,0.5500755536517722,-0.014425142117305032
3.086829668,0.04489167575758172,-0.14251659560873706,3.7168982447769725,7.421652306172335,0.5178985913283222,-0.042631870363874426
3.126882368,0.1144330988590068,-0.015427538609840034,3.733247520681862,7.358283192642536,0.49510015660264944,-0.0654920171090794
3.166818478,0.17339793884067953,0.13179842501677771,3.773072178228246,7.337400911750273,0.48043427237188263,-0.08512418146908335
3.20681361,0.2649260131063337,0.25867903192802727,3.8150751881878886,7.282711017866453,0.4338427803310562,-0.096061990528866
3.246803268,0.3464268081113731,0.3839712425441022,3.7942168334000965,7.220491409442223,0.410848933084849,-0.10907120332078747
3.286829398,0.42744154362771414,0.5002915030565203,3.8042636493171753,7.1765991158506575,0.38831426513437667,-0.11821783666158256
3.326878647,0.5406785760127055,0.6087124856697317,3.7445807682749375,7.116208935550585,0.3782259195997746,-0.1272111023350349
3.366863685,0.622109297895137,0.7336354289631752,3.7263460092247556,7.048052042840429,0.3391100560768135,-0.1294241764160127
3.40684416,0.73520345514709,0.8407323284992602,3.691025586741761,6.986274804579212,0.3187708934358675,-0.13707336094667405
3.446882956,0.8435141551129455,0.9243076377003238,3.6548373687276774,6.894468751390432,0.3269492368699488,-0.14232212535734243
3.486814368,0.9791358721093983,1.0095773349202755,3.615306408064418,6.811818390800851,0.3060588601580176,-0.14610228431649785
3.526813387,1.087671615389398,1.1145270104108103,3.5492130309837804,6.735924865213098,0.2869518167397356,-0.14832463458565584
3.56682004,1.2204650491543352,1.1577941061779982,3.4698780227000143,6.650059748247749,0.28533157536177495,-0.15025056798507544
3.606810164,1.3416858180351083,1.2026123721736834,3.4475005639148355,6.580428325537882,0.2896424249191067,-0.1515616407245525
3.646807718,1.489927984347214,1.224083226145308,3.3795033939041677,6.500472373032283,0.26842907564524543,-0.15509419754162165
3.686832013,1.5918021317793722,1.2562353750007413,3.328978714897634,6.408327317822418,0.2625154972662102,-0.15614276211913128
3.726810322,1.7443905294042645,1.2780663828268866,3.2841441264519005,6.338354866781511,0.26677776131832687,-0.15893757455120877
3.7668137120000003,1.8635916267311388,1.2957250960896936,3.2175618253439087,6.273605129646514,0.28007126582934627,-0.1625457946329167
3.80681989,1.9899415696709402,1.2970743254755561,3.164464022010883,6.177824980861035,0.2672627847665147,-0.16854011221382942
3.846883048,2.1085468980996445,1.2785273023670407,3.130213651810179,6.080619048704903,0.26112647472107203,-0.17594060364519284
3.88686905,2.25024505368419,1.2624700187153834,3.0977638797019447,6.015442197540558,0.26910653179220534,-0.1839698708175689
3.926809773,2.354812049208802,1.2120627094662781,3.0425668058440594,5.916735982193464,0.2841419217622247,-0.19053871382291543
3.966811972,2.4625886634448664,1.1842366700275364,2.986250359037627,5.857100203854167,0.2814629789771943,-0.19819641946897779
4.006814064,2.5655547250751503,1.1041262996789618,2.956392465228137,5.7433778579006445,0.2902512245281038,-0.20638632065628826
4.046891728,2.665899982194315,1.0471402617940042,2.9220627463119486,5.648852149050813,0.31907220521663576,-0.21329383992604126
4.08682104,2.762745260834799,0.9797140405561622,2.8708281406910174,5.572080772360573,0.34558145765234966,-0.218073814221703
4.126809772,2.849249461659838,0.8923338799936043,2.8683860866933117,5.484777226133399,0.3611770930901086,-0.22266371794475276
4.166810041,2.9195773472962543,0.7937937895904822,2.8567969664633073,5.370383477530978,0.3864328404983724,-0.22800354452851393
4.206848046,3.000658855417996,0.7039978291680138,2.899968162364259,5.28305875576596,0.43363628041919317,-0.2323404725113976
4.246882024,3.049246281558063,0.6113950834943724,2.8717697711915124,5.199075181458603,0.44888172419280786,-0.23793710044302926
4.2868313780000005,3.1155375924376836,0.514068539335933,2.920979332641672,5.081625916058759,0.47142743064921916,-0.23869652831786226
4.326810831,3.1393909140584104,0.3970170703994753,2.953638931264935,4.996403584711354,0.4901542533759648,-0.23864800232542205
4.366812077,3.1594696327493037,0.2960749093569545,2.918288719303924,4.896484746857367,0.518775565208242,-0.23215815424968628
4.406812104,3.1827836805963154,0.16912945494390866,2.991289758399679,4.795026829992412,0.5125766555616605,-0.23117175043494326
4.446835173,3.178685007936582,0.05083527178287468,3.029462780008066,4.7137280560345864,0.5110383815170761,-0.23046431388990146
4.48681958,3.1800407807354456,-0.051977444120872705,3.0579372287122126,4.6376124513180335,0.5449548744723336,-0.2282748388973401
4.526815307,3.1782710202321836,-0.20954391359634245,3.0775479286748038,4.517429388016807,0.5315269177997926,-0.22722526338298552
4.566813131,3.1381550418841138,-0.31348223323156954,3.0865816627680385,4.428694022482537,0.5251134457188829,-0.22586908900961356
4.606814898,3.0939475662763654,-0.43408059646874025,3.127979896077651,4.350450764198149,0.5281521733024422,-0.22418749705432794
4.646830208,3.0467352409258637,-0.5445772724757317,3.154311752320961,4.257568435766315,0.5506393612083985,-0.22244583273646198
4.686814279,3.0018208539903406,-0.6418170625494641,3.16588830296528,4.184916555865759,0.5339601537135217,-0.21810996650290465
4.726813637,2.9316910144998314,-0.7582633962556414,3.1851207568933932,4.074969598465134,0.5186583154096311,-0.21724727701083027
4.766839057,2.837774722218346,-0.8613647495615498,3.198977129287276,3.9901830945816728,0.5275455189057363,-0.21655708784058436
4.806813168,2.763143487777985,-0.9879734187260306,3.213526578750956,3.9094067213340478,0.5267720010610165,-0.2162887314053973
4.846874551,2.6759504694180043,-1.0414683401010043,3.2339475040301573,3.815149159454622,0.5105376497845808,-0.21209803428225785
4.886816264,2.5519419810620985,-1.1256640164094116,3.2304600516501925,3.7047719321760666,0.49946331569330243,-0.20797382295756267
4.926868502,2.4667805441408728,-1.1962007712529354,3.224951626023552,3.621542057235561,0.5092141218035076,-0.20422688218655677
4.966862275,2.335499226499876,-1.234957929436066,3.2287617685601973,3.5370666184245416,0.4867108436781137,-0.1987331334904945
5.006813362,2.2251317090935414,-1.3118287263671549,3.2789264241718623,3.4602093598089403,0.4689329657394028,-0.1972523688721244
5.046822691,2.096265342662817,-1.3418228449960194,3.275959183129495,3.358866204982259,0.4683462581058293,-0.19772360196213878
5.086817412,1.9780242082279351,-1.3734314666314142,3.2376090148198164,3.2703400318670033,0.47347989088662534,-0.19685632709407988
5.126807935,1.8321956713753842,-1.3765235604108783,3.2335754811511386,3.196576235508893,0.4284061499972583,-0.1891419011109298
5.166876148,1.6918414289447108,-1.35907960426738,3.2047541646372997,3.109185056767331,0.4049185216193178,-0.19227123393827897
5.206812163,1.597983677721903,-1.3762117184932046,3.1740244980323458,3.014080301790015,0.4023128246731717,-0.19343349727135287
5.246864615,1.4635203484169068,-1.3723744282623103,3.163486822173579,2.921477343657556,0.4074982451639369,-0.19766815437859825
5.286833805,1.330233278872145,-1.3332935061937483,3.16804190318778,2.8440656932372206,0.3735459768884055,-0.19568083715273812
5.326814606,1.2186900789587762,-1.306879859615965,3.1185775752531417,2.7404621699739327,0.3637610353249825,-0.19708429911997355
5.366861059,1.1007421515606026,-1.2442454988900042,3.0844758644757015,2.6479534038696153,0.3661870704027936,-0.20008004226074036
5.406854336,0.98584728679526,-1.1860650057979962,3.036615335781752,2.577841836351299,0.3576115796962295,-0.2042419267305333
5.44679737,0.9082243971768057,-1.1274952344404066,3.029376818126344,2.471669166904634,0.3543853337077135,-0.2063756732396396
5.48681252,0.789804604320687,-1.0628238914157035,2.9878352931098737,2.3937544253239174,0.36525924824268596,-0.2085478777689419
5.5268478000000005,0.7238965175340959,-0.9524313062585137,2.9883058867251377,2.294566268245063,0.38201352723429527,-0.21079343495379171
5.566818835,0.6334133981860305,-0.8700466402724601,3.00915478964999,2.2025793979698682,0.4380362193064493,-0.18795931371915703
5.606812454,0.5590382666986496,-0.7662358470946152,3.062612696423197,2.140139260049797,0.4849522364205079,-0.15338446613716875
5.6468599919999996,0.4994172285013222,-0.6741990120259528,3.1057618066158823,2.096671314635507,0.5274679077423416,-0.1191945846506424
5.686813887,0.42509080899291124,-0.568421386988287,3.1819634799380947,2.033533539617073,0.5674491722138421,-0.08566394744207267
5.7268463910000005,0.3850828231638652,-0.43540499853326925,3.253173120660182,1.9851884829923074,0.5458648930254515,-0.054764429682319406
5.766818367,0.3071818082206595,-0.3277775435091873,3.3878045489045525,1.9853106785403296,0.5476555200350255,-0.015823603509727554
5.806809671,0.26466552770831675,-0.18517463865222605,3.4420704282473706,1.9959794566629379,0.5540364727159666,0.019253373589593007
5.84681347,0.21523113215072806,-0.07679681560490396,3.5172318749822087,1.9872055794810766,0.5240030123884007,0.04627653438530533
5.886820063,0.14440980940324227,0.04283108863070746,3.5450130784000513,2.0222157489831143,0.48104053014823506,0.07082474206716537
5.926825967,0.08530271010983057,0.1777931664668463,3.591516992675081,2.0426111789323764,0.451627409963515,0.09113183649552638
5.966830642,0.0067803578480120745,0.30556272596362044,3.6242781935371067,2.075564594017448,0.43216374402850294,0.10987382532442615
6.006836074,-0.06763136734030535,0.4226970172822023,3.643447491991573,2.122999642636673,0.386719314477261,0.12311302909203432
6.046836848,-0.13613412215715154,0.5504640442268881,3.6341486158709064,2.1876640910455394,0.350388065705444,0.13846746904842677
6.086814779,-0.22632521458380325,0.6678163221007337,3.6166537681862554,2.2503668251848326,0.33101635518091277,0.15176430265875043
6.1268117029999996,-0.33978180726692847,0.785185247954361,3.617616319845591,2.2976877060170326,0.3263235979066672,0.16216276924422107
6.166812287,-0.4122309023416284,0.8925086197275199,3.5996673019292604,2.3762660590112885,0.30693173398499246,0.16416175739228045
6.206814496,-0.5236507960120438,0.9764241493096888,3.5262335269197727,2.473006390708832,0.28517231763231904,0.1733994023857663
6.246810997,-0.6350219456182529,1.0724241087287456,3.536387918035762,2.547373897604944,0.28572139471515806,0.18143494363948454
6.286819172,-0.7522625377158054,1.1452892758228417,3.4741566452337214,2.6442463136133725,0.3001599881543359,0.18881910048917397
6.3268147070000005,-0.8793531335113365,1.216047474439123,3.4647249324630867,2.7299787591794877,0.301839694915658,0.18996248560133647
