time (sec),x position (m),y position (m),forward velocity (m/s),"heading angle (rad), from x-axis, positive is CCW",throttle (unitless; -1 to 1),steering angle (unitless; -1 to 1)
0.128514306,0.015882529125595554,0.38050669670898335,0.0028234931798775884,1.6801123381898846,0.12002676229218298,0.14323412461067575
0.16850868700000002,0.016180603607453485,0.37973765161467987,-0.006309088821336172,1.6830364246435756,0.48946344267660474,0.15407249298944561
0.208518323,0.004119679289007626,0.3828025830181536,0.0022494652107866112,1.6991465296086121,0.75,0.1551554758101064
0.248504673,0.027910114449052947,0.3910388819233986,0.22644262545005095,1.6842783326036284,0.75,0.15558300697173466
0.288504505,0.021943105111530227,0.4243426074666806,0.549763424080415,1.6826969926731274,0.75,0.1690532231634847
0.32851162500000003,-0.004328835947301006,0.4266725128271057,0.9150118679581509,1.7305851292843326,0.75,0.1981287396762746
0.36856004200000003,0.001870282899344997,0.4795576729512779,1.2871573862669805,1.7613316186216927,0.75,0.22812431237151784
0.40852558400000005,-0.03226584759314674,0.5404326381967859,1.6177597678390656,1.8164211701247697,0.75,0.25544193736530957
0.448530282,-0.037831374577360466,0.6202999102915095,1.9602095084939137,1.892907664007085,0.75,0.26381853810733047
0.48861426900000005,-0.07872242261628204,0.679522407399401,2.2490300650996553,1.9772163091679267,0.75,0.2761959661175718
0.528505275,-0.12517649153407862,0.7620418722946026,2.5017118869638515,2.0982890229433875,0.75,0.28162867147999476
0.568573709,-0.19185080238860217,0.8464374322028306,2.6802902146900496,2.203623864698336,0.75,0.28201310719200573
0.6085054010000001,-0.28273978965509655,0.9569485483934,2.9257120901115248,2.3288885908058283,0.6694156821575079,0.2663774649946982
0.648513836,-0.357933492733245,1.0130573275070727,3.001247055369075,2.3999927545695665,0.5845235089536635,0.25905509252727016
0.688505883,-0.45116378425957937,1.111286727348476,3.0384968790499367,2.5071067599589676,0.5266658393792164,0.24869000060957286
0.7285218050000001,-0.5440565038127975,1.1768128414157235,3.0737990820270475,2.6088117502098713,0.45275652167049907,0.23152363504508428
0.768582525,-0.6774690059604906,1.2346151018669937,3.090068474296243,2.700071002336856,0.4342380950667394,0.23304625432179019
0.8085185290000001,-0.7659955056113928,1.2823918147048246,3.1003200919847584,2.790220579885653,0.4293764783510921,0.22827404763044878
0.848503509,-0.873702553441502,1.3217466606236534,3.1071781444275395,2.8852209804531186,0.42879033604399824,0.22397221752673885
0.8884990880000001,-1.019109152802922,1.3495934104404341,3.142491229196277,3.01198632716427,0.41062279620650727,0.2088020258114546
0.9285303650000001,-1.1318664803275316,1.3673373477006279,3.1169099660185458,3.071838366019265,0.4050531344247476,0.2145415236160644
0.9685244580000001,-1.2587506957204422,1.3643413028382958,3.102862552881393,3.172445750118495,0.4066234093473531,0.21287497188556853
1.008517263,-1.3917840597432543,1.3690065926105506,3.1464990812696834,3.2601916834216556,0.40751088668203217,0.20455200926743713
1.048506277,-1.504316754463044,1.3290910923298787,3.1401791869618654,3.364625748354662,0.39794234158083513,0.21074441557349902
1.088513366,-1.6312961705539728,1.3157939086823982,3.144197350625972,3.462269334264909,0.39453116252448067,0.20958333340892676
1.128507066,-1.7558527371547545,1.2942680631077579,3.1280029336393045,3.5170776214110715,0.3961437790845676,0.20988790238942484
1.168503753,-1.8669082779742987,1.2026978884122577,3.1402818392701164,3.6507326563144122,0.387277599450328,0.20528330113689788
1.208514577,-1.9583343709124634,1.1632886275959584,3.1356192126993876,3.733779363777081,0.3700878183399091,0.1976784594187219
1.2485924210000001,-2.0734495083693094,1.0977889035150912,3.090637769080066,3.8388178970071243,0.36853317706764493,0.20443687354358914
1.288510547,-2.1619511546145036,1.0157400695037808,3.103200727697253,3.910573286744327,0.3786695133187611,0.20386746765578906
1.328503801,-2.2578971621978026,0.9085421396539147,3.1061979852398607,4.013347763360924,0.3698243279764249,0.1983780801527918
1.368502603,-2.340239014403996,0.8163964271091187,3.100442820657962,4.105537201547309,0.3653766075487922,0.1988248742620395
1.408514892,-2.40081408071296,0.7341524067301142,3.1092219378924866,4.16709498258728,0.3624863539049885,0.20247714024710967
1.4485049380000001,-2.4788849858294575,0.6210282021722864,3.1074066185710865,4.275901804334963,0.3659818422290909,0.202554361546601
1.488500425,-2.507358375745668,0.5077832265845119,3.099405768623531,4.36338238875392,0.35405058571569054,0.21047231585503434
1.528495742,-2.554866694986956,0.3667951605002384,3.0651549621094736,4.473443347064527,0.33406352024776054,0.21297068349450526
1.5686121590000002,-2.5721595677514455,0.24601571812113976,3.0617864856327777,4.559928910732594,0.3395521201205114,0.21457925979841788
1.608517529,-2.6114906901600015,0.14113875268968276,3.085991116394956,4.618655567909201,0.36239724088467173,0.2165086328585181
1.648525506,-2.5918899362798533,0.02506673282143526,3.0383326481098116,4.71085453845234,0.3297647748705041,0.21104575889573157
1.688550641,-2.614390838033115,-0.09659683478819288,3.019485853385936,4.841099524671823,0.3330400768034978,0.213030887225208
1.72851068,-2.5924233423056804,-0.24957032937565812,3.050262698626295,4.944100754946638,0.3529630523155757,0.22258249856070894
1.7685167270000002,-2.567380101825093,-0.33304900726823966,3.0284763657985563,5.003774920643247,0.35110989861465886,0.21870636040353408
1.808508656,-2.517158291130656,-0.43088607625761943,2.9789773164075535,5.120967718984005,0.35143795943176004,0.22362227907781004
1.848509768,-2.482021392246191,-0.5549602444487084,2.9919668380565523,5.19772260351535,0.35730303194790364,0.22202091189211726
1.888507559,-2.4198433007595503,-0.6621033231627154,2.975084314643648,5.305319684333155,0.3943771497273859,0.23384587569159573
1.9285156200000002,-2.359620892857106,-0.7729107883939144,2.9951243183956104,5.394746035740154,0.38755521717318964,0.23534954214348042
1.968503353,-2.2451807799610597,-0.8667896011826096,2.9813719587543157,5.523256814142968,0.39469152042849875,0.23497045109660186
2.008523131,-2.1769609699658714,-0.9280031998844476,2.985149879210224,5.607110709234135,0.418367793351238,0.23333446503773753
2.04851227,-2.082585675944389,-1.0227882616416994,2.997016044610092,5.698735693656743,0.42233749158666256,0.22868665240987313
2.088509539,-1.9877612086392393,-1.0791369536019562,2.9876161114993973,5.790882652346134,0.4204515016635055,0.223213968103409
2.128511164,-1.8864564926524332,-1.1069815725574874,3.0314249775752917,5.87701231231912,0.43534713864451857,0.23226628354436846
2.16851014,-1.7468976869731272,-1.16939581062766,3.0620852049148257,5.983937716111293,0.45524417872750317,0.2334664734384512
2.208517182,-1.6500826166869966,-1.2124816222771413,3.067288330121125,6.074249897315389,0.45472613401881395,0.22005031509956757
2.248502813,-1.5264439424830796,-1.2368941225232504,3.071513415307118,6.147346066924554,0.43400187258802614,0.22219330958169486
2.288499833,-1.378866719669706,-1.2431094940821716,3.106667475163139,6.302674011387173,0.43641155591173836,0.22397967602518315
2.32850814,-1.2724770251706141,-1.2528227460038646,3.1084507688719656,6.350921976441499,0.4573720376743429,0.22456091600428932
2.368504736,-1.153327775411323,-1.266910397825364,3.1214781097681112,6.454115755951326,0.43545182121528014,0.21614583050306732
2.408518737,-1.0483804125295502,-1.233162041870924,3.1066901840665206,6.543983092207335,0.4191023291349168,0.20825948829690807
2.44850372,-0.9209797275460714,-1.18875335425304,3.1189937662184857,6.6188599219442565,0.4208699999257343,0.21537480192094208
2.488509531,-0.7714927337892357,-1.153162503987121,3.120653032292971,6.71427155623329,0.441938222888215,0.21395469738057477
2.528516733,-0.6763788948916096,-1.0895970086639002,3.16574132312987,6.805299930330852,0.42237559436954925,0.19923792021387798
2.568507494,-0.5702508902431077,-1.0417049337266473,3.158441768502312,6.897475557623399,0.4032898624466705,0.20219466415962312
2.6085147280000003,-0.46523916274293586,-0.95708617361357,3.159666086682292,6.972607865626059,0.4019912746167591,0.20576275169318764
2.648580924,-0.34757226068687935,-0.8420392773380324,3.1482690037923384,7.090441301722407,0.4101147167387781,0.20915532778315668
2.688503442,-0.2866638076723978,-0.7761819476926558,3.1525447833334073,7.139995954296787,0.3956517648014505,0.2004763137863258
2.728510855,-0.17793729894383215,-0.6614597275853659,3.153985523407276,7.256013081312585,0.3988400635054977,0.192231884897884
2.768545366,-0.1056217111278255,-0.5547399577102515,3.153843487104606,7.335045682280836,0.39931766437128957,0.17643702921418808
2.808535893,-0.07229635045006712,-0.45900017075900434,3.15320420168448,7.40490382755117,0.4137080530865338,0.16372519901447147
2.848503268,-0.0004489749797051976,-0.33391089508959604,3.1978151767748737,7.501194007898594,0.42020408170778784,0.10347925176063873
2.888514104,0.020402093641097494,-0.22839158258512668,3.2052032388290854,7.525784673358822,0.4494781661508816,0.05126060215400976
2.92850953,0.06877099516846014,-0.09898219908191054,3.2621670543485703,7.553231307051307,0.48941791698330006,0.006964746220969116
2.968597781,0.11186330386022668,0.022253185940469038,3.3198527206407635,7.551525143836376,0.46095325092106804,-0.03117844966058779
3.008520373,0.16174159720431153,0.157464594139011,3.3471582884427074,7.5101574292362905,0.4542955210985389,-0.06973145315439236
3.048503232,0.19499640630894222,0.27326818839298056,3.4079940492770318,7.464428854427029,0.44481148077746513,-0.1021329199840983
3.088506568,0.2592057624964588,0.3891483670124882,3.4211356023917032,7.4160584994678045,0.4409861684974555,-0.1262088583796283
3.128522684,0.3204043056529535,0.5261195825523525,3.43070870828062,7.367498664324857,0.40239136180514745,-0.13797088459299545
3.168518708,0.37930755172899033,0.6333403537154042,3.4695782494860516,7.283966907526767,0.37263733875525756,-0.15164686212142908
3.208518011,0.4524184911549892,0.7500449700508685,3.440409709499843,7.2206692283818885,0.3618687141095385,-0.15977601826160198
3.248513103,0.5373113546352484,0.8867899640495521,3.4329761474524068,7.103366758201454,0.3613543649662919,-0.16482459953330342
3.288518684,0.6266492520704916,0.9728551022570883,3.3952264706979003,7.037287984538926,0.33823502680395695,-0.168871020748313
3.328521625,0.7303817402221743,1.0598671029025495,3.37632218837114,6.955776477008907,0.33704614981507447,-0.1718325700389153
3.3685065180000002,0.8383875977357511,1.1561336668757594,3.3755927721882304,6.863262661997252,0.34117681710288084,-0.16875768717259942
3.40852711,0.9490592314933358,1.206045456633827,3.360838895299166,6.764086993783233,0.37159381585802975,-0.17529080746819106
3.448519094,1.0555148415412463,1.2661993919036678,3.3481114526404725,6.685856610560436,0.3460039191555877,-0.1727567583037783
3.488601415,1.1846394613039972,1.3306774077655612,3.3282244993641554,6.595961860514053,0.3483830158747055,-0.17416310597594994
3.5285004090000003,1.3033355346647997,1.3780274831855974,3.28399298150156,6.509687143570213,0.3676257465007144,-0.17414537598395824
3.5685623040000003,1.4784493375289454,1.4077231313277092,3.2921480590379564,6.401835101381467,0.36132380327722313,-0.1699887888235039
3.6085137449999998,1.572232064560691,1.439570601294876,3.2878063669332285,6.326244760962946,0.3556416654376973,-0.17247543420120015
3.648507919,1.7112654331133645,1.416075984291996,3.246132230713704,6.254076548159659,0.3685998525918941,-0.17614145383445073
3.6885201800000003,1.829893960321494,1.4241804505741802,3.2188325351996068,6.166187415512869,0.37897946003704214,-0.17195463772359845
3.728500092,1.9971799102002101,1.3960439087006427,3.245040058463297,6.04664867966444,0.36710767399678573,-0.175880094953138
3.768502475,2.0910523172790447,1.38789885615177,3.253124292743118,5.990987661185095,0.36831886609014747,-0.1797393222258992
3.808511578,2.214744954188666,1.3511939931709738,3.2399683982529344,5.903961487379827,0.3727946586220459,-0.18291339438979617
3.848503168,2.3588667094986064,1.3027910209788727,3.2260696347457594,5.828519310054379,0.3701117027462035,-0.18146489746778302
3.888511527,2.436912126599822,1.228900568153185,3.1965710340504163,5.738910030336355,0.3626533429587831,-0.18977929428948423
3.928564561,2.554148999727359,1.1531222942515775,3.23380468462052,5.636584588549349,0.3670102119402367,-0.19133085621048326
3.968505129,2.649784776102932,1.070277040307917,3.178019849091536,5.538681479027327,0.38564606644434263,-0.1938795914281361
4.008511025,2.747406073703658,1.0033302459635387,3.2219091332225553,5.4874299623814125,0.37964822742119625,-0.19373951318176214
4.048510424,2.8346605706372494,0.8893041527067161,3.2364933533764724,5.355415698200333,0.3722974158147068,-0.19497911745841148
4.088513615,2.9033993225926653,0.8115850849084364,3.204752998272325,5.299980526021142,0.3968018847797291,-0.1962798848760432
4.1285102,2.981412302340808,0.7020573325841706,3.211902915945725,5.180504972695849,0.39969482200117146,-0.19800371126493369
4.168513338,3.012632566856734,0.5776355881461013,3.19181257228322,5.109983852185011,0.3801458264194347,-0.19399527800019617
4.208503447,3.0861056394645283,0.4327825684682017,3.2028046684688083,4.981901503647673,0.38589987800250647,-0.1977161710721216
4.248503054,3.1217690576523895,0.29545515220259433,3.1536367658439746,4.872563522387776,0.39688908406483864,-0.20050544207645885
4.288631178,3.1377641745572262,0.21351591636815445,3.175448407976069,4.790674610243281,0.40173771671944114,-0.20488979751112243
4.3285058880000005,3.1383501799459252,0.0748376774256281,3.1861394245511514,4.708273885594326,0.39217874364351674,-0.19477522149016088
4.368504657,3.1380166108332155,-0.06412426005924543,3.1675495918924357,4.629965771374395,0.416615568782343,-0.19176238575516957
4.408511046,3.132881896067618,-0.18399437489785916,3.2095650742403725,4.525923595558111,0.42160461470938343,-0.19656515797438848
4.448503388,3.1235976042233933,-0.2986258644901566,3.1890497943852507,4.437135494070288,0.4520765600686085,-0.1937837672391916
4.4885092570000005,3.0798559879122553,-0.4139175541672492,3.186442306850151,4.337802060216573,0.42641697189480027,-0.19139487600197425
4.528511742,3.0323128967324857,-0.577167381738305,3.193738054593186,4.250824426371224,0.43550965770814004,-0.19489419535846966
4.568519331,2.9703949870095667,-0.6648391284505828,3.2262461949679464,4.187646300252086,0.45598004831628486,-0.19826093568059158
4.608522568,2.902245097162617,-0.7703572447072691,3.1913804853678633,4.071784559035714,0.4377528317199797,-0.19481348959277178
4.648524136,2.8190936740469366,-0.8983149562149991,3.2415057780349836,3.988027939688759,0.42861439223752706,-0.18772056089288602
4.688507552,2.7330272899913735,-0.9761013837232498,3.224937047142971,3.910078920398887,0.4352809654927335,-0.194339133641462
4.728509798,2.6522238113134704,-1.0631257351779042,3.263991255059026,3.7987889259202503,0.46627277224801494,-0.19173013507719128
4.768503521,2.5362392788270247,-1.1479712253818466,3.2565085924380113,3.730099272269445,0.4226701696664028,-0.18037394426648767
4.808517515,2.4359100778389786,-1.205111876675981,3.271192220950285,3.626803687570614,0.4295682056331601,-0.18557047203629243
4.848520581,2.323755913908117,-1.27385395835762,3.2710102337245477,3.544214795549179,0.44291255070728647,-0.18434521920147195
4.888504183,2.2018279764405935,-1.32085502158856,3.309977743225001,3.4477602912013867,0.4270533926952987,-0.18195030299212886
4.928515452,2.0701497492363328,-1.3617635189156292,3.2777830371624597,3.3446849036217037,0.4112342203228483,-0.18076549388453025
4.968523544,1.950112151742252,-1.3846947670143175,3.2886556651016217,3.2856183310252907,0.41604530817521085,-0.17917923073748715
5.008504333,1.7864872309681037,-1.3924974951373699,3.2872057592933945,3.1669788945739725,0.4161682523741334,-0.1799661828918503
5.048504481,1.6975894152121047,-1.4188450710804532,3.3072302006668397,3.0919257724159546,0.3975722086200073,-0.1778021616629426
5.088509176,1.5502565562583084,-1.4097272845977924,3.2630004887384803,3.0188172975547016,0.3851714236087653,-0.17637253399335057
5.128515216,1.4191446825579843,-1.3817926174925965,3.286335092614585,2.9429992402738088,0.38536390541784155,-0.17007243984328732
5.168529016,1.2870999939732752,-1.347928740696628,3.2397801391554943,2.8371263698073936,0.2578429044813498,-0.19762011487262912
5.208525401,1.1611488564123584,-1.3131964955378428,3.179295246223339,2.7429090998548005,0.17570325525386118,-0.21765044824311597
5.248509181,1.0555425090681454,-1.273419101672265,3.0976055469021517,2.6318045730158426,0.12109036750117418,-0.2441378545273221
5.288578283,0.9393873823450587,-1.2213339342425527,3.0306784554727924,2.52267384429951,0.11638091814949933,-0.2732710729982229
5.328509707,0.860749795289921,-1.1664281324207262,2.9356101268845416,2.3888467609597615,0.2579037414199555,-0.22488873199890974
5.368499849,0.7317515774168059,-1.03364885551844,2.961381557862218,2.2932144455579917,0.33866155072408893,-0.20042988788858884
5.408521757,0.7007777753316718,-0.9946981195057817,2.978881043180828,2.1965993485668993,0.4195650510161351,-0.17234227547127148
5.448522402,0.6065737899288478,-0.8689496328950379,3.003911045643344,2.1079716353069284,0.4606551381582404,-0.15575997122406404
5.488594092,0.551890239408011,-0.790982751364043,3.0618563193007504,2.0739883835603,0.46792986259810165,-0.12281610001708557
5.528499051,0.45999671450258006,-0.6394156863269786,3.090962119142846,1.9915143171805318,0.48692091565584095,-0.10960048259521364
5.568582177,0.43625756018554035,-0.5591339645755473,3.1750102904728124,1.9754318983163015,0.4841977311418834,-0.08783475475515602
5.608500798,0.38300330085456813,-0.4007260656992121,3.2399104009517625,1.9189357545282695,0.4801084825833658,-0.06307274651776341
5.648502668,0.33615548015731594,-0.2842733629725146,3.3453461064697505,1.894113324984955,0.4785130048686538,-0.017163202877829145
5.688508738,0.28305543075545914,-0.1963320369743564,3.419783987104703,1.9017629238784126,0.4819480139194166,0.01685262072393106
5.7285283830000004,0.2347309397843889,-0.05316730533632154,3.4921445010385703,1.8843836022473883,0.46285598352262225,0.051592877979892586
5.768506115,0.20022945093252317,0.07961312352347033,3.542834005238207,1.9156511690361335,0.41815721018721824,0.07940184499517335
5.808511075,0.14748666297301255,0.2002441479797145,3.5790408928024546,1.9572078049819823,0.40865454354366737,0.10152854235275857
5.848502183,0.09224571073198093,0.3460749564308501,3.6262028349492974,2.0082580475924923,0.38651275416102043,0.12027818236369764
5.888598103,0.015796724521042717,0.4650685970134102,3.628858280676651,2.0659202090511717,0.3472903790693469,0.1315349744602943
5.928515234,-0.061102605095941766,0.6146471348420036,3.649256789844013,2.1101006094263948,0.3145072151476264,0.14561051015311907
5.968557813,-0.1092470635835392,0.7245998113619186,3.6666722832337557,2.1785143595366843,0.3009305908814269,0.15881871906510522
6.00850436,-0.21592882037128763,0.8356597263492839,3.6104268137386692,2.2446107504552124,0.29101463091532764,0.1700125861434289
6.048503186,-0.29479746015132513,0.949034178711322,3.576450474703704,2.357048723546776,0.25449328161360557,0.17178945446780686
6.08850855,-0.4164965387537011,1.0527200359753213,3.549580784147978,2.4389511141483413,0.24870638014699584,0.18167527093018682
6.128504732,-0.5333544760898418,1.1402157033545655,3.504189183999604,2.5321100370685925,0.2553270185537812,0.1831907515242044
6.1685031200000005,-0.635841092887284,1.225179729707668,3.4457819574331046,2.6415718694030668,0.2667312805489079,0.18208615414264578
6.208510059,-0.7392603362239852,1.2976427855354449,3.3903589769287494,2.740881764750284,0.26797091503415527,0.17868176234636415
6.24850392,-0.8525655421221121,1.367533156416729,3.3253240138879363,2.830879234237754,0.2803326851371893,0.17552096451970436
6.288504594,-0.9817613290774818,1.3939408349372215,3.2781363405425723,2.919741432256643,0.3113706555247413,0.17185899313189473
