time (sec),x position (m),y position (m),forward velocity (m/s),"heading angle (rad), from x-axis, positive is CCW",throttle (unitless; -1 to 1),steering angle (unitless; -1 to 1)
0.132221105,0.18471278089602622,0.19338283553622237,-0.005079626926031355,1.5145287971002288,0.1375716961739857,-0.023260358295963988
0.172213953,0.19245570235393084,0.16964009710339506,-0.0010900817690545272,1.5161850357020041,0.48517534925457073,-0.1034986782286699
0.21221214700000002,0.16271075024471288,0.1806379917528431,0.016102035062857886,1.5096997296987638,0.75,-0.11672440739134023
0.25223423500000003,0.16847748269870236,0.1737107409695165,0.000658952193564882,1.5195227963641773,0.75,-0.1221402381241095
0.29224440100000004,0.1827697923108868,0.20279406635906236,0.003269660505865503,1.5237835832367468,0.75,-0.14340162732508535
0.33222353600000004,0.15879835003296028,0.19575564747937949,0.020783533636816363,1.5053350137896016,0.75,-0.17582934779359424
0.37221680100000004,0.17187968337700296,0.198097910017341,0.3784036943001741,1.5234301442526812,0.75,-0.2082136041512224
0.41228450600000005,0.17958929661950235,0.20769070982248317,0.6578282791375577,1.470496295843029,0.75,-0.24010340611890357
0.452229535,0.18207889115342774,0.24502198410344692,1.0840702288793236,1.4229705281184573,0.75,-0.26098057567557204
0.49225986400000005,0.19087736298611532,0.29103796140061733,1.3590533572212968,1.3486581398513504,0.75,-0.2899395572436917
0.532215834,0.238579097756599,0.3469346371685461,1.6250945186472951,1.2623461737723003,0.75,-0.3116353994890933
0.572213855,0.27661839609876576,0.41824545488851395,1.9225472341221903,1.1611535288736057,0.75,-0.3228889731245859
0.612223898,0.3012263791315878,0.4856037858765259,2.1571049669872355,1.0655040909710969,0.75,-0.3272143768385676
0.652228334,0.3671857446075574,0.5606917289988037,2.391819950455301,0.9653201416512497,0.75,-0.3286251728924653
0.6922156220000001,0.42377692962812263,0.6421835353692128,2.5385345418577843,0.8474081021317058,0.7194615517307137,-0.32616920525820403
0.732214421,0.5005012368700039,0.7256210908478873,2.65108053235004,0.7437528108415716,0.6337613909555002,-0.3187174618097832
0.7722191420000001,0.5616562086345571,0.780613004726499,2.6931374001031467,0.6330292250266617,0.5392184902358157,-0.31392960797244857
0.8122505980000001,0.6548803768580387,0.8575911537679073,2.7272791568915924,0.5169760415464713,0.48999984883383724,-0.30695796442783707
0.852215209,0.7504434647906207,0.8764574902774782,2.7265382968873406,0.4049784092866958,0.4702143030242571,-0.3000353902305789
0.892275557,0.8758386183489101,0.9456219833234142,2.7163131643528975,0.3170541566857855,0.4323389672292415,-0.28925443179295907
0.932215479,0.9651321787228843,0.9563933103855211,2.712018303122674,0.2003761447815336,0.41617548912857144,-0.2827653819554308
0.97224551,1.0758217284299683,0.970738408385556,2.706434278997973,0.09904527981396291,0.4193901291158001,-0.27658436261707364
1.012275874,1.198121104442428,0.9695470978895295,2.7042361113465425,-0.02424090554103811,0.4196082361530023,-0.26459323910329596
1.052219083,1.3077658439530078,0.9608825399296312,2.710231433349965,-0.13279400335367572,0.40698207735357894,-0.2575779716274115
1.092208252,1.3972930426265866,0.94414364612451,2.7010090036764254,-0.22950611954089806,0.4087708980725602,-0.25285066594585165
1.132221046,1.5154412340019616,0.9028171213536992,2.7050613491941147,-0.34403841559320675,0.4227044119670413,-0.24819194540568693
1.172258378,1.5917532926147315,0.8775943277525763,2.703523629834942,-0.4545493086855469,0.3977993690014973,-0.24320253583213589
1.212212748,1.710993634177626,0.7928591815947399,2.6952559057956837,-0.5493335027133514,0.38640729679006536,-0.23823856884753
1.252232201,1.7878534470459768,0.7576025514573429,2.6789498392947735,-0.6293378268438292,0.3943149830120928,-0.23492310926870166
1.292255909,1.8429976981302951,0.6792214284612098,2.7244688565993456,-0.7422331297255195,0.3861699989689571,-0.22458138084081186
1.332211641,1.9387493713580302,0.6024724192176836,2.686649065087906,-0.8314391184074663,0.37377676298688417,-0.22401122546517946
1.372269122,2.009279558193849,0.547621600655395,2.6973097258592316,-0.925045716603636,0.37357658686793027,-0.22453559383158292
1.4122876450000001,2.0545247657460237,0.4287879069444829,2.6907270815293245,-1.0367139583285754,0.3720265362581423,-0.22387677103900452
1.452207244,2.106096202117491,0.3354350495367025,2.7054121712122643,-1.1116914691197233,0.3581820891787266,-0.21412480153724037
1.492265876,2.1483419964217134,0.24621139938362496,2.675184156509923,-1.1954727802214227,0.34471740502430903,-0.21531664364645178
1.532211562,2.181484990315027,0.14969546222549354,2.6618555732681037,-1.2915442089721432,0.34338542895269664,-0.21675234851833552
1.572282066,2.2220697646355343,0.04550914647230203,2.64798243646145,-1.4348703030544478,0.34516527041872797,-0.21484493869731874
1.612259598,2.226170417284,-0.07213623679171963,2.664684997919249,-1.4965549438122987,0.33558209081630497,-0.21530102598959724
1.6522251300000002,2.2336841630428674,-0.1732295599326365,2.635908601854603,-1.5768212796116983,0.3324068684489983,-0.21775676883009892
1.6922307870000002,2.2137634099502708,-0.28983514118778814,2.6128223620074436,-1.689534994699142,0.33882670948404386,-0.21976270212922863
1.732232516,2.206009981238785,-0.4014995617850929,2.602958896950736,-1.766908844720466,0.360550620425084,-0.2217788058192038
1.772213823,2.1740963392439254,-0.4838405876607542,2.583431898040403,-1.8625728211582269,0.331196976498432,-0.21643607256835865
1.812210128,2.13783241026237,-0.5734525888294931,2.601226001307892,-1.9561449339660715,0.3351851561876615,-0.221512946094676
1.85223825,2.080952744024064,-0.6711496790081649,2.5760199991840413,-2.030404822683044,0.34677886820476495,-0.22728298188169027
1.892297594,2.0317063145066974,-0.7500402936149057,2.5613338984672263,-2.138801369255175,0.34384223937456226,-0.22145247607755414
1.932220641,1.979684751657239,-0.8410373711639867,2.5812065592379643,-2.239791409291898,0.3345820070665635,-0.22708226212905203
1.972239943,1.905314855123303,-0.9371115763142003,2.585491757776771,-2.3122752624277005,0.34440702077348856,-0.23078528288082265
2.012253814,1.8467815343220635,-0.9899810694623639,2.57561370170774,-2.405629481698846,0.36172081026158576,-0.23599929361606078
2.052213837,1.7669469693933069,-1.0659543690164872,2.5655429212074665,-2.5019409316791497,0.34674720008138615,-0.2296311729831469
2.092236876,1.6744615305895574,-1.1236136645957033,2.557103885820993,-2.5925845386921127,0.3418925575483387,-0.23490661981265312
2.132212314,1.565971406913462,-1.1563031975715221,2.5549875674206883,-2.6820114301473517,0.3513924298105096,-0.23762021456215351
2.172222736,1.4884540758546165,-1.201463379068945,2.5540780208850924,-2.7796035164696784,0.36236922146099826,-0.22993267603558623
2.212245136,1.3795092783544896,-1.2303325118999107,2.5483966164791796,-2.8849972742267522,0.35423380135056604,-0.23350170800941344
2.252233449,1.2920114160248592,-1.2449998321479503,2.564917361874096,-2.979890389739416,0.35099327722280527,-0.23639460998425751
2.292292348,1.1873012109526517,-1.2592933634788956,2.5490474248924784,-3.072336665102096,0.3732687897725568,-0.24024018449505996
2.3322107340000002,1.097897358727562,-1.2496918214950548,2.589421185877905,-3.1522325426107862,0.3758621469517351,-0.23237047840440758
2.372213424,0.9908550047520673,-1.2422549697493843,2.5969601190266043,-3.2472381686905623,0.3668400458188929,-0.23561401173137728
2.412212396,0.8722733873967219,-1.2397089979211138,2.5921293147116264,-3.361689473930232,0.3745741944977644,-0.23835704147356124
2.452224298,0.7715924532530579,-1.2019200132621186,2.575914758993042,-3.452315468706464,0.38326325271875117,-0.24047637130826285
2.492211547,0.6882336891527806,-1.168996136184495,2.5958251961345393,-3.54757094904943,0.38287683165381314,-0.2300956477606626
2.53222229,0.6017845899455591,-1.1191199452745488,2.591245724757368,-3.6469805367312422,0.3761103564699075,-0.23164814662122407
2.572313711,0.4832451874695614,-1.0634381507595574,2.5987551442387824,-3.752535904749526,0.384608386938858,-0.234022660297314
2.612233551,0.42663734822880883,-0.9781649790760903,2.6013682429535026,-3.8430520000916952,0.40215234739215544,-0.2344344308246858
2.652226284,0.36292877623185227,-0.9210176640907093,2.611196352414226,-3.939618884259663,0.39202172098775523,-0.23200745864168826
2.692207726,0.2768167577857602,-0.8481724319014228,2.630369529924131,-4.0219831139237225,0.3916842174233026,-0.23075638694557163
2.73221338,0.2105265940195465,-0.7564866114381754,2.628872550941548,-4.130579241803865,0.402301376889327,-0.22989475245427854
2.772272531,0.17052481891562088,-0.6782315753821485,2.6695572824393885,-4.206266285557173,0.4285962593570915,-0.2283876085334048
2.812227031,0.11819113030221162,-0.5828915996731779,2.7211020423213066,-4.2923238944187245,0.4213899279699788,-0.17736336985531687
2.852239054,0.06903649429006332,-0.47749199461455955,2.746585884299633,-4.340628454883377,0.4215364774751353,-0.14415900612953975
2.89220601,0.04428786922115799,-0.35099992061548807,2.7498078809762667,-4.416250932511314,0.4244064431010253,-0.10974286991895943
2.932212658,-0.011081587237980334,-0.2646256183397384,2.8273389005926974,-4.443239474228938,0.3992086954700691,-0.06906579566815285
2.972213795,-0.04436913948791893,-0.14496212126539812,2.863886804880419,-4.4521619197572235,0.3803536250273296,-0.015307590829883677
3.012234029,-0.045022401635249926,-0.058707927030426266,2.930026781072822,-4.448734170846029,0.3812599927478902,0.03794296476421555
3.052216847,-0.08650730206706077,0.08213454544539298,2.9593940303043156,-4.462463874336948,0.3707889574856013,0.08407227848226806
3.092207864,-0.11646761704848232,0.18882663635425395,2.9669909555181193,-4.388519646956234,0.3337396614810572,0.12165765416001725
3.132244605,-0.178155447002619,0.3068528142805254,2.9975802903922633,-4.350691507443908,0.31780378093128653,0.14828362255643474
3.172284327,-0.2378383172599582,0.40524940067526366,2.9984666158143147,-4.2984088234477005,0.3180735914078405,0.170338561495333
3.212215507,-0.277877764678501,0.4954270591092299,3.0077427281251574,-4.22406625028513,0.3054230749560268,0.18487564147072644
3.252221849,-0.33191951415910925,0.620857822446398,3.0272398911995335,-4.149386574345341,0.2897932537371684,0.1999314833360643
3.292215489,-0.42069282521565765,0.7195389385183524,2.9756042469697617,-4.064718436675258,0.29012498617217264,0.2125599156409581
3.332212259,-0.49317972911143826,0.816629501137681,2.9697043129632883,-3.977056140648851,0.30529309837536234,0.22272285604298017
3.372265639,-0.5827891491817442,0.8987788364865079,2.9589144843025745,-3.896017449626719,0.2848320197115542,0.22658228355700663
3.412260036,-0.6564047952366052,0.9666011647672628,2.9519354701663585,-3.7967314469577507,0.29192955737191106,0.22807687771863228
3.452229705,-0.7480009059885545,1.0309583548319077,2.9429104495737892,-3.685486195282898,0.3009382562369768,0.2303337767062099
3.492209643,-0.8698561918206051,1.095512144628593,2.9292535639457506,-3.6010740772004253,0.30033681638263987,0.22644737431228135
3.532219334,-0.9837260853515292,1.1489636541232002,2.897985079632435,-3.4973065841875237,0.2973690612214972,0.22656412697224368
3.572282078,-1.0749684562569841,1.1681014560601517,2.881069378763839,-3.394846426781569,0.3051274920996409,0.2259150838268238
3.6122698140000002,-1.1883119341958144,1.2115787024489473,2.8640167588991257,-3.2980270837842847,0.32613979482064004,0.22359996987336558
3.6522166890000003,-1.2967969608056544,1.2011601119295023,2.831303429181002,-3.183943016184662,0.3166282645831089,0.21468018715692738
3.692282082,-1.3972939732890906,1.2078587892862966,2.842967048386271,-3.096297495761147,0.3178201437849235,0.21187998003150044
3.732268613,-1.5398242153641308,1.196626070427501,2.824608638332402,-3.001107428913699,0.3322845717494069,0.20990043941029835
3.772240227,-1.6436140032318816,1.1664331210660066,2.8108085700689545,-2.9036620834793507,0.35487801103479927,0.20816286964923944
3.8122548160000003,-1.7545111119186583,1.1342166541756338,2.812491767995995,-2.810343614320888,0.3318921479818224,0.19751333475117078
3.8522271850000003,-1.840506901416907,1.1208694878504541,2.800759268980295,-2.7165989645977224,0.3374604135027237,0.19818514692185446
3.892205936,-1.944416196521616,1.066716846897087,2.8046463108960964,-2.6460521470665754,0.34977370851904255,0.19936325012702494
3.932212515,-2.0490676116687276,0.9817717853206767,2.811876126623314,-2.55603433616711,0.3453992570746317,0.19236187661761395
3.972212411,-2.139879004351464,0.9363210417043666,2.8290606526441655,-2.490503226893049,0.3366834601992722,0.1950153880512302
4.012214351,-2.2056989848385284,0.8552376129476222,2.855760315830151,-2.3958538280416573,0.3300046044911373,0.19931482523357938
4.052223307,-2.2828448033667748,0.7812238511328153,2.843501401607432,-2.2903942382300104,0.3427158735000131,0.20563932960349973
4.092253403,-2.3664408698267825,0.6901140301641775,2.8402868781497586,-2.237436465870459,0.32581502072414403,0.20153566739813703
4.13222727,-2.4436245302798074,0.5725344705403506,2.855582639523736,-2.134619975112468,0.3137900940672872,0.20787711355887448
4.172316577,-2.4981289766028585,0.4870902046491993,2.8470232191599836,-2.0518977301768326,0.31511675436028425,0.2129332666572884
4.212214647,-2.5449733907806404,0.3888841542432592,2.8661931824747886,-1.9617718724430138,0.33162725912937074,0.2176161082777285
4.252225038,-2.5786727178752744,0.2937291483045303,2.846712897460145,-1.8590563395251376,0.311080256873905,0.21037981071726666
4.2922091,-2.6086809786670457,0.149933379013911,2.8198703521615696,-1.7710233423380928,0.3043113084477843,0.2144962683030699
4.332258983,-2.6282966823549634,0.049918791543122995,2.8324792533627976,-1.6942726011882032,0.3085423949393693,0.21966011257365856
4.372261827,-2.618531352651241,-0.035387254244232044,2.8562108578995384,-1.6073577889561672,0.32852350487026677,0.2244772675582678
4.412250286,-2.6147513397315008,-0.17631908904571267,2.8450867078814874,-1.516097908944771,0.30961884534949996,0.2196316326151935
4.452221494,-2.618337498901646,-0.2730796194007963,2.795930062249036,-1.4014425641059214,0.3050159963443202,0.22400300817099542
4.492207028,-2.5893908538690504,-0.40304776184114777,2.8259298246971993,-1.3180029979983208,0.31333604955010325,0.22621170191128784
4.532212685,-2.548014109806114,-0.495692309047335,2.760883398829441,-1.2011880180902665,0.33161416078544886,0.2281523145070131
4.572210805,-2.5145590468269043,-0.6004599969018741,2.7938061804786445,-1.0863399200650452,0.3125305474253548,0.22360907087363344
4.612218427,-2.4662340532405604,-0.6839193806668055,2.758773124617787,-1.0063463234716883,0.31047397591902137,0.2229313024229377
4.652215503,-2.3990871239122233,-0.7903925228516223,2.7647028017966893,-0.9086403065671006,0.3392624924005905,0.22042389023496248
4.692206941,-2.338268434965637,-0.8797801068949763,2.7727224472471024,-0.8208732240873808,0.3263047309665611,0.21089108966032108
4.732215781,-2.247790482366936,-0.9312900294698074,2.7408998523700925,-0.724926612577683,0.3309023078023951,0.21188715503650632
4.772285201,-2.1580762761810366,-1.0213372662926232,2.7609597345186865,-0.626507167116452,0.3331989817446763,0.2126101310919394
4.812278213,-2.071693397712205,-1.087800656432237,2.7604310906238716,-0.5654051744269807,0.3421289841145655,0.20995096289671353
4.852234228,-1.973546517950301,-1.1355488503692643,2.7486579501096267,-0.46109975672508446,0.3358216330474294,0.21091857790100185
4.892209145,-1.8822648722590565,-1.1926767374000242,2.7973732898576777,-0.385856232981509,0.33550561761582587,0.21345892083294754
4.932216713,-1.7901676879132138,-1.1942936723629747,2.780000353156563,-0.2773880092929081,0.34610842812093706,0.2161305431277632
4.972213118,-1.6730814351058167,-1.2339852442762074,2.791109982664266,-0.20335373728687933,0.33863145350206675,0.21571093865127144
5.012282905,-1.5399890716522235,-1.2359371654391715,2.7977414791503,-0.1179190048358917,0.3275242050621123,0.2191251850401779
5.052228713,-1.4355832398169839,-1.2710674060710132,2.7988711200693315,-0.005295486233390828,0.3312835698945516,0.22100833681921417
5.092216749,-1.3357771006487684,-1.2609459964685303,2.7972030109826416,0.06473602275010246,0.3458118199665241,0.22245792731669062
5.132213407,-1.2198710443246146,-1.244255672171661,2.8090437342326844,0.16574864033415843,0.32547239252311666,0.2169440314110416
5.172213444,-1.0969209629787349,-1.2143593396978054,2.800887218176184,0.2678970889289949,0.32254808407518326,0.21908765972454042
5.21228509,-1.010590860031633,-1.2014964186653256,2.7898990619690363,0.3729639553812033,0.3360966860504685,0.22168952476271553
5.252224896,-0.9033040825801261,-1.1543703433678307,2.773401348086673,0.45766056759965523,0.33467086925553297,0.2167822105435496
5.2922087730000005,-0.7989889903254771,-1.0920765862168167,2.78437111765794,0.527042038083344,0.32796491187198096,0.21737205448243663
5.332264743,-0.7003236549618226,-1.014560394099516,2.7857553583145256,0.6306695807324433,0.3361417906829143,0.21814376358202214
5.3722104680000005,-0.6188938639063278,-0.9551102362603056,2.792211273071956,0.7290877119269941,0.35188072871914267,0.21938941398384418
5.412215287,-0.5287742654611892,-0.9009925516642449,2.7817928944857275,0.8054108477804477,0.3479038511344707,0.2070943699707946
5.452210908,-0.4740218508116766,-0.7788753349969437,2.8036114799565666,0.8967090321456616,0.3386406677751408,0.21074538511461757
5.492216994,-0.37910440853543814,-0.7054025508129108,2.805063584754832,0.9888817360363419,0.34011570488998805,0.21594075249450786
5.532224884,-0.34409684262045986,-0.6064855686117769,2.8161841681576725,1.081741884692087,0.35480589141884467,0.21986803581948197
5.57225841,-0.31170432192360115,-0.49315487689478305,2.8196339783046334,1.1786663412702367,0.3543950710433263,0.17640014644505794
5.6122160690000005,-0.25867925783746654,-0.38588284430864966,2.8372658361921244,1.2349177193457608,0.36196259262182523,0.13154543958384668
5.652214063,-0.22033149922323317,-0.28453130286590583,2.8496768523022666,1.2754633325407896,0.3650058847369468,0.0865576000326061
5.692255839,-0.2053803272177487,-0.1927984054434284,2.920598355466338,1.3126441184136406,0.3686997085841414,0.043899551578189894
5.732216151,-0.12910242473589162,-0.05339676450908001,2.906161978160424,1.2893093719830306,0.35205655489140586,-0.008456846399370587
5.772278025,-0.12850141197899334,0.058548779294371335,2.9650108196328624,1.2771434272258637,0.35012014044044576,-0.05414488809769272
5.81225098,-0.08257340740368817,0.1612359047759321,2.966467091349285,1.2498029913315618,0.34982950980123667,-0.09299638916862898
5.852215322,-0.044967938708663474,0.2692446448773443,2.957910793249125,1.185056137004908,0.3410064953878927,-0.1159336974731256
5.892245458,-0.006843232850003527,0.3713419707835244,2.9819069231324513,1.1326558966672953,0.3206456410818027,-0.14306342844435457
5.932217468,0.05614589690510848,0.49101653050008365,2.986133748142712,1.0697189032263763,0.3204842767008168,-0.16319897388896318
5.972241598,0.11830478461026425,0.5862123207560934,3.007934397974605,1.0147495618160598,0.3342982532577805,-0.1785350172291581
6.012211956,0.19647707872734665,0.6969300182009378,2.977230564962594,0.9258075639041364,0.3217791709225459,-0.1771019014008113
6.052215334,0.26654490541380665,0.7831977783126034,2.9661676664995675,0.8613465477957774,0.3102931844034791,-0.19074119303889123
6.092273949,0.34264642700837794,0.8370029933638022,2.9326864849773675,0.7822729303428274,0.3146847868397451,-0.2025178838719862
6.132214993,0.41676953659309557,0.9512736360315421,2.915115325778791,0.6829359407224372,0.337735501166681,-0.21168252154912948
6.172217415,0.530541553693307,1.022946976170298,2.8945397359842833,0.5916211451006491,0.32530903106589876,-0.2119591767464053
6.212263135,0.6204775993052423,1.0726929731252872,2.8906597897087662,0.4935116304494803,0.3346950552105813,-0.21453385921687546
6.252214966,0.7162222449778588,1.111578997120495,2.8558447085372585,0.4064014989912844,0.34544690505420694,-0.21480890273753092
