time (sec),x position (m),y position (m),forward velocity (m/s),"heading angle (rad), from x-axis, positive is CCW",throttle (unitless; -1 to 1),steering angle (unitless; -1 to 1)
0.138141817,0.4659947490827319,-0.47818518343126815,0.10952413421664614,2.2683365942824687,0.16806774055637347,0.06104000910894201
0.17815281700000002,0.4517851992526081,-0.46099790506849675,0.2800372627769143,2.2621497422447145,0.5305569156447801,-0.11381469882888678
0.21813116100000002,0.4484172860909233,-0.4356261669779567,0.46958734709000716,2.275074003554986,0.65,-0.1392445448071466
0.25813404100000004,0.4226729920948813,-0.441726620462684,0.7277889016585141,2.2577202143769073,0.65,-0.14943902228180886
0.298133386,0.41132246869678474,-0.4168353294795272,0.9110740674573907,2.2427560299743994,0.65,-0.15736411527380717
0.33813157600000004,0.382729342539558,-0.35885820188654427,1.145322439164429,2.2184450817223635,0.65,-0.1575985116364872
0.378129657,0.3585640509453627,-0.32834804430268694,1.3334411180995247,2.2099101538013652,0.65,-0.15579094716580355
0.418194131,0.32511847664098903,-0.2713827372418318,1.5552869351499494,2.1545302461606477,0.65,-0.1520866224815689
0.45814098000000003,0.2821754873265208,-0.22487568148762296,1.690081966352092,2.1282814696553336,0.65,-0.1230422703504404
0.49813125,0.24196192410796324,-0.15271247082922343,1.9664659841107839,2.0860843729160528,0.65,-0.08670966554345205
0.538132462,0.2327584177384045,-0.10030754130407432,2.1943769397610176,2.0554971444160772,0.65,-0.05073162406600823
0.578200134,0.16313124845467122,-0.02140017865257552,2.4292152545572474,2.0745220836386156,0.65,-0.02661574326144775
0.618131885,0.13475978688432144,0.08606118834006157,2.6047351703566455,2.0736862565590677,0.65,0.006116416465810881
0.658147322,0.06296348723489696,0.17538190528452569,2.7498024038087365,2.100464853208022,0.65,0.036265093015836754
0.698141128,-0.00894889790985942,0.2805419923535458,2.987610785101656,2.1251644921534707,0.65,0.06001899566284982
0.738141523,-0.07387018627534465,0.378820795560097,3.1097435057080403,2.1550470590437087,0.65,0.06966581524403259
0.7781334790000001,-0.13070499441665487,0.4777388095737627,3.242281201838706,2.1737516611675596,0.6487876552901332,0.08807779860791644
0.8181387450000001,-0.23907734257937732,0.5890013829353327,3.3206042056545404,2.213163720606505,0.5765674821262647,0.10421600987282546
0.8581301250000001,-0.2977456810180832,0.7015923311672887,3.3990758387710125,2.275785823479321,0.5355833257391434,0.11799761791516558
0.8981317600000001,-0.3894264057607234,0.795789013186285,3.4273088341818414,2.305284328267896,0.46318758530344895,0.12958101274658138
0.9381310740000001,-0.5011261692550879,0.9086397525097369,3.4786154428377905,2.369019592775951,0.4093874627960875,0.13991298940776659
0.9781313410000001,-0.6250931681147034,0.9846028577894708,3.490477210533966,2.446250225802579,0.38359397774293097,0.1499831565969441
1.018132407,-0.696525383484963,1.0837663656357253,3.486170486053946,2.5026276865019175,0.368720822265664,0.15984641052339302
1.058133184,-0.8151202868974167,1.170860651457276,3.4710588718128803,2.5788744481554233,0.3323395547597464,0.15992798034520275
1.098132666,-0.9467745522642316,1.2329065064526716,3.4433135151432057,2.6604547758169783,0.28698891552698025,0.17186884908549427
1.138132522,-1.0519405097181154,1.2926745662060033,3.415822375678452,2.742686003703831,0.2659612237819929,0.18267765199649788
1.1781337490000001,-1.1828309896281362,1.344928348109311,3.346039338286122,2.848868099996833,0.25473139404161305,0.2033189631021149
1.218132591,-1.3125447947612763,1.3914455458853603,3.2976621815803475,2.946758282984611,0.23969200401450005,0.2034467818961919
1.258130133,-1.4278551037316571,1.413867001876433,3.256791895259726,3.0501689330911748,0.23416594598193788,0.2023530887647767
1.298130904,-1.5712476190090763,1.4285020008211533,3.1909020551079026,3.148915375563214,0.2499413667581634,0.1988332803231053
1.338130328,-1.7014597986928546,1.4393402590867068,3.142799940364596,3.2466863784314834,0.27173982411852055,0.199484616697634
1.378188735,-1.769741014187412,1.4283076256678457,3.1440937578345265,3.2996000445366405,0.2737276739829899,0.2001486700837166
1.418130127,-1.9485469838450287,1.39748690580444,3.077693083972294,3.4360590772071666,0.293870570164082,0.2022888276250986
1.45813473,-2.0174408247969553,1.3847154404059234,3.045329074030381,3.5184068183765014,0.3241049750107919,0.2060748753934408
1.498149161,-2.110294296116984,1.3467921030633332,3.0485139478227348,3.5598216043757476,0.3516383774383441,0.2153398228469229
1.538133034,-2.2782918335804143,1.2766511810052807,3.0263149848649715,3.680366312698212,0.37025368207581116,0.21333363097822786
1.578141325,-2.3773398426086376,1.1928218087909523,3.0483876740919964,3.767290671666137,0.399613320022189,0.2265173638116219
1.618138416,-2.4647477066369246,1.1466195620104256,3.0441177544375786,3.8705128324192333,0.4374817156098504,0.23971416927089062
1.658130115,-2.5417432099851043,1.057723341428561,3.074155005411087,3.938401350388952,0.450111848301898,0.22804396159853343
1.698133235,-2.6491306734497115,0.967908363729928,3.062046617783243,4.029659709846883,0.4547965013740773,0.23107094292856056
1.738140618,-2.726358921139567,0.8550844631722608,3.102232947642578,4.144474295072071,0.47677989904575785,0.2329668352977845
1.7781767990000001,-2.7990953868665427,0.7804333505596216,3.0988740578299723,4.220537746532034,0.5167632325781303,0.2250628787230105
1.818135491,-2.8402622431464124,0.6541078358629137,3.1149148229640793,4.3228032992875285,0.5133487510098326,0.22517060962533922
1.858171094,-2.8782288175356787,0.5471913994308254,3.1568712190228174,4.401266932769754,0.5138408893657351,0.22321193091087865
1.8981439340000001,-2.9441121585057553,0.4076674102755988,3.196419182364107,4.519280175381228,0.5327749637211353,0.22244413299756094
1.9382145990000001,-2.960177252646312,0.2756095055128173,3.2158204423921855,4.596816703111397,0.5540730082017868,0.2135733792113166
1.978148687,-2.964105574026186,0.15662640428798852,3.2276363005393884,4.695837083467591,0.5477902377246234,0.21797418622851597
2.018135775,-2.979760687492633,0.02819230916079067,3.2742679313680103,4.792144883826332,0.5359742247658825,0.2093650358868578
2.058147877,-2.9786239275018875,-0.07056379078832774,3.286171804293935,4.8494358358305885,0.5553953297461263,0.20849142249770425
2.09814756,-2.9758816610645464,-0.19549395235974065,3.2956346523680344,4.962476774924077,0.547896932954259,0.19834827558644186
2.138191318,-2.93663633544049,-0.3661232007434215,3.3298985602767415,5.055750286614946,0.5212300175791053,0.19728037383806668
2.178228216,-2.901075122174105,-0.4967692065895407,3.3562800408205185,5.147197423533693,0.5273267435867169,0.20288239285242948
2.218140104,-2.8493705082312553,-0.6227719289216875,3.3728139868682336,5.247193363880893,0.5387784041276494,0.20117308861297284
2.258149651,-2.7588276932067624,-0.7444349201737788,3.391541195593337,5.307050272970281,0.499230256657901,0.18885290905308044
2.298178789,-2.7032330280609567,-0.8553824704295353,3.3768570053256823,5.419424360617704,0.4788706080711427,0.18896739149288508
2.3381360620000002,-2.6021733842827537,-0.9673289441136141,3.3574436195549815,5.501682322554039,0.4724612140041988,0.18869122398144264
2.378130744,-2.5366430031297478,-1.0679255902963054,3.3848786434288223,5.566831733973736,0.4614625933912927,0.18281735735533497
2.418171717,-2.427754068421463,-1.134256930408709,3.385155670273462,5.646677054103736,0.431036399031913,0.18396010140179667
2.458231263,-2.3082635370166145,-1.2037023104782054,3.37270690083195,5.731660904474017,0.4216616530429389,0.18633906709189246
2.498216325,-2.209170915517065,-1.3082675526401772,3.378277472317674,5.792769165553323,0.4093187123347726,0.1900384421002852
2.538232876,-2.084735226677454,-1.373972687460255,3.3690846361503572,5.894111811498267,0.3890253869173766,0.18886925295297066
2.578142766,-1.9542495135713014,-1.4103117205259974,3.35240549317992,5.980296979410118,0.3617360433001427,0.1919485941617532
2.618231118,-1.8456087612487024,-1.4787838373430116,3.3112299469152155,6.043870257266058,0.34695998975089004,0.1957092394538934
2.658247137,-1.7085758250274263,-1.4955855945018381,3.293490032157671,6.14016640175545,0.3499504375413883,0.19847918403654397
2.69823622,-1.563773693743269,-1.5170403941979853,3.255931538237437,6.2323686974196395,0.3293857710017302,0.19807703642397906
2.7382137230000003,-1.4673351098271923,-1.516771529519605,3.25841101889699,6.2962672621747675,0.31610392180274643,0.19974883135148522
2.778142602,-1.3183592140970386,-1.5179636221020423,3.225015987609539,6.416869224342142,0.3192288754014442,0.20194657656953857
2.818146043,-1.1926448534218388,-1.5070841389913816,3.1863114368748606,6.503055822811874,0.3254339035703723,0.20532571737451966
2.8581335770000003,-1.076968919341695,-1.4946124907241742,3.1384376218941044,6.610410537165431,0.31764735523620086,0.208641937027358
2.898132405,-0.9518489355814493,-1.4461614309633801,3.117183441777025,6.704785356107366,0.32478042137372665,0.21118898990700855
2.938134416,-0.8148688224466816,-1.4080963461076839,3.09436524869522,6.794884501214225,0.3463233393608316,0.21303807928711183
2.9781319340000003,-0.7220049033701577,-1.31204234597556,3.06961756010785,6.878434168262427,0.36222614793840024,0.21054194873086476
3.018134055,-0.6050757059541187,-1.2523552970536198,3.084957333531756,6.967399142277006,0.3704357092562933,0.21224563689860093
3.058134675,-0.5224892236409848,-1.1808238955035206,3.068934134447477,7.05039096723773,0.39613715844861064,0.21541870249545217
3.098144598,-0.4656985226200319,-1.0994819163089897,3.0674873804799625,7.125289191218259,0.4340989626020646,0.21862337127227047
3.138149172,-0.39731843599273076,-1.0397867061277986,3.101641986802426,7.202934499800408,0.48677235761318655,0.20346994474772773
3.178155411,-0.29931182913321897,-0.9013946181987441,3.1533536524673855,7.298216184140488,0.5516432418146251,0.15826846134930833
3.218204574,-0.2202206870146762,-0.7993265029124802,3.2548470420603466,7.372244513264628,0.616818796281669,0.11998709565636095
3.258213097,-0.14268296587278365,-0.6798241220876174,3.346789284185826,7.395421607288352,0.65,0.07643005876884451
3.298134679,-0.08025216632853606,-0.5444144922657822,3.4488048889995424,7.4548415870294304,0.6197488717926034,0.03691852010354301
3.338131094,-0.04636535903241129,-0.41939415942536595,3.5414772590517773,7.4577174165052105,0.6117102136575264,-0.0017791925782735581
3.378134957,0.02870406136957761,-0.2789618388136258,3.6193896206350455,7.451522248098848,0.599584860297098,-0.03433316030771191
3.418192339,0.09605024364397066,-0.1647193832687471,3.679789554460616,7.439480931202612,0.5369259377306,-0.051391164277539994
3.458191595,0.15068843699417098,-0.05437420717373946,3.7318866839216422,7.4295754878472655,0.48928216630527155,-0.07192066065140418
3.498131019,0.2268323581994973,0.09162946339942019,3.7963134536321363,7.404022916103495,0.4455770356765704,-0.09135065567880245
3.538164974,0.23816379329341192,0.1836076325788777,3.8126744824058374,7.393777312060637,0.4211563663089721,-0.11078968930039719
3.578133643,0.3444201755062578,0.38143798615444763,3.82050085034104,7.375344253350522,0.3576427533297216,-0.12719438121919102
3.618132196,0.43033409381832044,0.5261248912416784,3.8168834074538607,7.3307857831752266,0.30993198891141926,-0.14622708828421396
3.658131085,0.5117062767330129,0.63811832079255,3.8069694505143445,7.284144183330112,0.2907163751620768,-0.16657799957058178
3.698160402,0.5689127126877935,0.7414563443747846,3.7785614133777896,7.221674862713678,0.26478511148991724,-0.18181501968632605
3.738142583,0.6566158812279078,0.8503975045716302,3.733329653707509,7.146449423836537,0.21861820865558046,-0.1935739156765195
3.778145584,0.7728900920592459,0.9785195456046948,3.662415569823036,7.053062430626349,0.18359403954694803,-0.20393583950685892
3.818131224,0.8742258174364754,1.10264231096492,3.5945153470778175,6.9490763553091455,0.17678456721066932,-0.21588709233030004
3.858134991,0.9851373110036286,1.1768488176727572,3.5361417983188907,6.907739139046854,0.18014466361780213,-0.22112942830972085
3.898133675,1.106913627089208,1.2569776078857888,3.4518286600388497,6.755744356025679,0.16142114549147893,-0.2224500372528597
3.938129361,1.2345977676266822,1.338562797189435,3.367344564058674,6.667328994271641,0.16475071943130373,-0.22417497021465327
3.978130544,1.3583343158128554,1.3734105596014619,3.3012762366599957,6.580237405778761,0.1791603910966788,-0.23224848583237628
4.018130896,1.4748834826583188,1.4276862760114548,3.2208130590596844,6.463313198822303,0.22996095971659394,-0.23559875820057705
4.058135818,1.6156918156308246,1.4486295015669852,3.1571308658868107,6.3832384595635245,0.24139831252135824,-0.242285719690185
4.098132473,1.7215704351793502,1.4532861841554994,3.126816902420896,6.300678049113099,0.27703939454904153,-0.24932881253902495
4.138134304,1.8515294665777517,1.4400863587589794,3.0971106897644693,6.224671556278329,0.3250935081258815,-0.25584291333401055
4.178131005,1.96911971658323,1.4468890627106186,3.0525042039864974,6.106961496120425,0.3713689610423339,-0.27199250827724986
4.218132243,2.102027026813182,1.4154864158104212,3.0796029073714415,6.002283426784292,0.4033023508681066,-0.27405833660660317
4.258144927,2.2085719489026414,1.3748447895527773,3.066326759855112,5.935496924497713,0.44371748718898724,-0.28369398958881265
4.298135025,2.3283998773516026,1.338238353567467,3.0732390951451243,5.826645475826348,0.4926637953980068,-0.27649157709768524
4.338133908,2.41634044051245,1.2768736021986853,3.076575206788462,5.720054061914093,0.49720720151170067,-0.27615369791844413
4.378147957,2.5423379127939163,1.208166843980624,3.107931615661453,5.616082889660073,0.5177454133814552,-0.27621927624794607
4.418146507,2.643387917288179,1.10894928721153,3.1295497300497956,5.49791178396097,0.5461849938662625,-0.2764939841045925
4.458224523,2.7167587966596667,1.0396114176213722,3.1604700106144654,5.406438650951055,0.565849760617993,-0.27071238267751063
4.498147223,2.78501236836648,0.9573993286696579,3.1410696689416766,5.315373988321838,0.5623378580009807,-0.26653348018123424
4.538224463,2.874725281411241,0.8229172482440265,3.2034987392538095,5.221793805153881,0.5694978775896723,-0.2607787065952005
4.5781339800000005,2.934313177374541,0.6996514988068454,3.222415303343873,5.12012722881301,0.5895844870857521,-0.25568298401618955
4.618134476,2.982143574156411,0.6160533017314289,3.284384152155088,5.020024462937847,0.6002071100121673,-0.2494227366456438
4.658156045,3.022356109230405,0.4772367181008172,3.185358447309056,4.907559013463271,0.5669138800772794,-0.24529991732383252
4.698235829,3.0508688862453464,0.3366980989317979,3.2562003347156088,4.825568923479317,0.567436608352572,-0.24076091313519582
4.738214843,3.0828585859299156,0.21629559520711086,3.297615614658398,4.703555446435983,0.5786054397357335,-0.2340494700471037
4.778135803,3.07912408798674,0.08604832514301335,3.313121946616066,4.604489695514889,0.5778230653371702,-0.22534799767392616
4.818134302,3.077527845645193,-0.049945266026211264,3.302094175829403,4.50353222537578,0.5438365086030511,-0.21987095026678863
4.858134082,3.037703630843554,-0.1752808784898114,3.3444538390840965,4.442612126984358,0.5289081345051438,-0.2162265408332999
4.898134965,2.995765430080522,-0.2922881291396311,3.3550707671811035,4.338360458690401,0.5234173401625944,-0.20903492887848096
4.938145306,2.9647735976415213,-0.4306704970535224,3.3480898315326404,4.246388270799391,0.5024383890685035,-0.2074429531251362
4.978130383,2.9093291550339,-0.5453938359616732,3.3289241402114844,4.185304536279414,0.476801839317934,-0.20783656630603822
5.018154151,2.8272826537450166,-0.6801523853323663,3.364686601637157,4.113988069908565,0.46949983424427266,-0.21007817923344457
5.058230991,2.7682329509905306,-0.7993206580028662,3.366499154498115,4.02664071693504,0.44480771865252205,-0.2116155155841837
5.098147749,2.67226888001061,-0.8869451245229745,3.3389413697439645,3.94718869949161,0.42061609689322416,-0.21490639420346772
5.138135086,2.5939122622580073,-1.0017097492104106,3.3690801311277845,3.8726550853614716,0.40196158171562074,-0.21796318492770814
5.17813374,2.4979125862495644,-1.053652863193632,3.368421790100071,3.792262691498264,0.3973939842157518,-0.22228238765657762
5.218134171,2.3696524617355985,-1.146732847974712,3.3547438680221933,3.7130984512430123,0.3754601629098306,-0.21754881495383366
5.258152984,2.265593417823789,-1.2028964731803276,3.3414952886026765,3.632636896955044,0.34166755407021343,-0.22520719961008648
5.298130482,2.1284746819876337,-1.2751624526621648,3.296418941952514,3.5339456540197207,0.3277312494813889,-0.23422330091250615
5.338134261,2.0443609737842903,-1.3007245060570305,3.275679217592646,3.5028347731221787,0.3374248258904145,-0.24234332568437197
5.378146354,1.8954339774594315,-1.3581233652918354,3.269711820412401,3.3655659776824827,0.3260800838982542,-0.2398516438974981
5.418134063,1.783129574745074,-1.3751976345925936,3.264659917433275,3.2960092193324844,0.3173448443999821,-0.247003722517455
5.458132028,1.6158032764405865,-1.414929597167964,3.199648782138412,3.179559119046967,0.3328163366094556,-0.26115784403990355
5.49821158,1.5008780285343337,-1.4032966497222672,3.1767440539712446,3.0855303141621064,0.36230866462986994,-0.26056842154067444
5.538131895,1.3824473319453814,-1.4009733774803228,3.176605203378123,3.0107182891717317,0.36271305109938573,-0.26553812666606375
5.578145173,1.2353264451843844,-1.3889429434216405,3.1916938805336716,2.9136024146005246,0.38969096408671255,-0.2682948453570718
5.618131859,1.1247404202566806,-1.3372858832427987,3.1618339777199544,2.8020159325392364,0.4399909988050032,-0.2709598897103038
5.658262584,1.028581345261698,-1.3227065044529767,3.146230055942341,2.7095379913540767,0.44783035062487225,-0.2662145515279353
5.698232307,0.8942306919951041,-1.2415679570862168,3.151118778369139,2.610123827321723,0.46280697469228405,-0.2662680007353869
5.738134502,0.7855364144454021,-1.1782155974237782,3.1462902543434557,2.5114655830741386,0.498643748992282,-0.26660544339479497
5.778136233,0.6982189759322396,-1.1108356023911645,3.166960307841421,2.410103969489722,0.5389863057238927,-0.27172427850608083
5.818185987,0.6095942098912216,-1.0156117954381898,3.206952410758357,2.2866362312340955,0.5460812653654303,-0.24175002443762864
5.858127753,0.5104439721172987,-0.9308307143320461,3.2363650336501864,2.2049779540178376,0.5855998200706857,-0.20761771000871745
5.898135534,0.4223715008086719,-0.8044679015011054,3.265771119462949,2.1239868419472026,0.61138230932666,-0.1737730189213387
5.938225891,0.3589463155834057,-0.7066419245201322,3.3714017814032857,2.0434929865962657,0.6347585141401171,-0.1398576839478969
5.978135347,0.30079370543211986,-0.5906213973060986,3.4174235935079436,1.9988255911224473,0.6133806160381563,-0.09763303931640888
6.018132108,0.240878219962573,-0.4570430128833987,3.5483265474168917,1.9990061410569193,0.6109741049655587,-0.05517440203739937
6.058131621,0.1799023892348507,-0.33234540786768973,3.6529316224739374,1.9858041557440447,0.5983461592284903,-0.016659018618115067
6.098136832,0.10042694713726816,-0.17972118964442596,3.734591701762984,2.042201873594856,0.5522312858704895,0.0064858829587381255
6.138130291,0.04812095082216419,-0.05574860964033424,3.788898287284453,2.03578532740106,0.4955551240097038,0.02918658116633791
6.178183269,-0.030694246354151567,0.07942045737984288,3.8383765119307847,2.074209929334542,0.45254836001431137,0.046688960730108225
6.218130762,-0.10337514116274517,0.21679094703185775,3.8592746229951915,2.087751251594954,0.43094745969703374,0.06183456595664524
6.25824942,-0.19845891691177636,0.34255194238853753,3.862413260394948,2.1632158819254856,0.3689488193499841,0.07559423541378052
6.298204489,-0.27732526096292415,0.4673233037118352,3.874616701926395,2.1723313904131274,0.33429719269715574,0.09206591921995547
6.338134196,-0.36268650518849566,0.6095195171067597,3.8715785481950515,2.229921182612677,0.307862672914266,0.10606220700895305
