time (sec),x position (m),y position (m),forward velocity (m/s),"heading angle (rad), from x-axis, positive is CCW",throttle (unitless; -1 to 1),steering angle (unitless; -1 to 1)
0.138141817,0.45392174160867177,-0.5027690320619705,0.10563532349679965,2.2910953844714177,0.16806774055637347,0.06104000910894201
0.23813066200000002,0.44740202720329425,-0.4234173593122237,0.5693021610459069,2.256649020831012,0.65,-0.14521960481080562
0.33813157600000004,0.38174993588622086,-0.40349072095787075,1.1312466384360713,2.1990250083716183,0.65,-0.1575985116364872
0.438190619,0.31019721628861946,-0.22663124179068786,1.6674010353575122,2.111173890454479,0.65,-0.1406771127223288
0.538132462,0.18259679999091002,-0.0771486974570814,2.193421827654035,2.0756725100150524,0.65,-0.05073162406600823
0.638130926,0.08108129904509329,0.12421562184917442,2.7151239177022797,2.0658181849914907,0.65,0.021813711767856014
0.738141523,-0.07505359021805058,0.3596120938855737,3.115959976060158,2.151477418881144,0.65,0.06966581524403259
0.8381306970000001,-0.25707275457530193,0.6640635877571708,3.3635280185413743,2.2159519672043055,0.5605220573911892,0.11068627271834454
0.9381310740000001,-0.4815672010593752,0.8753704096860765,3.4475617028075263,2.3470258557157484,0.4093874627960875,0.13991298940776659
1.038134499,-0.7538505169719644,1.0853787199835798,3.462661309346775,2.516913490361703,0.3790269165371129,0.17186266267328407
1.138132522,-1.0310980835719203,1.28178624805001,3.401194804033023,2.7491215654209507,0.2659612237819929,0.18267765199649788
1.23815281,-1.3974792883383886,1.3866694063020424,3.2635913080666836,3.0016281994778087,0.23561787337437634,0.20322070005304904
1.338130328,-1.6897974386353662,1.4378530060729098,3.164766166963742,3.2433100442461407,0.27173982411852055,0.199484616697634
1.438130951,-2.0292319411183675,1.4292848973311838,3.042705415269004,3.4782759514027486,0.3046374002328466,0.2043462048946376
1.538133034,-2.2696509824398245,1.271512929842422,3.0166535116988196,3.6694855437918736,0.37025368207581116,0.21333363097822786
1.6381450069999999,-2.490687008902947,1.1135744613984628,3.0198228902811395,3.9076951065753245,0.44776998871533735,0.22566527835018801
1.738140618,-2.7390830336495138,0.874111022851537,3.0995847062843755,4.121814670995,0.47677989904575785,0.2329668352977845
1.83813591,-2.8923529355997073,0.5993867851055138,3.164780064831026,4.402988131896945,0.515989899977242,0.2240090692987931
1.9382145990000001,-2.9910944733746363,0.30608953518482207,3.210345268784647,4.614000585449827,0.5540730082017868,0.2135733792113166
2.038146944,-2.9737980383147775,-0.008159690152537329,3.299451990392186,4.8023937814270825,0.5454239972817279,0.20904915293340517
2.138191318,-2.930679029093596,-0.37436723918917086,3.298826050767465,5.075184276010567,0.5212300175791053,0.19728037383806668
2.238143153,-2.767563457996463,-0.6427396766560476,3.3343668303441873,5.316609329694269,0.5049284738590767,0.1895241836040138
2.3381360620000002,-2.660887994710469,-0.9495505367537793,3.4001282794440675,5.500901413614039,0.4724612140041988,0.18869122398144264
2.4382351,-2.356358259294587,-1.1720259351806477,3.3726023852511324,5.687722849859835,0.42509244550750624,0.18462841205473637
2.538232876,-2.1148227485572137,-1.4026556338094793,3.3503718897431622,5.869548204332172,0.3890253869173766,0.18886925295297066
2.638233079,-1.8048771296630117,-1.476505431859243,3.302447307675818,6.134830965594257,0.3433534053168629,0.19787203582438123
2.7382137230000003,-1.463346167644478,-1.4899834616081569,3.2225238742722926,6.3072231357357165,0.31610392180274643,0.19974883135148522
2.838138468,-1.1091743248136074,-1.4934629873263738,3.142207224365918,6.584048537100588,0.3203447515927383,0.20696766819895962
2.938134416,-0.860298032675325,-1.3746641669860928,3.108572950361216,6.762979104376893,0.3463233393608316,0.21303807928711183
3.038136155,-0.5702864461219248,-1.2224078315083364,3.08513675596936,7.061727574388121,0.380950218843078,0.21382706316396624
3.138149172,-0.3845757172240588,-1.0298679226528498,3.1061932301265642,7.205495669720257,0.48677235761318655,0.20346994474772773
3.238188713,-0.18043551127792398,-0.7400297825369547,3.299245376654341,7.424681572307058,0.6452597952492721,0.0979401899716052
3.338131094,-0.05910437821977714,-0.44434534371362366,3.49453295910326,7.4461347591649085,0.6117102136575264,-0.0017791925782735581
3.438135296,0.08848982455009383,-0.08787895671065872,3.7358719185958376,7.423873910946725,0.5130075183418352,-0.06240022593623183
3.538164974,0.26376236705870826,0.16652527426303732,3.8513135780812617,7.400070703297588,0.4211563663089721,-0.11078968930039719
3.6382620020000003,0.46220192932466864,0.4777665485772622,3.8420509212548173,7.321125335631236,0.29111558893718026,-0.15539319377771232
3.738142583,0.641868421816355,0.858961749598532,3.700999640483594,7.1616791786443725,0.21861820865558046,-0.1935739156765195
3.838131291,0.9476576218067314,1.129908565035077,3.563954407594736,6.898652462084475,0.1742483075123807,-0.21306438582032652
3.938129361,1.2415736930216708,1.3195736255351636,3.4153250337477505,6.679159190764339,0.16475071943130373,-0.22417497021465327
4.038131512,1.5223314797019536,1.423122740242769,3.1856601079498663,6.4365215314057735,0.23348305336079558,-0.23807851821806555
4.138134304,1.8484643582824465,1.4384780114836908,3.099560927620735,6.246883483118026,0.3250935081258815,-0.25584291333401055
4.238146765,2.1200654150484843,1.3894499103327365,3.0916839777041756,5.927484399302917,0.42687692379404846,-0.27518555704278624
4.338133908,2.4657594411162562,1.304734836747054,3.071352764659453,5.716201878407216,0.49720720151170067,-0.27615369791844413
4.438155137,2.701930721991774,1.1019007332782036,3.1711827727524176,5.463693437218278,0.5668190877468758,-0.2751962217494349
4.538224463,2.890677060740616,0.828047224020584,3.2335531768247754,5.213570313842306,0.5694978775896723,-0.2607787065952005
4.63822795,2.987426759234789,0.5780728282660985,3.29667316571745,4.964446025390471,0.5728426932568401,-0.24732177932812419
4.738214843,3.0836946843630137,0.2260724333688982,3.3081612426571674,4.696847917814147,0.5786054397357335,-0.2340494700471037
4.838134887,3.0418509511044496,-0.10372977948461551,3.333658899602603,4.462217044050826,0.5418910865224006,-0.21787524426092875
4.938145306,2.9474327777701954,-0.43200599339777507,3.339723035124405,4.251178626463534,0.5024383890685035,-0.2074429531251362
5.038229105,2.7653332883460076,-0.7255849049424615,3.3545116122566294,4.05641174517272,0.4839978507886302,-0.2119575405695316
5.138135086,2.5912005702040353,-0.9435271979013838,3.333487869216763,3.855400236158602,0.40196158171562074,-0.21796318492770814
5.238130342,2.3045783162479325,-1.1598711390791292,3.33066338535675,3.684202616102535,0.35368162400268044,-0.22107564565416618
5.338134261,2.081745971279356,-1.3059627658477153,3.3349658744101855,3.4801342467660086,0.3374248258904145,-0.24234332568437197
5.438132174,1.706316086735382,-1.3871789006560729,3.2837074816905565,3.238088142719143,0.3197160064266986,-0.25095420777884864
5.538131895,1.3914065809183906,-1.3972216516786822,3.186332883603652,2.9989213777357526,0.36271305109938573,-0.26553812666606375
5.638197034,1.0926920387802836,-1.3315193435530217,3.1602472444089256,2.7656345332797194,0.4566215332953288,-0.27823023363795707
5.738134502,0.7972080316040704,-1.1666424481897995,3.1466303785812677,2.477190901064743,0.498643748992282,-0.26660544339479497
5.838129718,0.5481770412372797,-1.0000190403849987,3.2308764193803725,2.263617228993822,0.561619064406002,-0.2257683088705045
5.938225891,0.36774895267866536,-0.7110150820472332,3.372229686384028,2.069883169200285,0.6347585141401171,-0.1398576839478969
6.038130997,0.19752539648401937,-0.400448566609325,3.605650484737988,2.042996929942013,0.6107272650710821,-0.03510422682746632
6.138130291,0.014490269907858906,-0.0763429970627818,3.8015577851804183,2.0312010912267557,0.4955551240097038,0.02918658116633791
6.238133088,-0.11954412094114701,0.2718240654516713,3.899097416330721,2.114193649729579,0.4186321271614542,0.06998638188047289
6.338134196,-0.33462368760850003,0.5716772487981787,3.879185573095499,2.2522621731158137,0.307862672914266,0.10606220700895305
6.438145493,-0.6376960243859041,0.8591859831334187,3.8322495807061205,2.4116465170772905,0.23692563273241635,0.1279210748196253
6.538239385,-0.8997404239502327,1.1303332437624203,3.652601392864244,2.5884313617532397,0.21161859070710973,0.15126854044687033
6.638131229,-1.1823323575100666,1.3226313841805717,3.5143690185040817,2.807325924956679,0.1766353524078565,0.1636994838519057
6.738131469,-1.5274190888197512,1.373002678980464,3.324620569204885,3.070960246979373,0.1936966999578782,0.171897223598644
6.838134771,-1.849783628607834,1.4395934365165928,3.144953007637392,3.2767576449635683,0.24808263022035806,0.17967767529087575
6.938131554,-2.1724908149957654,1.3538032144106058,3.0455805575968475,3.512690779663887,0.29297684610414365,0.18720898330025437
7.038152363,-2.389453072268152,1.1992457222329496,3.0023800846916973,3.7171625899241234,0.37081108021931686,0.20948311352951857
7.138132969,-2.6543800997100218,1.0260853579487237,3.0462336648829935,3.9852818875534584,0.4449055141054501,0.21849011059116655
7.23813132,-2.8449985154639803,0.7655109189619509,3.0977952388687613,4.17207400313361,0.48193537156329996,0.216814574916587
7.338131262,-2.9723163000059745,0.516283380212106,3.1422535415790938,4.409906205114104,0.5307961635525408,0.2110755525811875
7.438132754,-3.074963855011386,0.2038292638636527,3.218629601080129,4.6931474654419105,0.5774872095323818,0.19437584718749862
7.538130603,-3.0307688154554944,-0.06040369372733613,3.261078688839218,4.938777444480704,0.5650411152396847,0.1903453629107442
7.638149393,-2.9676004215907406,-0.41628807057237033,3.315220291752372,5.131559570761832,0.5552828930372552,0.17719350261388586
7.738139429,-2.852693787246723,-0.6641697672075786,3.362113918100594,5.3393802992440245,0.5209060186729834,0.17079167919727256
7.838131032,-2.6149607205821233,-0.9931598862610703,3.3813135522310085,5.5638557869238205,0.49417646697481427,0.16870520791169757
7.938146716,-2.3541873154405906,-1.1970826881761314,3.3740889512956156,5.722082968080346,0.44254240863481276,0.16497837108416724
8.038154825,-2.0392110093411233,-1.3881293870399827,3.363596727505421,5.9487161290198936,0.39781206215529463,0.16762987346018426
8.13822256,-1.7486940183513984,-1.4924826629884598,3.2880531594152482,6.182144264631284,0.35319361419401557,0.1764065170821601
8.238145257,-1.4049107323839178,-1.4790499630260299,3.2786181777018757,6.3995543123591005,0.31973998364670503,0.18082412167665438
8.338144077,-1.067495701363218,-1.413287515660475,3.179791535047798,6.622289295737541,0.3190345132674789,0.18918671320831804
8.438131892,-0.7710931616871791,-1.2860975977039277,3.1177687582757585,6.838863545481249,0.3476943370749136,0.19381653561740955
8.538131809,-0.5448749017110383,-1.127562460149209,3.07788471861391,7.075432687665257,0.40190564635494397,0.19927434567007776
8.638135795,-0.3823056506912856,-0.9153825864260372,3.087362895085399,7.300960591919367,0.5228610514109677,0.17284154546986238
8.738164684000001,-0.20283140059481355,-0.6367978701579388,3.296421892156558,7.409498980504487,0.6181230904109226,0.07849218378146244
8.838142966,-0.05184975292562874,-0.3081331609614352,3.5509368358693854,7.445797438918952,0.6190724146815426,-0.01566588535023477
8.938236004,0.13213020854237117,0.039045311957941406,3.713895446799278,7.480417159566087,0.49752162907086817,-0.07610283762627443
9.038150459,0.24242524173744978,0.37244264015624357,3.789824562560282,7.437939458143888,0.38517870065470067,-0.11902271362074315
9.138141433,0.461958405584649,0.6994272901961409,3.7675116158348767,7.299534294917776,0.30249580154393435,-0.16631250032473666
9.238135366,0.624922158914356,1.0261466838867053,3.6408212637874096,7.1463451478768665,0.2108553417276006,-0.20282154502293392
9.338151364,0.8642164286747807,1.2679601527672957,3.5048002030333905,6.88217172819537,0.20547975935914464,-0.2084815988863774
9.438207054,1.1976034455612243,1.409182587091989,3.336836663805322,6.668185649170622,0.19334754028007298,-0.21875983715063774
9.538131318,1.4758196972230735,1.5138135625415818,3.1752974169635855,6.434333559725253,0.26287739981965075,-0.24141686153197625
9.638147286,1.7541572369069591,1.5185770849322906,3.146678773219508,6.2351354476659955,0.3690293560685231,-0.25989164900782213
9.738220537,2.110775943802076,1.4621869752220316,3.083141326883078,5.945875691162191,0.4295796736208862,-0.27464378047596544
9.838139419,2.3843191077403256,1.3651423404409468,3.0945181614305373,5.722486411560069,0.5060514366453848,-0.2759179185447881
9.938139974,2.618224422619977,1.1777612027511972,3.136458742011604,5.460946517462976,0.5915690393575475,-0.27199709941103306
10.038240578,2.8087781146845283,0.9352366914771958,3.2292770704179765,5.179364951512641,0.5961603244132109,-0.260384379037648
10.138220608,2.9557941407658896,0.6595456077615404,3.2410314603160426,4.948332576840587,0.5887049384494546,-0.24648869839592866
10.238210755,2.9899382588758083,0.31449695138080125,3.27398397179295,4.672080553392304,0.5666471033940851,-0.2257479965617883
10.338132476,2.9948402088773665,0.004329962329426042,3.2950384464002873,4.451529174750979,0.5654891013612813,-0.21209868467346127
10.438146075,2.919684737959831,-0.29805674784105357,3.3408777381026846,4.180670714624055,0.5047481680338853,-0.19657716681697332
10.538209382,2.7767073275508394,-0.5852301042871844,3.3611117890620883,4.055329471247012,0.470695569103496,-0.19111119703953158
10.638130609000001,2.50368214985574,-0.8621695884249918,3.3761400492334857,3.8493966403524524,0.4031509116233205,-0.20503996092329876
10.738143754,2.282834485192052,-1.0882319978342032,3.3712230692905183,3.691843480493445,0.3349112512744852,-0.22454248171664531
10.838150829,1.947743567674126,-1.2553914982730399,3.3185220522992522,3.4904954412516114,0.33093351740070504,-0.2460980334871065
10.93814759,1.6279796553829282,-1.2992683574446855,3.1957422921753365,3.24787502737867,0.2977176720011912,-0.2600166664480917
11.038144096,1.2976224179062876,-1.2548418105729278,3.1529061720982217,3.0139421207264303,0.3356874893148611,-0.26783494562563465
11.138137748,1.0487733752405217,-1.2181934695939778,3.128349787924599,2.7697826957114615,0.4198224591686062,-0.263619012957899
11.238136675,0.7448106087524771,-1.1073045195882638,3.158051095582634,2.4923601265057553,0.5059432790348495,-0.26591858001582863
11.338143289,0.5316261817587012,-0.9285770374659633,3.180632192468506,2.2516684692281164,0.5787277629591071,-0.22298395187588388
11.438132912,0.3278072033645875,-0.626747284875446,3.3192357253850977,2.0401599669508856,0.6481065972261986,-0.15034546050029696
11.538132791,0.18432747913202704,-0.3248380568107114,3.5576195975312834,1.9878557534611305,0.6048050571464479,-0.03465369756125759
11.638129492000001,0.005685292566968787,0.009272003407495535,3.7396761788304174,2.042291882449158,0.49961269934997443,0.03250046345260914
11.738133352,-0.2160657507733288,0.3495279339901714,3.8455065894174156,2.091593423671943,0.4201920366404675,0.07112788456261598
11.838131796,-0.3936921534156805,0.6575752480606026,3.7961513752833818,2.2622969613292883,0.3070632275134943,0.10563968471472822
11.938232427,-0.6412188918162709,0.9494896625214159,3.75062763258419,2.3861569949138066,0.2426347657308873,0.1318831652059683
12.038148653,-0.881351301703286,1.1460313056419582,3.6590696257711075,2.5509733851060066,0.21993179686298983,0.15922045172841928
12.138143696,-1.2286434973562794,1.4364902975129596,3.4998024472106644,2.8198070928742403,0.1751964208779998,0.17562198228521392
12.238129971,-1.5819440320525708,1.462597672253826,3.3192961875273563,3.0697131860237006,0.20114587640811646,0.17150152050304712
12.338210777,-1.8979951612621389,1.4930742958220078,3.173051068641789,3.272984598913583,0.25001983230221697,0.18067827535311812
12.438150202,-2.2366585351596515,1.4600744881103564,3.0593748205668647,3.5112556849990892,0.3135179902155383,0.19247291865459337
12.538188668,-2.4267436501315878,1.3104156118474237,2.999065513579706,3.733208643384151,0.4004192120530895,0.19952163014569058
12.638131247,-2.656962203346168,1.130516112108226,3.0381402121980265,3.9431125768399817,0.45377327064591355,0.22123146096646004
12.738132211,-2.8950670415353943,0.8771820872875079,3.1362082350927953,4.176401991380868,0.48586520198013866,0.22154281262602832
12.8381341,-3.005112506268806,0.5859367027903739,3.1509678384489206,4.427449841815887,0.5418161157009033,0.21365612604305537
12.938185109,-3.126575895476331,0.28932315694883987,3.196601147877283,4.644784614808184,0.5540648412891315,0.20876469535751918
13.038133067,-3.0962665052419553,-0.04030540967081689,3.2334933749067254,4.8614831668368685,0.5559370476524713,0.20255175141971743
13.138147903,-3.0244702593774946,-0.33266536881751285,3.3611272126421716,5.119482175735434,0.5718446971459392,0.18936122038067885
13.2381344,-2.925031083588799,-0.6867656477325516,3.406413381324873,5.302026432627609,0.5216545131006741,0.17922743638286143
13.338137173,-2.7339615072435475,-0.9172160856732672,3.414254041135155,5.553662494396109,0.49206751380856606,0.17231237273909375
13.438129613,-2.439733012332814,-1.1742213869263594,3.3752170627513274,5.7405252573695025,0.4812698201856629,0.1755052415880566
13.538128706,-2.181178932981774,-1.374873930878787,3.392914500971403,5.9092973423546304,0.3957708885536624,0.1677627695483747
13.638192364,-1.8406010116912082,-1.4524514509786643,3.3443353064553065,6.158307938353227,0.34710619963781536,0.18159396594285948
13.738141942,-1.4936237071507528,-1.4615306092521392,3.2420843757756503,6.333038097918546,0.3410530028536556,0.1876436674230538
13.838142952,-1.1754079295310638,-1.4173056931706494,3.193193785744438,6.5998567528005,0.3178266902965672,0.18975146560290299
13.93813164,-0.8965886979313636,-1.3280601626656459,3.0919993192943327,6.830834569451433,0.38962912528781596,0.21526438415792942
14.038134604,-0.6399800447451249,-1.1384020109191364,3.023706818767742,7.034943427671936,0.40373216070336404,0.20129909507778798
14.138134145,-0.4197655996403553,-0.9139071967333703,3.131213643363945,7.259872418385248,0.5255305242175353,0.16316728877247916
14.238134685,-0.24883831850521324,-0.6644125567503,3.272297576492701,7.414841447574957,0.5856584161132581,0.08535896085675099
14.3381341,-0.1016688652311783,-0.3275791390790668,3.5673965839268673,7.433151108925121,0.6315850419560393,-0.010995781193811865
14.438130518,0.05238673216962431,-0.02141240705500526,3.7098875834058713,7.452984572131286,0.5086629865479417,-0.06967380671908324
14.538134943,0.15609357286310935,0.3387931499411554,3.8226242109156696,7.417856521617397,0.3956959876202151,-0.1154518847459734
14.638132082,0.39866110318647113,0.6180790457436591,3.7854414497646727,7.315991186603301,0.31893356663681516,-0.16552285930206007
14.738133635,0.5759795176223632,0.9533012788474319,3.685163282654888,7.115970476988286,0.22248875909289845,-0.19821925690111092
14.838136548,0.8360667993894559,1.2239378313553682,3.533930554152716,6.892744028097447,0.19110761658494996,-0.21117730185427877
14.938133463,1.1682853879100696,1.3827837886502008,3.351446643514576,6.649814480900372,0.1988317106509881,-0.21957952763352426
15.038152647,1.443590168945992,1.5052724075116837,3.2571780881209618,6.431008763013481,0.2533255225079324,-0.23310138531185465
15.138134973,1.806390735647605,1.4988726230091716,3.070108668889608,6.206680559843469,0.3520073894331,-0.25399545166433596
15.238147969,2.0945843840298397,1.4318647436359206,3.087095351584384,5.958758544538834,0.4333257517059545,-0.26965552326198955
15.338181971000001,2.351528273691218,1.3180912379688088,3.092489232077006,5.754710782565098,0.5114527063147237,-0.2717084603315016
15.438135141,2.555849133183524,1.1177606033679885,3.1368483994417846,5.442739597995048,0.5844816002338157,-0.26599186989211104
15.538133062,2.7925826779789302,0.8672479481489369,3.237328223702514,5.168745676080081,0.5693328851796131,-0.2578894269078085
