time (sec),x position (m),y position (m),forward velocity (m/s),"heading angle (rad), from x-axis, positive is CCW",throttle (unitless; -1 to 1),steering angle (unitless; -1 to 1)
0.12533423800000001,-0.09983116883025278,-1.1107590604530884,-0.012220083867992667,0.78374957339045,0.75,0.36439552579620416
0.225351879,-0.15564214093879614,-1.1107017259980594,-0.025864501199848965,0.7431237566309195,0.75,0.13663079011123494
0.32543446200000004,-0.09292275216077792,-1.0731102988414856,0.016307540422345102,0.7361486197816749,0.75,0.16894957369432348
0.425356905,-0.1392501520143261,-1.058952174750893,0.5443767933568713,0.7208225064112544,0.75,0.22309924159696107
0.525367337,-0.027739003242970184,-0.9893584976492189,1.4199359434844891,0.8726339379601374,0.75,0.2033858316069656
0.625350972,0.0567576132699348,-0.8266987840059912,2.2355327375484375,1.0330911007783132,0.75,0.11589731256812809
0.7253710830000001,0.1819728484693682,-0.5696584068939342,2.8273597097142793,1.0947083396271668,0.75,0.006443851997855285
0.825352606,0.31509575927333505,-0.30089543307813954,3.3184036829781705,1.0713143360543178,0.7251324277168926,-0.08681094326761636
0.9253694130000001,0.5217631265163358,0.019142431335189756,3.537762888077079,0.9340327620552532,0.5192584849123395,-0.1319044344844863
1.025346028,0.7209949785972881,0.24876925101570227,3.61887540023621,0.7670440052010163,0.41241170914937086,-0.15496102220006938
1.125339672,1.0794257790610928,0.5232213928284865,3.543203380761735,0.5734605236639172,0.3523471019878397,-0.17251519324343756
1.225349501,1.3181295112979863,0.6576126765605874,3.4827388530876267,0.3858158172049882,0.29663657792926273,-0.18101940324301732
1.325344707,1.637252160568396,0.7716675348616736,3.394029678518174,0.172299936973337,0.27823222756000704,-0.18664395506541254
1.425343182,1.960742802516728,0.7839519071830748,3.2904389257797826,-0.037068184587984845,0.28994849578239174,-0.1982290519531421
1.525362306,2.27881141358626,0.7516993632811212,3.1849935383284813,-0.3332793752318973,0.28943402903677584,-0.20130808988773136
1.625348156,2.5988730202427512,0.6362910536178787,3.1512749880110955,-0.5628635030621321,0.3660471796481399,-0.22161412016847748
1.725344635,2.8012361571129705,0.4564709997185657,3.092995775710911,-0.793713956486541,0.3767076489185953,-0.2342290150980938
1.825349835,3.0445094215854462,0.16143937927175822,3.0604081329361743,-1.0595116065786845,0.5078235626416868,-0.237053625079222
1.925364381,3.1854904828592594,-0.09163670299122263,3.0808732865616326,-1.254034422209975,0.4516178327978617,-0.2383468346147468
2.025368856,3.2369947011881877,-0.34419046791354135,3.1170153088782087,-1.503466891115581,0.47833092587732917,-0.22978542143521685
2.125346618,3.2437234029344304,-0.7050878563471418,3.1838482672871136,-1.7725791933241637,0.46963903121567996,-0.23340370353695697
2.225348164,3.1245563348278793,-0.9800227541866826,3.2194230408118947,-1.9811214821629906,0.47984564436677246,-0.2256098400212725
2.325350491,2.966888877309119,-1.2886870911800723,3.266258940992142,-2.1673240063754107,0.5255265080743399,-0.21960900687303947
2.425431453,2.7754732452794144,-1.5104010627512123,3.329913308094213,-2.4153981784248346,0.49799616489408494,-0.20964540539120402
2.525343301,2.477464277311233,-1.7516867541481957,3.3442803804147023,-2.6686132895703407,0.4780342472554318,-0.20757874580868774
2.625368249,2.1584729914782845,-1.8980669148990568,3.3847747785312063,-2.8849815966538146,0.47050757739982285,-0.20366834555722765
2.7254374180000003,1.8499054119417206,-1.960301350076792,3.4001336191418527,-3.120318304591579,0.44800171888553086,-0.19936439623600533
2.825363947,1.5043006474253307,-1.9351566128322764,3.390588787368071,-3.3205002151061835,0.41954361022610587,-0.19640156845057094
2.925348725,1.1769945731222011,-1.879434148862229,3.4218607190069337,-3.523251084080385,0.4100418239492111,-0.19688407293755322
3.025400069,0.874194119898256,-1.6862691886887053,3.3496230201748225,-3.777463159242512,0.4114689197450265,-0.19977048423810487
3.125337725,0.5875165972919857,-1.4763571227828303,3.341935273984961,-3.983822413085013,0.408007381126923,-0.19374904225180745
3.225347343,0.4019675915507161,-1.2483226909560443,3.352293547531363,-4.199485571400439,0.4526171932306697,-0.17598202869230603
3.3253925840000003,0.2228432381619491,-0.9430404562799213,3.537728850872124,-4.347027045306395,0.5468061108712177,-0.07317651233053779
3.425435713,0.10246503336766574,-0.6439589289621152,3.750675297024594,-4.3229446692943325,0.5136838124477746,0.010933267851656481
3.525349849,-0.06897954973188043,-0.24848408022661667,3.8548692563480937,-4.27932549618599,0.4160298196691082,0.06677952895598879
3.6254399409999998,-0.22761800309773,0.07997399004559218,3.891162442424089,-4.168090331516126,0.32975719014415933,0.10739875925694707
3.725354229,-0.41124777376959903,0.4044568181891312,3.8871931536885937,-3.9889112380900054,0.24235481421783742,0.13351316835251845
3.825348469,-0.6985895792037228,0.6782051766649977,3.723955848942285,-3.812706155682768,0.18959659006324842,0.1545844458298949
3.925355695,-1.029017165489858,0.9467303471551772,3.615263285573348,-3.5680576390452345,0.18370567077635788,0.16240718268404924
4.025434417,-1.3454008604662249,1.0280349796493495,3.345202822828426,-3.352824453220501,0.18938115997603458,0.15349854577520194
4.125340341,-1.6572447968888238,1.1369952145283122,3.1683426268494093,-3.0857713639438114,0.23633332842780527,0.15863031178989018
4.225424828,-1.990999221882859,1.0695362461132363,3.0313746665262484,-2.865572747164588,0.3034293259492182,0.16239995958407227
4.325346752,-2.2514219571864844,0.9942663887289397,2.8446764034676097,-2.6443111499996212,0.07691107686225677,0.2625782641772394
4.42534603,-2.468642249318921,0.7997055518606895,2.7256284533788726,-2.3671373029697658,0.30393942586261385,0.23750759277767525
4.525406746,-2.634655069432847,0.6488872169449585,2.784738236373141,-2.160388937194231,0.5307618982013599,0.1667698399184479
4.625373179,-2.725378230033681,0.3563586861058404,2.965743344237537,-1.9505170476437663,0.5042249052220648,0.1702045858371805
4.7253770280000005,-2.818559083473849,0.07127517654111251,3.0782060752939753,-1.7010542291978172,0.4388544497002824,0.17875725230726056
4.825360089,-2.854042270839463,-0.21607575700652498,3.123483130743217,-1.4793538352382916,0.4250412643827846,0.19143177380843795
4.925363958,-2.7998216972759975,-0.5299454824063247,3.168132095797703,-1.2796264135923212,0.39572007006931936,0.19693899808942722
5.025347911,-2.6835157432669607,-0.8590635936553906,3.1087091183420705,-1.036825696731005,0.4103362522760604,0.19718076742352758
5.125336041,-2.4866494723712758,-1.119534632430144,3.152228402479016,-0.7607965610445038,0.43563663839993466,0.198141311439548
5.225348446,-2.280437290418066,-1.2951539646622798,3.192606998513969,-0.5856718664556267,0.4687306252725081,0.20011169847121266
5.325343866,-1.998654055810085,-1.430991297072558,3.1979422384689755,-0.3611890184262435,0.45768212835773314,0.20300585305261643
5.425376721,-1.6592286167070394,-1.550387962399174,3.2685440095802583,-0.11402277148255432,0.4418962320520605,0.19862199221811516
5.52534805,-1.3579519641878888,-1.5137593045227484,3.2459019162043066,0.1242060349715968,0.4597054986697994,0.19843545345328173
5.625436566,-1.023297723310979,-1.4652042112489727,3.2994151885494816,0.31842632099569246,0.427623879408626,0.19496406324038487
5.725392951,-0.7144494138235088,-1.334731958719889,3.2584184364854933,0.5446399421081246,0.40289517271174385,0.18242654378080833
5.825453592,-0.44699139429860096,-1.1160503391188916,3.2796158347822053,0.8152552629201845,0.410429490569025,0.17307556597894505
5.925360727,-0.24140434256746107,-0.891758164757756,3.251227840968345,1.0184967802556673,0.4240448488587739,0.17398299061570519
6.025359367,-0.10768815914663765,-0.623077826045356,3.316824653685199,1.2137604466283807,0.46917228096274544,0.11187938159744969
6.1253364359999996,0.055774212231876716,-0.26283642300408416,3.4827587182518167,1.2944819998701553,0.5488219855899156,-0.018720937810906405
6.225368021,0.15454256220630103,0.0030605870254213456,3.5776163932597895,1.2500675057767892,0.4891347057947109,-0.09128515769291903
6.325409377,0.24698123093457824,0.3797832077653387,3.6396017462729953,1.1198507932144035,0.41919290493591815,-0.13365907937555757
6.425350911,0.4512874322209279,0.6603580486766425,3.6892231010699046,0.9549530916927255,0.3907862399608567,-0.16190897587219524
6.525358968,0.704747655277608,0.9720192951881719,3.5823015963435614,0.7516226815261077,0.32539638688114436,-0.16837773015460897
6.625347428,0.9152797353527393,1.1670427910627994,3.5240716610756677,0.5314364345916694,0.313098745589285,-0.18723481861513802
6.725419938,1.244050348260834,1.3556991087551922,3.423657556171338,0.2803029578210858,0.3308235710355378,-0.18226835048620232
6.825367107,1.5976801422866187,1.4133489155265737,3.373686703058322,0.07776836882971944,0.34274417052167083,-0.19084518065206924
6.925348033,1.902848782633839,1.4224679510949076,3.3055586246878965,-0.13452538936453595,0.35562117931579895,-0.20177162619409064
7.02539689,2.257644418393945,1.4057622603544622,3.237283818483664,-0.3725889588683074,0.3801942282632516,-0.2054668376042941
7.125442078,2.5590903998152004,1.2382889389820293,3.2483515650506614,-0.6296661875080521,0.4193679326105838,-0.21617871649590434
7.225356542,2.763209929637958,1.0335196286010955,3.2221275929619835,-0.8321843410899816,0.4182761298261404,-0.212241294459493
7.325364694,2.9767530302426586,0.7902419264954135,3.2550894357795626,-1.021629424305844,0.4445310323148104,-0.22444821052900218
7.425345786,3.141546031641614,0.44048661340153106,3.3150248379438736,-1.2710261568446128,0.4773057658173213,-0.22735083136915216
7.525355971,3.1856241531375113,0.1534725339364586,3.291286482706944,-1.529275792896528,0.45193416002478937,-0.215823440204868
7.625346116,3.1878199098087605,-0.16681970415781525,3.34369826475338,-1.7461396028487992,0.47703712283926825,-0.2195721877858144
7.72543704,3.101879303394719,-0.4601202253572478,3.3847707169625374,-1.9630694904964812,0.5048485757362247,-0.21450507284466136
7.825343878,2.9578978325162613,-0.7656469482069427,3.3715259970114246,-2.1746818511266235,0.4776863716119,-0.20377143496740122
7.925368079,2.727565822539472,-1.06688356318653,3.4212538604517837,-2.3700289387552655,0.46531215549437344,-0.20280266662856888
8.025344362,2.505889731410204,-1.2908296209775505,3.4129444318886644,-2.617481350454595,0.47167437266219714,-0.19515755990159558
8.125336238,2.128074435086498,-1.4204370560822317,3.438634332104801,-2.8775316276784175,0.42796758956831604,-0.19986578029682128
8.225344648,1.833071401740233,-1.5098178558433617,3.410443148852078,-3.0701915774037505,0.39432127060065514,-0.18887574401936816
8.325347076,1.4773229537769867,-1.5082212807854707,3.355801639479682,-3.265817963017899,0.38346440470128634,-0.1984796424723568
8.425345258,1.1662562698352885,-1.435555028635298,3.35016961385625,-3.4997457397999625,0.36331319853852795,-0.19754442426994676
8.525345537,0.8762386157302586,-1.3539712506871233,3.327641574376643,-3.705710731937511,0.36283913063849826,-0.20107891113434637
8.625344656,0.6371525724172932,-1.1606468437046051,3.302551331351922,-3.930442652938216,0.3831218242644202,-0.19162646485303997
8.725345397,0.39156352048125903,-0.8828659225474982,3.3283286985928737,-4.1187049320169145,0.43996842312766954,-0.1705275280162496
8.825347028,0.21729724792808366,-0.5910280105270134,3.442756121748621,-4.309087173897704,0.5031197394224014,-0.08628571256627565
8.925347327,0.0632795263141393,-0.2854592955386784,3.608980947823805,-4.303739501523029,0.48652153899169087,8.507574179937669e-5
9.025345803,-0.10790699326729379,0.05072163915346451,3.753741627282713,-4.257403213972425,0.4208574289338953,0.06206168172902894
9.125337338,-0.31816306907093467,0.4371500012816412,3.7781693809912795,-4.167714974676353,0.31339814916557673,0.10099432245826216
9.225341947,-0.5120059556501639,0.7519815817499328,3.728786599766212,-4.0004869288974,0.23973745818432635,0.12438528991498327
9.325350649,-0.7451198816611876,0.9534437288188616,3.647936872085758,-3.7577840568506033,0.19847429790615542,0.15283112789748632
9.425389941,-1.0307474346121006,1.1452437725436209,3.502583007188559,-3.596666718949446,0.17948146581853963,0.16247371323085064
9.525348712,-1.3714321152893103,1.303056888480489,3.3697965213024763,-3.3272872885928892,0.20571287946723169,0.1686417053904449
9.625354158,-1.6747372089753616,1.3258185229715498,3.1752093372387775,-3.0921422664541858,0.2646824185804638,0.1701808019595997
9.725450031,-2.012769246417778,1.3339291893622394,3.1130013377204135,-2.863096597618478,0.2998529227804492,0.16805713064048627
9.825345772,-2.3282022204866584,1.2495798184344218,3.010038272693983,-2.645862738411967,0.3489309591586936,0.17834853345318946
9.92544117,-2.5617255554320484,1.0533279136706284,3.0534269849785445,-2.4466967019621766,0.39915823341814566,0.18831466715806663
10.025424914,-2.7882375355978013,0.8073079571937819,3.084299491464336,-2.16557090113532,0.40685726775364045,0.191563941386881
10.125335498,-2.908200298584797,0.5384026779943933,3.0902604940021647,-1.9532421662684116,0.4164117177335039,0.19694486783658732
10.225348165,-3.018203724948652,0.2772180343861569,3.0516351156891868,-1.7477728212135861,0.4328355391551993,0.18965198691869434
10.325347023,-2.9956632767096907,-0.0656317916504105,3.099312702733879,-1.4875371109857527,0.4252132309904441,0.1920700609060708
10.425354569,-2.9634139589174797,-0.33336326510799186,3.1946006548632555,-1.2932277731730226,0.42203930038586346,0.19605275530162355
10.525352833,-2.835988002582868,-0.6550878302849114,3.2334138571703215,-1.0564674491084138,0.456641197961077,0.19349402851428907
10.625345007,-2.7182378422335294,-0.9111284142708946,3.2504672368621854,-0.8537018506456195,0.4593448628648334,0.2074249265773429
10.725343176,-2.4742447672458336,-1.1232603068947458,3.2404064793674885,-0.605781300821861,0.4427510235565995,0.20637313548541666
10.825344101,-2.1744995458184864,-1.3294600270585522,3.2645810319584667,-0.3929906168303111,0.4553216458852015,0.21136033586024383
10.925371182,-1.8452054546488201,-1.3892154306829358,3.311199366868743,-0.14170480232708704,0.4593510791160511,0.20779471296416363
11.025346965,-1.5321952743399263,-1.4434928983801978,3.3303193920809817,0.10164008845642157,0.4356916632269237,0.19260047807032663
11.125333871,-1.1339858544349521,-1.3797626483436627,3.341971253755772,0.2967669205667824,0.4272584267917479,0.183031090705862
11.225343492,-0.9109881980325046,-1.2510047873172616,3.302366402054985,0.524948080900985,0.40779574303772775,0.18839166836414278
11.325358604,-0.6305073622555223,-1.0842219112500746,3.2597109259651424,0.7712593358266331,0.3947493654901807,0.1923462696773427
11.42542347,-0.38518003727676514,-0.8131888150280899,3.299147142892934,0.9748481349679196,0.4243758122473044,0.1640974375664557
11.525423570000001,-0.25450341235080376,-0.5716283444909855,3.325938327320046,1.1477950883648753,0.4780764661200076,0.09578680502660081
11.625406314,-0.11080960297471405,-0.25559137493459305,3.472096072119231,1.2346377903284576,0.5009855288513687,0.005657043019917783
11.725359794,0.022335136336117084,0.09381522929688152,3.643705516874959,1.2103947132598034,0.48873059575605654,-0.06558863161402954
11.825347163,0.21392343402095465,0.40989259112370774,3.7213020810707462,1.1243455800576496,0.4175006529371391,-0.12453168654999115
11.925350008,0.36659562520957123,0.7557465199810464,3.7113573268983386,0.9130608336961942,0.3612162037456634,-0.15569836412328097
12.025370977,0.5782989043641295,0.9951180684731734,3.6349863518497427,0.7449845535892514,0.3328921190042846,-0.17466547310156225
12.125336549,0.8825613222778304,1.277972378566933,3.5652600246550357,0.5336749627826406,0.31842640132580646,-0.18674241796470806
12.22534992,1.1536215695216505,1.4184808842058694,3.514900383197579,0.3295356450857617,0.3183092055486883,-0.19103186727999472
12.325346644,1.489570269069711,1.531676075494929,3.436219684760075,0.08486427900163446,0.3375566778298475,-0.19752391618344034
12.425362747,1.8353321212718134,1.4780327065565504,3.3414021816140953,-0.1254297519774596,0.35415371828697856,-0.20727899871253955
12.525343234,2.1708657967668024,1.4742142921841335,3.2929448331667808,-0.3770659146404616,0.36791181099905335,-0.20576338157007393
12.625346897,2.453212782575996,1.3500487656541644,3.281138222151349,-0.5318353668693386,0.41461310023116,-0.22252732515872745
12.725406328,2.7067559506956087,1.1085776492911106,3.2721367246836635,-0.7588095169571171,0.42802534248287316,-0.23092693339255882
12.825343359,2.938592002990382,0.9164470115925647,3.2878473757898306,-0.9657583119920007,0.4351183215363747,-0.23162615937718917
12.92535045,3.0657551654729285,0.5857216226780084,3.3219232340947644,-1.253445135209158,0.4572739573301832,-0.22813849289133747
13.025346891,3.175599912070845,0.2894432911575934,3.3701204756193546,-1.47142837597378,0.46852093957707025,-0.23421146965575107
13.12533656,3.1701087319952173,-0.09313215884478587,3.3510055552771694,-1.6935612016382782,0.48088402724186924,-0.22449878480977628
13.225360005,3.1501931445089024,-0.37819530465235773,3.3450964982747835,-1.9179204645290737,0.4864435232723696,-0.22211096361912153
13.325361381,2.988441281977358,-0.7082111661299263,3.4008066540625688,-2.156826840995026,0.48386263812548386,-0.22208352807318252
13.425432799,2.7564983057302874,-0.9862404756415267,3.4409214583225185,-2.3829921479497327,0.4618876572151079,-0.2125262439346955
13.525353968,2.518390565986241,-1.1997072860847053,3.41680152578615,-2.578257401199919,0.4481524159791996,-0.2071594323503275
13.625437682,2.2543909119175733,-1.3635405923378094,3.428380479463065,-2.8186149253784754,0.43550950927980814,-0.21114776856402437
13.72536184,1.9548908984659086,-1.4452875200776074,3.399454715270527,-3.0292288073581854,0.3839162163190106,-0.1978590903065294
13.825454321,1.573529066428436,-1.4547981431487842,3.4235076352734626,-3.248676194938826,0.38386382705789845,-0.20458210156498463
13.925354456,1.260095678828275,-1.443536921155214,3.3462633838996494,-3.475257340280605,0.3626081946860977,-0.2010409391658533
14.025392534,0.918031297249905,-1.3271759135214758,3.312591013210453,-3.6931022592702636,0.3564864633958186,-0.21027531776462044
14.125337307,0.6220655013598354,-1.1132784445069344,3.2810981087610953,-3.9437972217101134,0.37416066705507545,-0.20300344457330366
14.225349485,0.4351768482279169,-0.9025882802456278,3.273514347258244,-4.081356813805501,0.4221545508020002,-0.1797488472840549
14.325435159,0.24039033105155183,-0.6075780795507518,3.4600084802318145,-4.262896503082923,0.488530477021798,-0.10153097527493532
14.425356278,0.10643065684823465,-0.3039656413730538,3.6415149136189755,-4.251478657629444,0.508651254873295,-0.0032368384105547774
14.525356115,-0.109254708194476,0.03273659403432182,3.7695932200077698,-4.231436235555851,0.4212597068408661,0.05360345125921796
14.625365005,-0.26778546725784497,0.3518238261945705,3.836992455192263,-4.146617297565108,0.3213684488016878,0.09209486991867377
14.725341735,-0.5016860464676579,0.6412496741100585,3.7982326850460333,-3.955760496162816,0.24804620002329283,0.11893577114887374
14.825348958,-0.7809552934881648,0.9615312384357526,3.659608374787413,-3.7582219263385954,0.19607328743431426,0.14364677706938012
14.925347644,-1.0904411124236753,1.1391845690502396,3.4750882614623833,-3.539033502524665,0.17320207521659706,0.15897188265174805
15.02534328,-1.3863005985078103,1.2594314750537436,3.303154996939241,-3.288484065909184,0.20288263529228606,0.1523382878983241
15.125340508,-1.7481650250453973,1.304010186952795,3.1868974432403148,-3.0357016669232744,0.25800868100140173,0.1546888143241777
15.225359202,-2.016499283011739,1.3060179784832424,3.113085751636217,-2.8853442195171617,0.2995049585046937,0.16507175939781438
15.325358607,-2.348446044251788,1.1706315558209441,3.0512721196877477,-2.6559433646860526,0.330792790977565,0.18254341886406375
