time (sec),x position (m),y position (m),forward velocity (m/s),"heading angle (rad), from x-axis, positive is CCW",throttle (unitless; -1 to 1),steering angle (unitless; -1 to 1)
1.134478233,-0.7151668587520023,-0.90439497362933,3.4388342751509535,1.1728127606098886,0.4334306081350438,0.16081386640487985
1.334479607,-0.37714773137517293,-0.16755153426938643,3.6294202018235193,1.2074281267360196,0.49592608536572763,-0.04904925671431717
1.534476425,-0.10686071166509568,0.6023756253114776,3.720759886566608,0.8320848324491372,0.3940919868329039,-0.145343004410812
1.734481636,0.45278961979371635,0.9027276342945242,3.62636130259897,0.6031332390621722,0.38461332201124154,-0.1544008415432576
1.934475476,1.1828394400075517,1.0846033720758168,3.53106523419078,0.09049620784981442,0.35570751842304704,-0.1539798587429598
2.134491298,1.7066977083769874,1.152479908988056,3.380360971223296,-0.19780600402298087,0.3403076405754395,-0.1695753439059257
2.334502493,2.3254555496981837,0.6657349710507329,3.196594545614507,-0.7490213224294641,0.35000559002358395,-0.17054544772860006
2.5344804930000002,2.604252489038452,0.378992429880603,3.1227445430372183,-1.1807139170176482,0.3588070446818826,-0.17845752186770644
2.734484609,2.8266740104469776,-0.401696095117476,3.2133098779144156,-1.6813894319950442,0.3678871109656073,-0.19324857454864913
2.934475543,2.6819374482800846,-0.8870616267979944,3.1083020710776386,-2.157626391879433,0.41616209685817496,-0.1965493324518438
3.134476454,2.2822964945363107,-1.3851575789203527,3.102796196335578,-2.6408918162805946,0.4215937905233529,-0.1908747459497836
3.334482853,1.6393472848054407,-1.8330452969472941,3.0003919469271674,-3.0573662757551334,0.4153086854170062,-0.1880254170877194
3.534485178,0.9787991418166129,-1.547920622780507,3.2677059389817775,-3.4237273651468993,0.27121603249686127,-0.2122665150650214
3.7344837980000003,0.46647728103718394,-1.1033464113790392,2.900735489626586,-3.9825341367538725,0.3867141268237983,-0.2055411029035935
3.93447218,0.1520884513323582,-0.6755175575587734,3.2955806503974814,-4.314564402826442,0.5568921576261381,-0.08008466652269086
4.134473726,0.011373069202083134,-0.13966438538920165,3.6695197263103005,-4.417864559746246,0.43542210887290983,0.07710301987867893
4.334477459,-0.442019938385601,0.5239503637886384,3.6139797856390325,-4.164074958028196,0.2696553921321327,0.16007319717269786
4.534485463,-0.8934743399553003,1.0333611928061166,3.442796496224057,-3.5974532395173395,0.2371048101189124,0.1844925505261819
4.734479766,-1.4723943642674724,1.307826236586353,3.2594577617183633,-3.2618978827647562,0.2934485500905246,0.17345096732085794
4.934486891,-2.0068790780964036,1.2538428367937113,3.1867327760817994,-2.7692043416790786,0.3400296805318508,0.1836945979474165
5.134478905,-2.7405445011688694,0.8806179167497399,3.0265248571094254,-2.2785100541697005,0.3606088593364624,0.19869541811016123
5.3344857900000004,-2.9430412700933792,0.3680178184163401,2.9922304820896897,-1.7448807414041407,0.3557263050024185,0.19855286520388457
5.53448431,-3.0909640951691273,-0.08936173854461901,3.1657132618602546,-1.577653226435575,0.3443216219192289,0.2123633151648511
5.734481875,-2.7747446965251235,-0.7636482241690296,3.1615679767624982,-0.8871306515262294,0.4208014882801674,0.22251566621284025
5.934471618,-2.277297321379473,-1.265740434373738,3.134526657399633,-0.5426405904502966,0.45087389506578374,0.2227049020857875
6.134472047,-1.7599581719613822,-1.2895104758456808,3.1769703225025125,-0.09956165082851173,0.4658140591158492,0.22123035994405085
6.33447686,-0.9428611824299268,-1.313608766434078,3.117571877893926,0.4565598690262542,0.4290522239147108,0.20440587180500647
6.53447727,-0.5552411220044594,-0.7147444868839702,3.357848149178702,0.975274155060187,0.3939989742597494,0.19072077014988245
6.734477787,-0.3114893792952696,-0.1760657762034202,3.4171164630916366,1.1573759573873597,0.5031055080116658,0.04026252322157642
6.934483623,-0.10931518013231392,0.3384951744764474,3.5565398470882643,1.0842227265673459,0.4310611106756522,-0.12123116174062312
7.13448004,0.32466714248262757,0.9520009652023971,3.4341857732633185,0.6968764317769645,0.3617412123554633,-0.1679787766248376
7.334477931,0.7451448723847747,1.3554070410938066,3.547695113638768,0.23947216905507968,0.3712146431727189,-0.1657535354934653
7.534476575,1.7669549723828697,1.1480592921680244,3.299816696100578,-0.2446322673627528,0.36510646972943245,-0.17581686243023736
7.73452169,2.2827430941362152,1.134606116563151,3.448933379978026,-0.5354129524072326,0.39721498924089044,-0.18899192975280316
7.934475946,2.629178009995031,0.7309492278187143,3.2529043940030196,-1.0776737644482128,0.38638366796577345,-0.1790560474880193
8.134480675,2.941640492368326,0.23079374093234667,3.3300042583813014,-1.530556148507329,0.38830611199058535,-0.19459195118652542
8.334487294,3.0079781485854085,-0.3460479829138721,3.2430408349468807,-2.067276246485406,0.4255745333898077,-0.19377805169209297
8.534478677,2.7510957543715513,-1.0011540567928217,3.2772001992040183,-2.2793200999343486,0.41664179246673,-0.19441484472313048
8.734490785,2.0949380726152014,-1.3504893880228601,3.1922010156668494,-2.8215994306172294,0.4194085877937471,-0.18640119505865554
8.934525429,1.3416420536122358,-1.3990617242526806,3.2594558929968582,-3.265796903117158,0.38889626659069937,-0.18985728283586772
9.134477949,0.7913345287447743,-1.2281395990531956,3.27416314024764,-3.6956691801671417,0.3633699834734078,-0.1845634932294703
9.334472548,0.3106183595493246,-0.9878206132426142,3.1056304811161524,-4.141478792021348,0.37360454337852694,-0.19356867861661778
9.534474563,0.10839598871284342,-0.19242979359703036,3.5547279897814996,-4.396047489806651,0.49391125587253,-0.006211812172838701
9.734480534,-0.27532794745447287,0.30185191637959385,3.755621232379997,-4.344860732953639,0.34040571927761865,0.11731709067787363
9.934475588,-0.5772529422341397,0.8327252152755847,3.631201617455052,-3.969728156328048,0.25378513584165185,0.1772247178356364
10.134538746,-1.334362634345216,1.3830439040605478,3.1916553321232506,-3.3813549025231566,0.24169834606040652,0.18147050989740354
10.334483686,-1.895075806864715,1.2918797178930534,3.098883392002789,-2.988032887352019,0.32608975553563807,0.17394763689667536
10.534478162,-2.3741257896732844,1.1416568219911167,2.828583619296837,-2.6352786747962065,0.11305003292016076,0.3131494147002356
10.734476474000001,-2.645310808159646,0.6987282348240329,3.035881940868522,-1.898027659149374,0.4710454238884474,0.1656258837792193
10.934480776000001,-2.88098519631535,0.08916780931332927,3.174657588952502,-1.7077957218033721,0.3963409553195502,0.18592865566189962
11.134478265,-2.863779421992167,-0.6627221993047778,3.2030971782544575,-1.098769551619261,0.36464629936242526,0.21778336271734028
11.334485168,-2.284766453047993,-1.113556903907483,3.2980666783099992,-0.6116645607028477,0.38813088124192835,0.21804797151642236
11.534476502,-1.845367533399826,-1.360405596696536,3.200500288313046,-0.3988728944004999,0.44405554353095256,0.22068854994526718
11.734545349,-1.283780730229702,-1.3214143722522413,3.2455021614332966,0.10828530584117924,0.43394431944012035,0.2139608213994956
11.934514243,-0.6923971116764064,-1.1122798070264395,3.374743642262456,0.7105595657161142,0.4038423789134344,0.20192874073941489
12.134472996,-0.30952491296185713,-0.643955734711993,3.281615760117325,0.9973565030732099,0.43014803627645526,0.15517056568286133
12.334480204,0.05900082408111624,0.056861895363911716,3.2552571626558073,1.2347550969877805,0.4679604546131549,-0.04590601158463427
12.534483336000001,0.35555767882929257,0.6891080966247272,3.497075372947799,0.9757118084337656,0.363159615888079,-0.14560467551579276
12.734464667,0.8974549457438378,1.2166235351702466,3.544798959530536,0.6294299859956136,0.33093558512558674,-0.174800801655963
12.934474438,1.4292423863940953,1.3800183215628372,3.3998152440323484,0.11548158154884919,0.3494862040072689,-0.17579997539844078
13.134478373,2.071706596226045,1.415962063996558,3.298599863686201,-0.27764403278053895,0.3592859621325835,-0.18559241303279103
13.334472586,2.5925342870410013,0.9599577821374472,3.0837776258065333,-0.7740320803355416,0.3989182835863199,-0.19532954064140373
13.534474661,2.9293557902755385,0.4504637147264809,3.2469025860803793,-1.0466076964306494,0.3972155615761954,-0.1986019594223619
13.734478713,2.9635663389892493,-0.08235397520781687,3.153927149027904,-1.6545675383997254,0.4213539558812363,-0.18460465140099247
13.93448216,2.90090500050715,-0.919039304666722,3.4536755662816954,-2.291674669374085,0.43233680770820837,-0.20142590593521204
14.134472667,2.5037575008237836,-1.2385709409163854,3.389725981763492,-2.549023192789121,0.4222928674568084,-0.19109282699996832
14.334487961,1.99914114937734,-1.3360700940666685,3.2768058881712165,-2.936891665694899,0.40807892554128533,-0.18762737138349606
14.534478846,1.2605430524162333,-1.396707283515826,3.233907470767035,-3.39495709006125,0.39344557025148885,-0.18845471322706514
14.734482311,0.7989783191205987,-1.2122065184189201,2.910057429999414,-3.939560612134857,0.3161820269864351,-0.22647227887964427
14.934482462,0.47388202742728674,-0.7130531410212662,2.907822875531672,-4.453705222431655,0.6509046070899552,-0.05944622053195882
15.134488897,0.3573588489578829,-0.19076424181105844,3.4364996150609,-4.6675130819160575,0.5475921080644657,0.1476179302147116
15.334478697,0.16291989753868838,0.7837489877467568,3.6729181068123924,-4.531358728405638,0.2588124805752605,0.26992698482983446
15.534484325,-0.19391715539345772,1.3178087052252665,3.391983380749985,-3.8511567703981804,0.2292129394814095,0.2659611237125875
15.734482664,-0.4048694721242381,1.6323973705301749,2.927487990399386,-3.327884434456881,0.4652982645469606,0.2047333744469969
15.934484558,-1.050746859674255,1.6505474806034843,3.0827814980321815,-2.8566546123700673,0.5483187373546965,0.20987443797498576
16.134484812,-1.9132818932271487,1.3515306560907823,3.1690407283449735,-2.564823815368349,0.41096868164546346,0.22486253050324845
16.334480331,-2.2551570771825324,0.7548770053477049,3.3949706029889084,-1.9982561338733058,0.3279602904199342,0.22933299372829655
16.534479279,-2.4599749337480494,0.29733322489012337,3.143133596730033,-1.5976236621135214,0.31605562829734835,0.2144083336592837
16.734481282,-2.2590145091644747,-0.447785655674347,3.0350124849184428,-1.0654117775612557,0.39739406270962907,0.21463609913872597
16.934478423,-1.9185097999266216,-0.7413391981939179,2.9801771112055,-0.41623443734697235,0.4073257079363214,0.22963741804639673
17.134475917,-1.3892548343675264,-0.9031200535221731,3.071888472430927,-0.06129841863784116,0.4074511838122921,0.22948071792060518
17.334491483,-0.7143122638544512,-0.9975862353359163,3.0140942815183926,0.44819457351857095,0.39568655739723063,0.2283376459064193
17.534486425,-0.14673558900609493,-0.5875044799088907,2.9609182827463245,0.840587358310775,0.3606227197984869,0.22345305565735746
17.734494777000002,0.04599800716455066,-0.14376391222784501,3.111899886532025,1.2835804672534081,0.48178799431779545,0.05825977275875214
17.934489496,0.4416697860486954,0.524916246514672,3.3115175730035027,1.1534708727710896,0.4349251993654703,-0.11398698604268394
18.134474466,0.6968484312092108,1.0920583777562016,3.365332835082964,0.7585975492347053,0.33913462787416576,-0.17796378192579332
18.334499279,1.120178646540665,1.5161158214551502,3.2876794308223802,0.31774848220897156,0.36838206717591826,-0.18336032326365884
18.534477624,1.864118121656489,1.5073584971403373,3.1306598363697127,-0.05182078470969028,0.3827768992415647,-0.18776188990414097
18.734482655,2.411570337503076,1.4520516900269178,3.130566406431286,-0.6148078232592183,0.4112145210934826,-0.1929314661282281
18.934477149,2.979892253431217,0.8829639276943522,3.2610560911417927,-0.8573290468542833,0.4232900481420012,-0.1928581675129731
19.13449293,3.055911911210384,0.29116295392380787,3.268612790669462,-1.4819818157407099,0.4243160369877965,-0.19460502691218112
19.334477665,3.1831925873228655,-0.26389343881280347,3.374401718964706,-2.009467640637132,0.44723260864605785,-0.1895429745006281
19.534469148,2.852910035320224,-0.7809298661933355,3.333477850110676,-2.374687871299327,0.4175691884153409,-0.19003331406330418
19.734481854,2.1459644730117855,-1.3054987172631194,3.2986493140121977,-2.7434710468041774,0.4107263490937578,-0.174525990052409
19.934482467,1.5607725946199242,-1.35497417331124,3.243460571641086,-3.058960737497836,0.39946581122409497,-0.18591001011645808
20.134477101,0.9211066657247445,-1.2006542915810936,3.1555528352801634,-3.8719227143434,0.3342314840134383,-0.18513700648618348
20.334475564,0.5058128154342898,-0.9936546502732807,3.1427541527798564,-4.193089054421791,0.3545808924435818,-0.19255356913707874
20.53452008,0.15769084842191172,-0.2252715630461007,3.3822677144689197,-4.315407077738851,0.4807677551519181,0.0015660240438539652
20.73447442,0.119875695400342,0.4729338559951288,3.7247443924234065,-4.253728689909561,0.3523925661286009,0.1261035431486765
20.934490479,-0.49919949546509296,1.0714479081787813,3.533651717142472,-3.88992036102894,0.2710925634614984,0.17554070431666124
21.134484018,-0.9248591062549428,1.336577157138998,3.2923245970683213,-3.363805980114775,0.26305956004616393,0.18306386188047677
21.334482516,-1.6918673951817138,1.637523498978253,3.15062531976138,-3.0046360487856787,0.3369629754734276,0.18370519464979237
21.534490577,-2.180733068590825,1.3918499796342259,2.946951198034722,-2.512778457904214,0.11406789969958464,0.30780660166300916
21.734483853,-2.743093138736282,0.8446683714877824,2.923599637150626,-2.0284116486588832,0.4631384247726663,0.16063481694092116
21.934492958,-2.8567493183673256,0.24439392328347137,3.1695481602607884,-1.641774645864536,0.38624821752316185,0.19941712949262397
22.134504267,-2.774439730061599,-0.3853707698234059,3.218709657023527,-1.237794718657897,0.36259925641790997,0.2174544972450275
22.334476088,-2.371269287836695,-1.000156363046956,3.2631569995502048,-0.8733916505491703,0.40965739641096377,0.21778784248492028
22.534485954,-1.9018526287352062,-1.30216065880693,3.1821171809245747,-0.171142344805977,0.4521017647249661,0.22920105588797435
22.734478736,-1.1657582824067714,-1.3648367407721356,3.363903129185177,0.30790109501979696,0.4298328534751483,0.21141307286387143
