time (sec),x position (m),y position (m),forward velocity (m/s),"heading angle (rad), from x-axis, positive is CCW",throttle (unitless; -1 to 1),steering angle (unitless; -1 to 1)
1.1254747090000001,1.9258522480060816,1.4711797431914437,3.1343431991252335,-0.2503745602065711,0.3699050148573615,-0.1764107586382356
1.325478524,2.285135412562054,1.2778111181851488,3.089537803640918,-0.785023738784224,0.3590368844439554,-0.20232646251490974
1.525437577,2.826242575658951,0.6483010681254331,2.762226590628294,-1.1423751529485546,0.4156712178809211,-0.21238979515087192
1.725478144,2.8118186015163418,-0.012065110358623232,2.9024512834358065,-1.6255089367970366,0.47565439325138065,-0.2114601205890064
1.9255105000000001,2.646639215844988,-0.5796249832067248,3.109685919775913,-2.245832574619046,0.4806251948584731,-0.20397442446798592
2.125444009,2.1431867617849036,-0.9586936563636788,3.185171305734775,-2.4402587435015866,0.460399550449353,-0.19176446309376427
2.325401902,1.6867998877297279,-1.2257313786837094,3.109794890131377,-3.0738854857382902,0.42510681729274274,-0.1965614615801357
2.525479591,1.0527792443989838,-0.961424398574656,2.9469498045603943,-3.494961433279645,0.3553273464009504,-0.1905288051104603
2.7254495160000003,0.5588003573752169,-0.8879647707780592,2.81711232162158,-3.854532128238303,0.36728721279509075,-0.20098968348666893
2.92544249,0.23385828018793295,-0.33499017088706856,3.1850826381019015,-4.2642159312681756,0.5314608192851048,-0.08865775072970733
3.125396515,-0.09206393504426437,0.2424224429773246,3.35157903025418,-4.297935834668475,0.4371495539959549,0.08100644640515882
3.325423537,-0.4407021969962211,0.8704699597133061,3.3610452170067378,-3.978397064299718,0.3126221102434937,0.16962479143358905
3.5254833320000003,-0.8940845673647119,1.359599105466142,3.431531872424551,-3.8266556698050973,0.30148341566225495,0.1995333798428926
3.7254685910000003,-1.4428323060685528,1.5935577070574993,3.2080250660521537,-3.1691004138648022,0.37974025446220955,0.19835749687012236
3.9254111490000003,-2.109976365335121,1.2969075475149356,3.174639955770644,-2.720283044761078,0.4331222637417994,0.20381667849853788
4.12540514,-2.6854011650507124,1.2028052989348292,3.3649007101081896,-2.3995582871931918,0.42499640920638376,0.2072067052008706
4.325421957,-3.0586547357253093,0.49752331224937324,3.236953613278421,-1.8104897301103944,0.38327762030933005,0.20418836649811273
4.525472431,-3.0308554289161176,-0.026262002381599682,3.4110428445271976,-1.4700883344782396,0.3463198953878794,0.20284230824905775
4.725398951,-2.8746388745537095,-0.6371213983683269,3.021469567623683,-0.9334215320579263,0.3183405533345175,0.2122218378298613
4.925477581,-2.498001773643855,-1.0380005038841282,3.005087661707026,-0.5302930315447971,0.3625021488354424,0.22975892470431492
5.125497928,-1.704199910575412,-1.2477289535622338,2.95873216303574,-0.003070273895024893,0.4529908281430926,0.23514324710338302
5.325382549,-1.3138549409174403,-1.2568086790894248,3.243446113310814,0.5069874074271506,0.4577463052751977,0.22892724266005518
5.525374837,-0.7402968076444043,-0.840088657357742,3.13497282259514,0.9644879697296609,0.4477662501230384,0.21435622206305457
5.725379821,-0.408807117529256,-0.2661712418393215,3.513481761863236,1.124428622962555,0.5385871890661263,0.03778209273729825
5.925463446,-0.009282814590629782,0.35460839056035665,3.649719892054783,1.0057490111891572,0.45372132069071835,-0.09773641938497497
6.125410197,0.5447875102738844,0.9110129480606867,3.6253910525936615,0.6703968172216576,0.3807935616796926,-0.13681154827733732
6.325393337,0.9288910188634061,1.2655924190994967,3.477467366959644,0.35695489794135804,0.3317799369433623,-0.14241068013522354
6.52544055,1.677602934696726,1.377799577408462,3.140709876315861,-0.061682505577948785,0.3067677648693219,-0.15150668569341108
6.725414875,2.27530416272724,1.118737919474494,3.0276839126820003,-0.42512593564012674,0.3167905234089379,-0.18284529528208027
6.92540448,2.721000534412266,0.7717235681647245,2.9993455057155516,-0.8886372599899023,0.366890908398903,-0.2113149150883293
7.125404056,2.9678894367772117,0.2663537018460381,2.884980004803613,-1.3756636138455527,0.4458804032941415,-0.2207811898680598
7.325405648,2.810705609208166,-0.265983688482873,3.0700442620009967,-1.856441090597861,0.5029112945670638,-0.21573834717027124
7.525406448,2.510663049774172,-0.7899871072925341,3.0693153166765685,-2.478027750806375,0.4788768407359455,-0.20639004855162119
7.725403898,2.134747532135938,-1.042348684188607,3.08047613438518,-2.6771467319238558,0.46048491061413294,-0.1922686258916703
7.925395628,1.4589537739038634,-1.196013240170133,2.9210820070930628,-3.344662027405183,0.40314449323369456,-0.19163448430840313
8.125402871,0.8076210116365029,-1.1203805277518093,2.971003034477516,-3.7628169685181487,0.35752324492083987,-0.19492282807082553
8.32544344,0.5550251218417447,-0.6646773277184603,2.9735624632313593,-4.249590563096154,0.407083670383348,-0.19819313257026255
8.525523025,0.18227187399413033,-0.032083739178128845,3.28600177599771,-4.452047303371422,0.5292974623244464,0.02002704637769674
8.725402509,-0.11192300017841303,0.5315899330295543,3.3893674450022666,-4.267189003589494,0.38581575988587585,0.13518723397766352
8.92538891,-0.3595743233113941,1.0226010948563773,3.502890899930912,-3.890567141879498,0.2949447375785057,0.19259853977769326
9.12540685,-1.1208317983295821,1.4556039383061055,3.3797608090489173,-3.4690572348630266,0.3460181250612717,0.19660092237952764
9.325372983,-1.757967369623106,1.503610492770332,3.266947590539743,-2.9656526115163633,0.41949738086168437,0.19955084617138336
9.525398799,-2.2242294505561313,1.262593840230412,3.3418411801935015,-2.482691235465511,0.42722133586562894,0.20188790692867883
9.725403225,-2.797877718367931,0.8550670063887071,3.3311913270851345,-2.074635826033259,0.39267518746733904,0.20875341205730544
9.925395135,-3.031947247697499,0.24206203886379604,3.265707931552459,-1.7503955361078605,0.3751399757376196,0.2007180402653864
10.125417389,-2.874129170098111,-0.3797935553008555,3.2705330513208266,-1.1018897500117177,0.3225749867071513,0.20475420842698802
10.325404477,-2.6581614188234486,-0.9203443230655821,2.921891288191178,-0.7717876402507778,0.31793535021642283,0.22275019059122023
10.5254035,-1.9889969213738867,-1.241408098457771,3.0477341843047516,-0.2423490930464688,0.4067313543125287,0.2401486949843817
10.725399844,-1.5349991231143276,-1.3699985765059854,3.019742853912838,0.10819987430887934,0.46295352798171596,0.24063129085120968
10.925427508,-0.9901073503056419,-1.2011139524798562,3.057991143341269,0.5183122985798079,0.4671742877440167,0.22229645950860205
11.1254008,-0.5052971279401908,-0.521374962876882,3.417348976867716,0.992840047212276,0.5123195418916494,0.15272876747894937
11.325398491,-0.07273721518404802,0.13865824392036805,3.6627579559546226,1.3279728128261843,0.5315325009179909,-0.08708969042340589
11.525409246,0.08916191462750614,0.6034326550989263,3.628777386908022,0.7978853089714227,0.43395478641393886,-0.13480480386528812
11.725401909,0.5630266481856129,1.1341785961787911,3.5407539879240972,0.6514434098284013,0.39990769193813824,-0.13707895107111392
11.925405204,1.3329309124166042,1.3845942434312093,3.297881900381282,0.03224586109090638,0.3447884101545309,-0.1417448728701623
12.125398133,1.9535012636765483,1.394865900416996,3.1663335972775513,-0.30698733247304943,0.3123519010029784,-0.16552098443911747
12.325409294,2.3482936441009117,0.9782701817081144,2.916898998987756,-0.7258150061841122,0.3313982544057062,-0.19837210969241564
12.525401438,2.7904326095984078,0.5540949584149508,2.9978760534508377,-1.1535325546094817,0.41227199649151436,-0.21816602460488135
12.725398644,2.94982071116452,0.028983398134173458,2.7818140536254754,-1.808868742837745,0.4796795748215979,-0.2107602168323189
12.925398363,2.6990742655834428,-0.6266558583663457,2.9883657927371163,-2.2362231278803586,0.47890692998446965,-0.2016485549643745
13.125460396,2.3520524738135276,-1.019267401760269,3.121819546881801,-2.5438959024072534,0.4684251251581038,-0.19799037649728954
13.325401756,1.7145010393737785,-1.2542607468695472,3.144458980948898,-3.1395019923329652,0.4266882327934618,-0.20058323833658803
13.525445711,1.0035484882102126,-1.105526245919094,2.890736506858213,-3.485828530080988,0.3786390188551217,-0.19318880897517282
13.72542756,0.5800940018635515,-0.8983072713154431,2.9013107588375746,-3.914366082762313,0.38287085699858403,-0.19908858187269396
13.92540152,0.2273441906282908,-0.3281830024174925,3.057278918035462,-4.36533348667546,0.5198177074018003,-0.09009236668720892
14.125411697,-0.009487047972257297,0.22568354234534116,3.5533999820841866,-4.143420310679312,0.4520889875983377,0.07698325717587867
14.325403422,-0.21439797324394472,0.8487866826996633,3.575550988746618,-4.257408157976302,0.3291953730132859,0.16512202885950844
14.525405756,-0.7783983805519925,1.4288836857405696,3.4261496284929773,-3.664455396493964,0.30262396255114016,0.20038743914333157
14.725435793,-1.4529894960584824,1.5799969519655386,3.3535551803567256,-3.1930639950667423,0.3728892333755929,0.1939436703225361
14.925403411,-1.9721590061715937,1.5048650045548637,3.1256428305868686,-2.8034602724367694,0.42585630983236733,0.2091102761287741
15.125404463,-2.7270223420277957,1.047032218370964,3.296819443910885,-2.360658981662983,0.4165175158164003,0.2086849130691828
15.325398953,-2.9350644256726675,0.5290486735617279,3.1552640783244272,-1.8876579972621066,0.3824091857519491,0.2042912792857908
15.5254352,-3.023849353184737,-0.13723362356381563,3.1460262733311843,-1.4033612517084268,0.34441580697305707,0.2103761388987859
15.725436636,-2.850376874496443,-0.7169226260339152,2.9514563225196007,-0.9741844927480615,0.31171836083217347,0.21439551512932936
15.925398436,-2.302370342266749,-1.156596955993582,3.0270177162322742,-0.4938128527551312,0.36623479733135045,0.23450369639948632
16.12539833,-1.9141812421040878,-1.346763169870026,3.0610108327129155,-0.01249155430479592,0.45195371019182656,0.2405036447450615
16.325469389,-1.3717012951337137,-1.2558678450583283,3.1669041104356292,0.4011993787459132,0.4665202932058214,0.23086096435783568
16.525409195,-0.848848030774409,-1.0142786383910598,3.2282691256040845,0.9280149456281064,0.45467249031629015,0.2183291631855708
16.725401266,-0.3963681489660046,-0.4049812868701108,3.4759126431439653,1.0799030421791618,0.5461478103179813,0.04069264626790317
16.925400965,-0.05076805331237955,0.41350474645223545,3.711804777463163,1.0627266761566783,0.45345305018834176,-0.09529554759972632
17.125448733,0.29455267234097676,0.8359340513145282,3.7497800458907213,0.6102235040331769,0.37990355827009875,-0.1408245714538341
17.3254408,1.0770372314148664,1.2282301489511727,3.337533950414896,0.30109352099850045,0.33099354062336095,-0.14412975426925417
17.525409614,1.6603002361358337,1.3189221978696364,3.2050496973623765,-0.12722333906716884,0.3051630921369232,-0.1560259484801183
17.725406934,2.2845888850356766,1.1186374706134838,3.036377956682354,-0.5051012254673779,0.3110796569822623,-0.18466701272186758
17.925401465,2.617033830293411,0.7941625562154006,2.7492729561680127,-0.8517380390729841,0.3835563338171552,-0.20667448386929488
18.125396329,2.883693791096499,0.5285694484392571,2.968993133127763,-1.3685495145704198,0.4453873737815661,-0.22345340648487996
18.325455556,2.8913866507277852,-0.33575387816355645,3.0731642032481714,-1.9769043077931572,0.493144841438445,-0.21579076462795335
18.525395974,2.549328551769826,-0.8752047398254809,3.1177430009360783,-2.310662638925366,0.4909630229591125,-0.20356133088509332
18.725442282,2.094184716637583,-1.1450955485235654,3.177375077039851,-2.8595442167785783,0.45594653233893234,-0.19637933829682444
18.925411326,1.3905109992979854,-1.161000397035877,3.0227111268849707,-3.229116794191055,0.4062342336366518,-0.19644800206878646
19.1254065,0.863644073475875,-1.1695350467359615,2.84552616521645,-3.642428023551431,0.3594430977388091,-0.2024618700364658
19.325406938,0.5252688775654196,-0.7462704671040636,3.002486596280836,-4.265589825851475,0.44955660627153043,-0.16950164303208368
19.525405905,0.3278619602654963,-0.16059866124600408,3.3036104867180165,-4.353802842161606,0.5691406716676524,0.01708533504744359
19.725399641,-0.03660574562809885,0.47295531081508235,3.4887337862045547,-4.103756052314359,0.3703330871711799,0.13180954598668043
19.925404984,-0.5029044484628031,0.9824374750812184,3.3393870608656484,-3.8928438283427775,0.2999865740662131,0.18933055997993561
20.12540331,-1.0214662735835158,1.443355876606599,3.2043869902974764,-3.4211157423496195,0.3451868168084744,0.20258357857135081
20.325454945,-1.694394386027938,1.3831610211875778,3.347502576076895,-3.038111615388728,0.39993707713094034,0.20252774944945684
20.525410681,-2.250777827073806,1.297986779483277,3.215037229956831,-2.606059813575698,0.43135493639961536,0.20814486866397716
20.725392071,-2.88815512537505,0.792716600073569,3.3873606692870104,-2.09913304054757,0.4034475107563094,0.2059208320825946
20.925400044,-2.9261967044660095,0.21974181134466353,3.1484507380410123,-1.581465903254233,0.36115643283018983,0.20345053675243663
21.125395234,-2.781358715054251,-0.41347445151691864,3.0572991910934326,-1.1041807026281836,0.32034405944985656,0.20965894997595402
21.32540257,-2.58594562058881,-0.9298935919801384,2.917009305514781,-0.699991909560123,0.32246249424461526,0.22875627893140918
21.525399671,-2.1639208927209874,-1.1769550471396022,2.9681390410050015,-0.42279435013397265,0.4230875016763931,0.23611051476120692
21.725399469,-1.581463317397689,-1.384744225133828,3.1062223226089496,-0.003427692456427406,0.4637517805521715,0.23213083434722828
21.925401641,-1.0205525117487144,-1.1361800264156123,3.2600697967529446,0.6878401577349608,0.45294161288897616,0.2200644693919822
22.125400433,-0.5577369829662097,-0.563286163182982,3.3613315729240583,1.180450341830473,0.5080249660344961,0.14965355050584941
22.325398826,-0.20886467249509777,0.061311472014295654,3.675090641439526,1.2083871731002809,0.5079395901478602,-0.043161118670640236
22.525399258,0.1648613592693588,0.630230314016858,3.6609648119662315,0.853923695471542,0.40016788394649216,-0.12319058605001952
22.725451454,0.8632085227177787,1.1931198948964228,3.62111122775446,0.3541692347909887,0.36495576596210866,-0.14766846574768377
