time (sec),x position (m),y position (m),forward velocity (m/s),"heading angle (rad), from x-axis, positive is CCW",throttle (unitless; -1 to 1),steering angle (unitless; -1 to 1)
1.138132522,-1.0293810269545165,1.2183198231694836,3.45534682201789,2.759043686818198,0.2659612237819929,0.18267765199649788
1.338130328,-1.8414356276471295,1.4963102870309117,3.115688010928711,3.1876073805175187,0.27173982411852055,0.199484616697634
1.538133034,-2.2978627290817335,1.3058645087472025,2.982524848501574,3.842057074447829,0.37025368207581116,0.21333363097822786
1.738140618,-2.6700374848527186,0.7465392042401158,3.017299536456722,4.118788441954138,0.47677989904575785,0.2329668352977845
1.9382145990000001,-3.133258229084654,0.28821664965495225,3.197698188210941,4.54246103494615,0.5540730082017868,0.2135733792113166
2.138191318,-2.949226484173102,-0.4268739642238111,3.563952163753154,5.08016809849997,0.5212300175791053,0.19728037383806668
2.3381360620000002,-2.515182406945844,-0.8621980285930301,3.4367866314161795,5.707447562918534,0.4724612140041988,0.18869122398144264
2.538232876,-2.0702941705228337,-1.2999070494847897,3.451361186463418,5.864027740412208,0.3890253869173766,0.18886925295297066
2.7382137230000003,-1.4025867381100134,-1.5934596993178018,3.164789675096947,6.370295692653711,0.31610392180274643,0.19974883135148522
2.938134416,-0.8917333491611217,-1.4233680924156016,3.0731237813701666,6.807105184756856,0.3463233393608316,0.21303807928711183
3.138149172,-0.48321846247702543,-0.9155470984192244,3.0611457466350647,7.042526715431906,0.48677235761318655,0.20346994474772773
3.338131094,-0.05063135719005071,-0.5241627823912637,3.4603162929368207,7.4187703751748515,0.6117102136575264,-0.0017791925782735581
3.538164974,0.19134758965655915,0.24867654362014452,3.7955234910643556,7.471319263513993,0.4211563663089721,-0.11078968930039719
3.738142583,0.6414671505230697,0.8379170975829613,3.717987527704992,7.170969994476732,0.21861820865558046,-0.1935739156765195
3.938129361,1.1127607072209589,1.3733254962212011,3.276775301683309,6.663445367799472,0.16475071943130373,-0.22417497021465327
4.138134304,1.882297899745761,1.3693613034135426,2.9948146936904205,6.27096737625804,0.3250935081258815,-0.25584291333401055
4.338133908,2.5325433995356725,1.1712749788077301,3.0383699766047565,5.903478699852723,0.49720720151170067,-0.27615369791844413
4.538224463,2.8810103679535026,0.7843141652700305,3.1537730448584647,5.238243525746758,0.5694978775896723,-0.2607787065952005
4.738214843,2.9669607947287537,0.22065118566450942,3.3993983653729836,4.822667027431872,0.5786054397357335,-0.2340494700471037
4.938145306,3.0959758631497163,-0.4257924001369465,3.2120253678613917,4.393424052072209,0.5024383890685035,-0.2074429531251362
5.138135086,2.555575653118187,-1.0401168342911058,3.4521893210592847,3.9195333330652558,0.40196158171562074,-0.21796318492770814
5.338134261,1.9807505672092502,-1.225772911747823,3.2368590149615932,3.5904196871236778,0.3374248258904145,-0.24234332568437197
5.538131895,1.3814362544961836,-1.4360234001779895,3.0799063623822223,2.7352732035683203,0.36271305109938573,-0.26553812666606375
5.738134502,0.8724755183004618,-1.247878826022999,3.1114784102402298,2.4883243546848623,0.498643748992282,-0.26660544339479497
5.938225891,0.4779535222755838,-0.7127318604142505,3.1575842141486645,2.0153823969840023,0.6347585141401171,-0.1398576839478969
6.138130291,0.1514935596103416,-0.0656957379883475,3.8329918564067276,2.092090628892032,0.4955551240097038,0.02918658116633791
6.338134196,-0.2938000613515024,0.7587040605225558,3.890912093160092,2.3911192023671193,0.307862672914266,0.10606220700895305
6.538239385,-0.8316491060357556,1.1514773907586413,3.6544754074233494,2.554257350750464,0.21161859070710973,0.15126854044687033
6.738131469,-1.470655242937911,1.5963090784207346,3.2384433260901426,3.1789021244714926,0.1936966999578782,0.171897223598644
6.938131554,-2.1825315905027747,1.4357504172688131,2.9521033075092498,3.5012482224981527,0.29297684610414365,0.18720898330025437
7.138132969,-2.668822026648621,1.0393942673504803,3.0018863923764343,3.9821985683656425,0.4449055141054501,0.21849011059116655
7.338131262,-2.8841710355532677,0.5168797024536661,3.0010167090289603,4.477881340709295,0.5307961635525408,0.2110755525811875
7.538130603,-3.0280373563737397,-0.07511279831403611,3.219812335399468,4.878305029494333,0.5650411152396847,0.1903453629107442
7.738139429,-2.8441502365958846,-0.7589485247120707,3.3910227264443007,5.353405602462946,0.5209060186729834,0.17079167919727256
7.938146716,-2.468962931318723,-1.2093557476479087,3.567951050644321,5.738040212152455,0.44254240863481276,0.16497837108416724
8.13822256,-1.6499710760316497,-1.4334193468505279,3.3957656684083575,6.185378155535793,0.35319361419401557,0.1764065170821601
8.338144077,-0.9955491810400892,-1.2913834845221626,3.197287958177336,6.574854571735539,0.3190345132674789,0.18918671320831804
8.538131809,-0.5772724748223642,-1.0744764293573659,3.25184134128071,6.939230317341869,0.40190564635494397,0.19927434567007776
8.738164684000001,-0.28742583218649187,-0.6432945678242715,3.187196327270225,7.402327380216309,0.6181230904109226,0.07849218378146244
8.938236004,0.10232481085454655,0.089852731937692,3.591032333662944,7.237229712478624,0.49752162907086817,-0.07610283762627443
9.138141433,0.4678237163751236,0.7088912865651784,3.734640095556597,7.353045509615395,0.30249580154393435,-0.16631250032473666
9.338151364,0.8405347018696491,1.3595226269245615,3.4434017086251028,6.976108079477398,0.20547975935914464,-0.2084815988863774
9.538131318,1.436052593562843,1.4727004793992873,3.185324403839605,6.4026285355364205,0.26287739981965075,-0.24141686153197625
9.738220537,2.117146618316132,1.50738039037048,2.997008712185195,5.88130053761876,0.4295796736208862,-0.27464378047596544
9.938139974,2.5945387973874503,1.043768082554433,3.121084590033121,5.397505410983765,0.5915690393575475,-0.27199709941103306
10.138220608,2.956537331898926,0.710927426608469,3.301685326248266,4.933803813982846,0.5887049384494546,-0.24648869839592866
10.338132476,2.979931254658298,-0.02130919105549945,3.2187688621480057,4.406704422958188,0.5654891013612813,-0.21209868467346127
10.538209382,2.8502848345674203,-0.5781567821721225,3.438093099559197,4.01604885272736,0.470695569103496,-0.19111119703953158
10.738143754,2.159992821740777,-1.3474861855364688,3.4025522295520956,3.651203321818459,0.3349112512744852,-0.22454248171664531
10.93814759,1.6188134718885208,-1.1410952329329505,3.3176304296038337,3.092661094266741,0.2977176720011912,-0.2600166664480917
11.138137748,1.0928882923354273,-1.1326210676275263,3.0881438689445564,2.68031238814622,0.4198224591686062,-0.263619012957899
11.338143289,0.6498746170246854,-0.9461243206541916,3.052393395903893,2.258891547924067,0.5787277629591071,-0.22298395187588388
11.538132791,0.05672150484067251,-0.25556736649283074,3.638627957545519,2.0925238336694187,0.6048050571464479,-0.03465369756125759
11.738133352,-0.23950780849662534,0.3932153198892414,3.907860821075577,2.1568508354007947,0.4201920366404675,0.07112788456261598
11.938232427,-0.6530776600042281,0.8449089896162698,3.820357676335533,2.39426419141389,0.2426347657308873,0.1318831652059683
12.138143696,-1.2327338689679486,1.3833971998424874,3.500963561543686,2.9123683119119623,0.1751964208779998,0.17562198228521392
12.338210777,-1.8022937725422616,1.4863577210242818,2.9836814698791336,3.1734856535285987,0.25001983230221697,0.18067827535311812
12.538188668,-2.537867520570487,1.3291796376740315,2.915525158529704,3.7108632678120914,0.4004192120530895,0.19952163014569058
12.738132211,-2.8036369209313534,0.7338234583509043,2.9482227289327123,4.189447076127873,0.48586520198013866,0.22154281262602832
12.938185109,-3.0100401042606175,0.2270489683118576,3.1928394935689886,4.6210327165197205,0.5540648412891315,0.20876469535751918
13.138147903,-3.2651413543025667,-0.27576865468419093,3.3684450850137577,5.106377151125494,0.5718446971459392,0.18936122038067885
13.338137173,-2.7322982841797105,-0.887562130726752,3.45047237979172,5.628897167402015,0.49206751380856606,0.17231237273909375
13.538128706,-2.170936195831114,-1.4909253508962663,3.416194080469414,5.916912406642893,0.3957708885536624,0.1677627695483747
13.738141942,-1.5907622410928917,-1.4504983150402488,3.3652723127555246,6.2856026915203,0.3410530028536556,0.1876436674230538
13.93813164,-0.9238749288595851,-1.2355127348907573,3.0552072871872036,6.9972614337867105,0.38962912528781596,0.21526438415792942
14.138134145,-0.3399889559204937,-0.9111711348336797,3.129643523724917,7.22168223085276,0.5255305242175353,0.16316728877247916
14.3381341,-0.19910956188030027,-0.4244720498972442,3.582552078878988,7.397111130680096,0.6315850419560393,-0.010995781193811865
14.538134943,0.12987155975453657,0.44770287590580593,3.840267019005398,7.485555902859884,0.3956959876202151,-0.1154518847459734
14.738133635,0.5048848311401893,0.8031848931882162,3.72873203402866,7.1398515398657,0.22248875909289845,-0.19821925690111092
14.938133463,1.106641812803286,1.3802884277642804,3.328462304488572,6.66482787045237,0.1988317106509881,-0.21957952763352426
15.138134973,1.657444680810632,1.4876783543191248,3.034139420604003,6.177316107545013,0.3520073894331,-0.25399545166433596
15.338181971000001,2.417679514098222,1.3025169953747462,3.10992186411458,5.59806265461439,0.5114527063147237,-0.2717084603315016
15.538133062,2.7166805148364226,0.9537798300736319,3.294870084561342,5.222454250369817,0.5693328851796131,-0.2578894269078085
15.738132585,3.024735903950053,0.2908848339602592,3.2949918582890523,4.751078950282395,0.5605826036393433,-0.22809324280946067
15.938133431,2.8429593366890167,-0.49574485992563677,3.325795346064352,4.243355520222337,0.4771003576208927,-0.2095382461427452
16.13813557,2.588270948962429,-0.8745724921865046,3.293327114303496,3.7762828261682966,0.37930888559397935,-0.22100041662570277
16.338135869,2.028293124502526,-1.382823675989679,3.36637181326256,3.494370810537051,0.32050366232105315,-0.24379609910659056
16.538135122,1.2274351556707017,-1.3483235490007737,3.2365865328375594,3.0257443058653375,0.36290748110211307,-0.2636375122942957
16.738131583,0.6938433851253619,-1.1132466793341056,3.0757547548319555,2.351025598322967,0.5168910023139046,-0.2666198696203862
16.938141309,0.2837842468151549,-0.5954654245351195,3.3330928856630013,2.0101141900884807,0.6260311418774058,-0.1493507399248649
17.13813433,-0.03951295964571219,-0.10728268894923743,3.7539226933037364,2.0670218238762845,0.4966802672566771,0.023654819566219707
17.33814254,-0.5738643692905391,0.6850924991618602,3.743249671095482,2.3247001094587123,0.30622928454358167,0.10195871944250597
17.538131708,-0.9858056368044542,1.0788729719817018,3.677865319596808,2.5081366718940723,0.21744206834904706,0.1531464003180697
17.738137428,-1.5687916851727433,1.4776306026819281,3.4237919353433077,3.2103104499259745,0.19322689601334553,0.17602342432603404
17.938143127,-2.2845374379455636,1.4140715773807264,2.951577249545632,3.629802839749459,0.29252193041625696,0.19084861558100025
18.138130926,-2.6610702585379773,0.9928906202204435,2.961953236118335,3.904749110833558,0.44113338130506063,0.2247349055259327
18.338131253,-2.950385131809452,0.46529344996374006,3.216381133585883,4.63622096993731,0.5353525471216593,0.21231564093519176
18.538132555,-3.289777616050086,0.004725128592296762,3.2754487552021514,4.660273984072956,0.5679373313391216,0.19217432318677558
18.73812902,-2.857491567744698,-0.7421700500566398,3.422897964424918,5.384466267450931,0.5527587698946679,0.18685519878447632
18.938133272,-2.412916169344869,-1.2579592607559482,3.545616257241841,5.703970173544465,0.46773757811431915,0.15926220979783418
19.138149872,-1.7987537839721248,-1.317566436756039,3.2756604692363487,6.021341943942006,0.35796376234561406,0.18057534910907957
19.338131571,-1.263695483334315,-1.4580750137597605,3.2685899082453047,6.4941073476896705,0.31150744117838,0.1946722882595795
19.538128758,-0.6324837317902284,-1.1332227337312635,3.187053520777428,6.935989158195434,0.40908712516789575,0.21090708933751143
19.738148424,-0.36779897549542767,-0.5635936398421428,3.4133725649397255,7.350914064382385,0.593217716067894,0.08950032226579936
19.938131871,0.05186608271114672,-0.17270630797413347,3.777521679793105,7.475437035065011,0.5318800580480307,-0.06689095938053849
20.138227388,0.3765523495624574,0.5651415721330494,3.838548709004118,7.123877390793292,0.32099893235343246,-0.16045108262556015
20.338131959000002,0.7933513375043822,1.1028902058670873,3.5489880485946674,6.897607820473114,0.18693839087377043,-0.20658135383743176
20.538148598,1.317873284520029,1.3786027697884187,3.308024552707741,6.420275680234342,0.2296941713286228,-0.23745337752298415
20.738146838,2.092536989599702,1.5144139186720067,3.070626239998542,5.847637327013978,0.43601566143914416,-0.2718957873744067
20.938130979,2.5344887332587582,1.181310683843788,3.1794565909568284,5.349595432495803,0.5492123643443522,-0.2652745567797571
21.138134029,2.930740237993629,0.6678337970040373,3.196540109946991,4.934284989134239,0.618533819526708,-0.23983425486804985
21.338130971,3.132339396300266,-0.11891199234137162,3.217978378780475,4.402440408265337,0.539579066962283,-0.20594016781099278
21.538135142,2.746085852414562,-0.8251334647577304,3.4714778093112977,4.080977557163436,0.4279713826914969,-0.206380353676527
21.738141758,2.2776805542123393,-1.130863165020736,3.3977772142921463,3.531562680038348,0.32950887088749203,-0.22861452677572128
21.938133864,1.803032667169526,-1.3484008753841306,3.195871943259912,3.259733492586916,0.32697028937402794,-0.25422909019796414
22.138133196,0.9908939476734334,-1.5102868302187118,3.136288201725274,2.8617195972633978,0.23486974748581077,-0.25707947550231147
22.338132107,0.4246658211189279,-1.0037831187863713,2.9408861317756254,2.2841800976450735,0.5624864170857612,-0.23894836394372293
22.538131824,0.26152821713203817,-0.4020230625972934,3.5277467168737644,2.0423086075803925,0.65,-0.03270385777950493
22.738132887,-0.18762240666841623,0.15050056668852888,3.8518954119108773,2.053149904257912,0.42215312544815364,0.07042375498335408
22.938131706,-0.29768864279260215,0.8875050170805534,4.000845867306662,2.399313594218883,0.26879799488594924,0.13370323153517358
23.138130298,-1.0743100932460197,1.3403035481368903,3.497071181110498,2.80763984744832,0.20905613690171657,0.16269094123102368
23.338130896,-1.7595494891226306,1.470210212458611,3.293599387239176,-2.9346678078201025,0.25465705280891954,0.17310623746992435
