time (sec),x position (m),y position (m),forward velocity (m/s),"heading angle (rad), from x-axis, positive is CCW",throttle (unitless; -1 to 1),steering angle (unitless; -1 to 1)
1.005349853,0.6910364663955857,0.19505049148362363,3.58440797913381,0.8311703400507622,0.43913689154142005,-0.15026202026077967
1.025346028,0.7393453732949705,0.24808260373449867,3.595873271927874,0.7951202820499024,0.41241170914937086,-0.15496102220006938
1.045349752,0.7891758298955625,0.2992966942165985,3.5862932351081307,0.7568479705898408,0.39370259099221033,-0.15894788363325746
1.065350625,0.8407792593821392,0.34875950405454464,3.567804026162313,0.717278402107249,0.3778551051553986,-0.16310114482851032
1.085357685,0.8942374629039209,0.39639486170358335,3.579598161126462,0.6774212510152231,0.3580803046506827,-0.16192939952572305
1.105348051,0.9492342140587703,0.4417485689189073,3.5642459184493545,0.6340191893046054,0.35978000333957627,-0.1699411559792876
1.125339672,1.0344740687204148,0.5054866444707655,3.5422668429681425,0.5708257858891937,0.3523471019878397,-0.17251519324343756
1.14546621,1.0931181592511245,0.5452425894756266,3.5356600895356913,0.5275749072718305,0.34914862601021274,-0.17497931387084792
1.1653521,1.1531827034183368,0.582239043200529,3.5210785325530467,0.4835325281434682,0.32419465249429374,-0.1778943409350156
1.1853554210000001,1.2143987130485332,0.6165390527151839,3.499899129534964,0.4414892306637894,0.31624318518073685,-0.17910144108204465
1.20534771,1.245524775871723,0.6326270776048276,3.503792704660122,0.4186863906849033,0.30027002185678703,-0.18053275431606444
1.225349501,1.3081652910603898,0.6629227153923477,3.4754930423194437,0.3738172354234204,0.29663657792926273,-0.18101940324301732
1.245360426,1.37185942936091,0.6904508224659331,3.4590097433646387,0.3308902119461375,0.29354611955100884,-0.17573427699643662
1.265358629,1.4362744789962947,0.7149592488682464,3.4371869408527678,0.2877560494749085,0.2927346834624512,-0.17675657504862008
1.285353061,1.5013487989471312,0.736438687365699,3.4247769555569922,0.24179827597435122,0.2976266826853799,-0.17742949101817945
1.305367138,1.5669966104093473,0.7546781872259392,3.396276480166813,0.19844849065914527,0.2906698090780707,-0.17868955592159363
1.325344707,1.6330437837382914,0.7697365261321715,3.3766120977560576,0.1550333161579472,0.27823222756000704,-0.18664395506541254
1.345346208,1.699248518396347,0.7815712573011292,3.357191116737843,0.10966047760436588,0.2759233655543947,-0.18821788926522742
1.365349825,1.7656598872256566,0.7903080454552985,3.3441326387268626,0.06556024241513032,0.27282713211575255,-0.19076896382887226
1.3853507120000002,1.8317577007156876,0.7955183119623478,3.300458013433927,0.020205808032724565,0.27519891867900964,-0.19347182061356835
1.405347852,1.9306216332550634,0.7981330866217224,3.2864631268299287,-0.05052819829868096,0.2778570520804539,-0.19536995279060784
1.425343182,1.9633225662692522,0.7973873460006189,3.27094351689604,-0.07444133926648036,0.28994849578239174,-0.1982290519531421
1.445344069,2.0285774153108878,0.7936298472749306,3.2678713160297197,-0.1211558643633924,0.30259483166976536,-0.2010149614716587
1.465374809,2.0933018071684715,0.7868737347911869,3.244649473909106,-0.16795406461017587,0.3189140892103526,-0.20304600333373166
1.485350291,2.1571843778810993,0.7770781917456355,3.2214730221539107,-0.2149993037331676,0.3366701008527006,-0.20531987474706406
1.505349728,2.2203273227531475,0.7641163174393958,3.2204646402282155,-0.2610765321417515,0.3690003639114638,-0.20687851369607452
1.525362306,2.2825568166138175,0.748125820035893,3.199552237225612,-0.3083417880013584,0.28943402903677584,-0.20130808988773136
1.54534085,2.3740635693101293,0.7187658150117745,3.211582132995162,-0.3779796826149023,0.30065698243497035,-0.21114565573281457
1.565351625,2.404051655047854,0.7076557460798287,3.197997682747318,-0.40085492915490634,0.30725360997918943,-0.21401356047341277
1.585354624,2.462703881470233,0.6832517977103953,3.167538838170448,-0.4474316498838857,0.32538598593966556,-0.21676876659264277
1.605345797,2.5200629017124943,0.6565681963136915,3.1519847648549195,-0.4919423775854809,0.3476584562108871,-0.21917361143218178
1.625348156,2.5757137975907978,0.6270038441767286,3.1543645911200455,-0.538178701998447,0.3660471796481399,-0.22161412016847748
1.645443229,2.6297621387659094,0.5948312296560442,3.140652234756135,-0.5877786720542053,0.3956707283211727,-0.22326335571692535
1.665353702,2.7083092878444135,0.5422962811023114,3.1467590717537566,-0.656772324406534,0.32007377437105755,-0.21947766192934678
1.685353931,2.758377899227875,0.5043241418396724,3.1438757211297035,-0.7042293765387737,0.33535732496173554,-0.2291706066228689
1.70535259,2.782740188208905,0.48444520846755545,3.1443490843229718,-0.7294091922311693,0.35674006084302223,-0.23145765994083212
1.725344635,2.806452098011543,0.4641248884657398,3.1227713196208216,-0.7547851057479158,0.3767076489185953,-0.2342290150980938
1.745348428,2.873962912263962,0.39982159557047126,3.0756727782796576,-0.829510423299026,0.3940396646537849,-0.23610525096333917
1.7653498550000002,2.936528592366877,0.33108669516317063,3.082363417042633,-0.904755768828538,0.42124510011985655,-0.23652362298463805
1.785351208,2.9563316224653198,0.307230366404708,3.1004587126934684,-0.9285345425301634,0.440799129048398,-0.2305314388432964
1.805349835,3.010724563332366,0.23339925584009555,3.0520998824382137,-1.0043748505911867,0.4712825670725195,-0.23064578029995003
1.825349835,3.0443078360936195,0.18213836372568107,3.060978404676366,-1.0524315540414437,0.5078235626416868,-0.237053625079222
1.845353202,3.075089468325544,0.12907346896492233,3.0522716606968903,-1.1024717928850531,0.5556618271108001,-0.24281998783638722
1.865351149,3.0893594413462067,0.10202427325726462,3.0582529627903776,-1.1266327455652336,0.608489316884536,-0.23261722658852196
1.8853680000000002,3.1284610213714252,0.018950439631816016,3.061898648948884,-1.2001155124126721,0.4771571500037298,-0.24243779507998434
1.9053705120000002,3.151255322789442,-0.03856753057585754,3.0886321259186893,-1.2496351974546362,0.5008400736467795,-0.2501621464010171
1.925364381,3.161474535576482,-0.06764345759280624,3.0819504244580638,-1.2740201228010424,0.4516178327978617,-0.2383468346147468
1.9455186690000001,3.188776493854295,-0.15715862249394494,3.1196572155918,-1.343369766461042,0.4508231174514781,-0.2371301062780804
1.96534706,3.2029325389567367,-0.21814104547638916,3.121344425049455,-1.3936124174645927,0.45931983650319513,-0.23520891997104704
1.985353849,3.2090786191122387,-0.24875705406976625,3.1226819938437465,-1.417725763298025,0.4689017682353679,-0.24125380666494
2.005347745,3.219310965865868,-0.3108689056873929,3.1411101083755235,-1.4624567623266027,0.4746990204513512,-0.23190607179963135
2.025368856,3.2234437960692235,-0.3421216932493269,3.152486345539256,-1.4848501408833898,0.47833092587732917,-0.22978542143521685
2.045421983,3.2308427836591354,-0.43641093872424397,3.1604920803751337,-1.5565560887433632,0.5009834860374182,-0.23526306404404532
2.065351366,3.2319497371714254,-0.49973392638918684,3.171096815470849,-1.6034471033007298,0.45386822587313075,-0.22573657554892226
2.085355801,3.2301792386440455,-0.562886145776305,3.1705261354005265,-1.6522595065081613,0.45632652417002084,-0.22491763872946252
2.105347364,3.2256033462518996,-0.6262236977972733,3.1723452539157875,-1.7016272808386748,0.4664527877989074,-0.2323430927100203
2.125346618,3.213149033376714,-0.7210956962108132,3.197375576477316,-1.7723594604380895,0.46963903121567996,-0.23340370353695697
2.145339984,3.207413662001634,-0.7526466739908538,3.2068032114345724,-1.7967604586123151,0.48285059812053616,-0.24116552973212582
2.165356557,3.193738958006742,-0.815118302441154,3.2055907960025856,-1.846078353461029,0.4929279343974235,-0.2334513178777933
2.185346353,3.167666037729041,-0.9077411499397546,3.199614981714903,-1.9189030933632423,0.4790054136162963,-0.22812409927902394
2.205355376,3.1576304300278695,-0.9381598428521724,3.203139554299473,-1.9431296785079366,0.4783528172998496,-0.22693576989392145
2.225348164,3.1347601131386265,-0.997865175914343,3.1959854642626286,-1.9931643815292528,0.47984564436677246,-0.2256098400212725
2.245346435,3.1093797860306425,-1.0566547981822811,3.203265284627607,-2.0417155493177375,0.4715519148425531,-0.21776638775440177
2.265355191,3.08129090174836,-1.1151523861113037,3.2629367522014996,-2.0839974819099853,0.480519929711594,-0.2241134253771573
2.285346935,3.050206614428742,-1.171528779438545,3.233055144777872,-2.133210427363735,0.49245047536752307,-0.22263045131108625
2.305345806,3.0164963792552686,-1.2270835221040695,3.2568776630633445,-2.1787959094630645,0.5049754517172896,-0.21369299183423424
2.325350491,2.9802042921976395,-1.2812902680104021,3.2796353879698645,-2.220690468874267,0.5255265080743399,-0.21960900687303947
2.345356584,2.9414301657947153,-1.3339246029871812,3.282659540335578,-2.2646936453385034,0.504961396324717,-0.2111694790987336
2.365363756,2.900226290451622,-1.3849959076359737,3.288917333263066,-2.310095441605468,0.5015144997782278,-0.21003484547882328
2.385355987,2.8564452596025705,-1.4346543879790292,3.319756368684991,-2.352996952482088,0.4815436921118052,-0.21109679560901215
2.405356373,2.810676820700945,-1.4824787076311292,3.315731033327844,-2.3968743335442655,0.4982397602414617,-0.20977890444609448
2.425431453,2.762578757141061,-1.5283984210303723,3.324895047300729,-2.440085372514516,0.49799616489408494,-0.20964540539120402
2.445356629,2.712205508788033,-1.5722491048041878,3.3478923370990703,-2.482706064293847,0.5013308291005544,-0.2106482224853013
2.465352457,2.6331200346921424,-1.6340513628451092,3.339027934861336,-2.5516084849101213,0.5152178648618866,-0.21077445929083372
2.485354844,2.605847225501428,-1.6534729327976119,3.348139036200662,-2.5740997946021125,0.4919591721275218,-0.20898113043302874
2.5053485110000002,2.5500944434392103,-1.6907902193186426,3.346757761505697,-2.6167961575521317,0.47720120114221326,-0.20839574965721175
2.525343301,2.4632469837579043,-1.7419871657573105,3.363813591890342,-2.6848087101485727,0.4780342472554318,-0.20757874580868774
2.545435026,2.433338136404146,-1.757539648778272,3.371081248127516,-2.708250496788499,0.4765661919735162,-0.20708128398758205
2.565370225,2.3725411063460276,-1.787378268926159,3.3926363512516433,-2.75023780225218,0.4724488668507308,-0.2066923478944941
2.585352057,2.2788380933311445,-1.8271016567103615,3.3970425827513204,-2.816730083663424,0.47835701855488644,-0.1981673021552176
2.605351319,2.246998190572654,-1.8390366094380217,3.400327196435081,-2.837388675057873,0.4893565095753698,-0.2037885454037237
2.625368249,2.1824723594534428,-1.8606182739916288,3.406201859633816,-2.8799554289136426,0.47050757739982285,-0.20366834555722765
2.6453502550000003,2.0843233229987983,-1.8883685063138307,3.4078574898187415,-2.9228649539333706,0.45401650966147855,-0.19530791372887127
2.665351941,2.051083609056053,-1.896322118558402,3.4178041645660997,-2.966446016766558,0.4527205825252815,-0.2006874040781882
2.685348917,1.9840442181106028,-1.9100865588963813,3.4257566100581704,-3.0073163772470557,0.4441272858187222,-0.20054603231530338
2.705346089,1.916592190223782,-1.9209686131930739,3.411235672368832,-3.050837894068285,0.4399351025899657,-0.19295562336612415
2.7254374180000003,1.814550208241247,-1.9314154060692976,3.4037153516385463,-3.1169411855730944,0.44800171888553086,-0.19936439623600533
2.745437203,1.7802610300205468,-1.9336895431028716,3.4364508468744526,-3.137413772015216,0.4531935656518669,-0.1990847240899144
2.76535172,1.7117549076017196,-1.935940649835935,3.4236835953760076,3.1031291175476823,0.43461499128471603,-0.1952994087822269
2.785369579,1.6431997921729187,-1.9351141922231527,3.4274494956030557,3.060783358715785,0.4264313688917849,-0.19471673268635
2.805373798,1.5746582547995043,-1.9316533396075395,3.425683193204604,3.019081150042453,0.41734467743697584,-0.19592431705298918
2.825363947,1.5069729844230018,-1.9249908194767456,3.3940849314928294,2.973096595829952,0.41954361022610587,-0.19640156845057094
2.84534424,1.4391811271220096,-1.915436965914774,3.4256367842792383,2.930355284056531,0.4177057741329691,-0.19017492498146166
2.865346177,1.3716068797255683,-1.9031965949640708,3.425715803001332,2.8897658079493906,0.4132647175338626,-0.19783737174876256
2.885354677,1.3050470415618336,-1.887887367409999,3.4183748546882495,2.844595458978107,0.4241000531561795,-0.19870803255869174
2.905349997,1.2393175568782688,-1.8697842865373195,3.413920594838963,2.8007213488887897,0.4320840412362615,-0.1996810095656996
2.925348725,1.1743818993095867,-1.8487702946162574,3.4112563163238687,2.7568453846908865,0.4100418239492111,-0.19688407293755322
2.945349901,1.110730041206806,-1.8249538033297077,3.401134541138733,2.710187116014067,0.41489313483465656,-0.1964381243774941
2.965342674,1.0174737587500549,-1.7841893261012436,3.3810090107604656,2.645501272960507,0.399724772996787,-0.19725322297897493
2.985361522,0.9870939620888703,-1.769160966467743,3.3893710898170286,2.6232908996941218,0.3990546635636405,-0.1989342541738034
3.005347394,0.8982410520210813,-1.7202482090800781,3.379532060300199,2.5566318298667445,0.40421299172539754,-0.1991384600308498
3.025400069,0.8692461919303506,-1.7026688626530113,3.3907747381444784,2.5361260915370702,0.4114689197450265,-0.19977048423810487
3.045442264,0.8125636480719816,-1.6657360161270327,3.383679868688881,2.4936354068508173,0.4212060563746002,-0.2003499664124993
3.065360487,0.7578455068006158,-1.626380062486714,3.3627144578960824,2.450187574887606,0.4105454130066412,-0.20105723104647164
3.08536713,0.7048016308128648,-1.5845426095406427,3.377481684287359,2.4074926044873024,0.40874277384810637,-0.1944477469880156
3.105351034,0.6290285572975667,-1.5179437029361786,3.3643428352406057,2.340695685116704,0.4081443360791927,-0.20082698073590463
3.125337725,0.5812365520997814,-1.4708060901777822,3.3451094854278858,2.293578164928306,0.408007381126923,-0.19374904225180745
3.14543463,0.5580092026508816,-1.4464325772186137,3.366864856794907,2.2722371044994825,0.41190848967416227,-0.20083864069638313
3.165352826,0.5132496251853658,-1.396406480531337,3.3607584979541336,2.2302651134204408,0.4207790190305238,-0.20122727355403022
3.185354268,0.4710309327948638,-1.3443846282889915,3.3480918932061807,2.1842284771471765,0.4373103385176368,-0.20113782521292473
3.205350781,0.4309439100193964,-1.2903536858496527,3.375803809657995,2.1395372907192063,0.4438494315335225,-0.2012430895562246
3.225347343,0.3929669760282499,-1.2347131153086588,3.3771081259723967,2.098150387617406,0.4526171932306697,-0.17598202869230603
3.245348089,0.3570650169499745,-1.1772806914172498,3.3945885793483206,2.0588104067030057,0.47664262304735855,-0.15318341877898403
3.265348657,0.306088322775923,-1.087825491576197,3.421070883434865,2.0158923696321094,0.49195974455821967,-0.13852096234758457
3.285354518,0.2902794654464013,-1.0573153989336352,3.4362562813662008,2.0001974705104915,0.5126878836517863,-0.11752214307409005
3.305426421,0.259203810478536,-0.9951322864734108,3.477384216357672,1.974933862493425,0.5365285180622172,-0.0951207618383912
3.3253925840000003,0.22909396859712822,-0.9313835579610643,3.5390281762134856,1.9581185808785422,0.5468061108712177,-0.07317651233053779
3.345360189,0.20002177487184283,-0.8660444113926687,3.586568155750407,1.9477569592346404,0.5671607081051345,-0.052352984938374786
3.365349906,0.15731770012445834,-0.7659958703138753,3.644846928980528,1.9427022811887575,0.5825722126045988,-0.03223363215410664
3.385352672,0.14314425882406775,-0.732064928679555,3.677220741928976,1.944027190199221,0.5265915208808337,-0.02214143933778915
3.405352654,0.11493283039590797,-0.6635529614131213,3.714236589286581,1.9475169813841426,0.5267591161212077,-0.0072538714964340174
3.425435713,0.08657635243010023,-0.5943742170244325,3.745051043425652,1.9527718657060542,0.5136838124477746,0.010933267851656481
3.445350795,0.057898851860665575,-0.5247170787780546,3.786160201578021,1.9572635629001294,0.49470588266199095,0.026379560334510922
3.465343043,0.013745343638128162,-0.41966315455662817,3.809321786961953,1.9669582316836118,0.4819846477151627,0.03978981181797049
3.485348441,-0.0013445759085227741,-0.38455422281329876,3.821443130653865,1.971495400738848,0.46115343300964595,0.05171689342202416
3.50535087,-0.03215595306235403,-0.3143822851734489,3.8309780700308433,1.9825966801655404,0.4624459224855002,0.06118136693555244
3.525349849,-0.0643889599411185,-0.24432484344093383,3.8550403298601803,1.997369435624458,0.4160298196691082,0.06677952895598879
3.545345558,-0.09755674262003071,-0.17459895180928273,3.8560006470015433,2.0149119518678473,0.3933203919951571,0.07508655546088681
3.565344504,-0.14982484639164853,-0.07072719396532233,3.8814943564723827,2.044744659464914,0.3684198736208407,0.08380941805332537
3.585353316,-0.1862670016904745,-0.0022470875239257995,3.8802898598370974,2.066791250297493,0.34532782902768855,0.09144025664566242
3.60534692,-0.2048799829578619,0.031707151838221447,3.87212272832629,2.0795020648955624,0.33922220004447706,0.10023197681562887
3.6254399409999998,-0.24342053854386336,0.09924348904596743,3.885016810058885,2.104548868087586,0.32975719014415933,0.10739875925694707
3.645431904,-0.2833113367113937,0.1656797684328005,3.874531595036426,2.1299233564892144,0.31685117954373065,0.11348760478888541
3.66535385,-0.3463824431903777,0.2635133354773634,3.89522905276369,2.1761590249184666,0.31363182649697047,0.11878484310171934
3.685352527,-0.3900521227406351,0.32725130564324145,3.8790427883502985,2.206236945923493,0.2604622563726802,0.12047758060970937
3.705346843,-0.41259295612778263,0.358424330560404,3.8468775029537685,2.2221945119365465,0.24635789940891048,0.1255841092738425
3.725354229,-0.4589396989222895,0.4198184750192538,3.8463831444500287,2.2557761928328497,0.24235481421783742,0.13351316835251845
3.745347335,-0.5065715408639837,0.4795679819128849,3.820693318175565,2.291801282633298,0.22755440946454636,0.13823066555647817
3.765349876,-0.5560936310867937,0.5376108644492681,3.812248787646762,2.3288536768843975,0.22313687476264837,0.1430188500674958
3.785344388,-0.6072732656457904,0.5935426715361927,3.7691055926025006,2.369953076258115,0.2047740051720349,0.14167545312555233
3.805353043,-0.6599224150349454,0.6471863228452104,3.741183098650037,2.411608572881878,0.18881450624502027,0.14727599185762116
3.825348469,-0.7141158816504866,0.6984366322849,3.7210155205812163,2.459026015740416,0.18959659006324842,0.1545844458298949
3.845357603,-0.7700601746829959,0.747225420344047,3.7125886905968675,2.506510830647349,0.17623930606607502,0.15706862632292914
3.865407049,-0.8559957871418272,0.8155483706351221,3.6432015371913833,2.5764318595389004,0.1741187657596477,0.15903671837468733
3.885348951,-0.9151100241875437,0.8572458760826546,3.5931691204335907,2.623263432606783,0.16842044072670673,0.16092790633396709
3.905423622,-0.9752552028526943,0.8961061057369992,3.5652008300346205,2.6724353985242164,0.1773931856196663,0.16167772431853716
3.925355695,-1.036418136082613,0.9318047813764205,3.5527054362323316,2.721872436728426,0.18370567077635788,0.16240718268404924
3.945432469,-1.0672801086064854,0.9486717227178232,3.5170371881436933,2.746024618389255,0.1805085446777503,0.16230187312568695
3.965349711,-1.1609661278471937,0.9944563640678045,3.4530776770892335,2.8159527275320504,0.16875002056114807,0.16139778806777041
3.985351305,-1.1925954233615086,1.0079039807681553,3.436932832703337,2.840370704566352,0.1766634136205872,0.1542015069928282
4.005343288,-1.256010749062351,1.0326342613353785,3.3894817857595108,2.8882677675615067,0.1854262405347156,0.15407688403965358
4.025434417,-1.319775603364108,1.0539300831899296,3.346395367062397,2.934502925929216,0.18938115997603458,0.15349854577520194
4.045440782,-1.383774225325826,1.072476273215837,3.324896783070162,2.9831186311282045,0.19086616964131306,0.15288548919755726
4.065349742,-1.447776073161272,1.0872868357377914,3.2798309063243383,3.027815890020494,0.20823453912144899,0.1601012257878351
