time (sec),x position (m),y position (m),forward velocity (m/s),"heading angle (rad), from x-axis, positive is CCW",throttle (unitless; -1 to 1),steering angle (unitless; -1 to 1)
1.007776285,-0.09004810055973762,0.14978619145217856,3.2701038896421077,1.0292062657797156,0.6232091293607706,-0.18542303034251595
1.02777654,-0.03574412716559583,0.23317909405497828,3.334208797402417,0.986401671033505,0.6098986914733718,-0.19004371018731744
1.047826529,0.0029630442926615952,0.28780280009130593,3.3473557699943055,0.9589998095153245,0.541297850950967,-0.17050980024160106
1.067773064,0.06391737361473308,0.3685906299247936,3.3701998640228648,0.9175194201235762,0.4857657459210124,-0.17369269442854438
1.087771363,0.08509579214232305,0.3951427013462548,3.396377346674163,0.9042119407701035,0.4694784594306571,-0.1853693982768032
1.107771028,0.12878451441582717,0.44730310378089905,3.396440750644343,0.8756111681121987,0.45747538993124093,-0.19278761307624245
1.127865915,0.17382797886656806,0.49875931752530517,3.423064189445814,0.8446078192941598,0.4437823779217668,-0.2042795788567108
1.147896879,0.2208018433567832,0.5489679415949784,3.438591554386484,0.8161520861361661,0.41524759761463936,-0.20758630519557292
1.167824425,0.26922791050230804,0.5979062098039626,3.4408265153579274,0.7846506596688919,0.38616827552119737,-0.22572014268633372
1.18779961,0.3189977970868775,0.6456473696407733,3.4458360019875367,0.7497235581029158,0.36318692547757675,-0.22472374861076908
1.207774859,0.3705941109812372,0.6915286786736352,3.4443265069214895,0.7104475215174039,0.34924380206268785,-0.23199896577072948
1.227795019,0.42339481605025536,0.7353142563638124,3.4153655416827906,0.6701833479151937,0.3421663545202604,-0.23505347044218453
1.247789054,0.47760682652668335,0.7772307018714265,3.418487509254953,0.6292771918370046,0.32765360662980997,-0.23753600625591917
1.2677710100000001,0.5616975257234822,0.8358076512050719,3.4089409664234505,0.5644824113488043,0.31899999157682707,-0.24097805928410415
1.2878930450000001,0.5901735815918621,0.8540648617790649,3.382619540773412,0.5410079002549587,0.31706569106747434,-0.24343735000778907
1.3077713690000001,0.6484881910806573,0.88831252483057,3.3835796072315145,0.49217555030778504,0.2902166929927215,-0.259739306951618
1.327769424,0.7375877397157667,0.9344523948724082,3.3258619249025636,0.41766287798973906,0.28453974040347424,-0.2590248929029931
1.347772176,0.7676699517446154,0.9485179731928658,3.3208131143404227,0.3913485596774488,0.2904456890126439,-0.258127461652436
1.3678716180000001,0.8286939652370624,0.9742277046562998,3.3090736653099757,0.3396190008935589,0.2867658223152525,-0.2571070127989225
1.387823263,0.8903249766118215,0.9971830205760741,3.2872769191352105,0.2880613381064403,0.28552012558537715,-0.24897700357774333
1.407881522,0.9523397081952214,1.0165731659115527,3.2371901411956214,0.23536558057444068,0.2999728889682149,-0.25311494114337957
1.4277712710000001,1.014835734131758,1.03279075441941,3.2240533552302777,0.18310326342399333,0.2969696110260438,-0.2543547590544057
1.447837788,1.0775350598903566,1.0457130320922021,3.2020435930777174,0.13365537285533274,0.30555881961929127,-0.24619371926593647
1.467882425,1.1402477515490346,1.05540548047993,3.1670370630978693,0.08457456398428234,0.3060306603703176,-0.2526741094689302
1.4878694160000001,1.2029269268539122,1.061898367048428,3.1497744909553393,0.0334271425516755,0.3082018909654775,-0.25171936747981727
1.507773445,1.2656132889642755,1.0652144069003695,3.142388700560298,-0.01279063353272631,0.317162441916454,-0.25079897721040034
1.527778503,1.3278529460822823,1.0651414105962151,3.117535786791263,-0.05968930758304665,0.3395377235673978,-0.24956116591601377
1.5478738550000002,1.3589034824806911,1.0640288127798812,3.107046321717496,-0.08335638786820479,0.3517650078501825,-0.24827752700933053
1.567772978,1.4512288453814008,1.0559100659706144,3.085312402582555,-0.15227738668686427,0.3556288662487364,-0.2480001526306455
1.5878029530000002,1.5118349074255926,1.0469086378682793,3.065650281382371,-0.19995887894229314,0.3630547728796659,-0.24762885533392737
1.607848063,1.571712874028751,1.034567321566231,3.056642377572173,-0.24591751785592383,0.36714099371327674,-0.24666472183079122
1.627859462,1.6310426065484527,1.0195315010519894,3.057434554013381,-0.29029996196893193,0.37073578101601407,-0.24736592316071798
1.6477956360000001,1.6894276938193786,1.0016401274051654,3.046861401824186,-0.3349073822320819,0.3838720237905496,-0.24790997878249052
1.667890564,1.71802113407292,0.991603491742469,3.030377667813937,-0.3589948998270297,0.3986830061980563,-0.2554149961986521
1.687875285,1.802904839065297,0.9572930232955434,3.057378032021456,-0.4265826516579854,0.41340491531335816,-0.24915305892720008
1.707793651,1.8582421125130693,0.9312797055075177,3.050780860822892,-0.47176466389734545,0.4123995928408209,-0.24900634119265613
1.7277739900000002,1.9119762982776625,0.9024756272281933,3.0463524828542092,-0.5183674354747866,0.41042994102413566,-0.24915042926400816
1.747899177,1.9119762982776625,0.9024756272281933,3.0463524828542092,-0.5183674354747866,0.40778213159989773,-0.24994909694860823
1.767855843,2.0153830723712143,0.8377906097974984,3.049428952532115,-0.6061394921382963,0.4122170364576916,-0.2506990291592403
1.787769767,2.0645614051859975,0.8016347400141783,3.0583983024530235,-0.6539246937469534,0.4255212256418904,-0.257630955746653
1.80792123,2.135219807740587,0.7433262717977148,3.060998010059691,-0.7220512711195615,0.41861803176330126,-0.2515137019280347
1.8277723300000002,2.1800840997692656,0.701540947453808,3.0685310532724173,-0.770232973412327,0.4306063923995219,-0.2519477086922794
1.847866014,2.222893951505882,0.65780020498555,3.061753585581719,-0.8176232293192773,0.4448482207506937,-0.25177705884877316
1.8678252460000002,2.2435133679925388,0.6351688206847412,3.061600711427118,-0.841707549117201,0.46779815506253386,-0.26550813930887956
1.887787356,2.2834249482440905,0.5882612113589331,3.077755417529776,-0.888736515169475,0.40870429243571416,-0.25166736029166054
1.907778219,2.339014115214085,0.5147866249630323,3.071465732144177,-0.9602953067551373,0.403392562549602,-0.2511968887034666
1.927780413,2.3562551424662153,0.4894889112820912,3.061416891231197,-0.98429039825903,0.39976289867294507,-0.24494182609793405
1.947798793,2.4048852275224406,0.411171488972662,3.0820353090149766,-1.0488112104697274,0.40086347587791904,-0.2443834766473371
1.967789714,2.420047978160115,0.384433309392204,3.0738237655680827,-1.071874586944968,0.4104224332493799,-0.24420761728221205
1.987788315,2.4482593687112244,0.3297960091724381,3.0748922674665473,-1.1178552987770798,0.4025778339348754,-0.2527154181972914
2.007846399,2.4741286272077043,0.2740313888302808,3.0674069504703403,-1.161693583435419,0.3884459827394349,-0.25167036778991164
2.027784387,2.4970672627598693,0.21716966713156766,3.0593690061973113,-1.207632423056719,0.3814779151351984,-0.24337332775541543
2.047793008,2.5170142886403446,0.15940439788069555,3.05906419754085,-1.2534684805133849,0.38604400921498055,-0.24961187437393204
2.067800775,2.5347102175583465,0.10110071881375815,3.0395126853962235,-1.2991583499059776,0.3744713803592089,-0.24391345624300267
2.087878883,2.5497818901057654,0.04179155099388783,3.062257876182455,-1.3452942871043132,0.383838022831049,-0.25058444817414777
2.107794221,2.5671551689573775,-0.04814598176920499,3.05775626362596,-1.4114723048128088,0.38879316094483446,-0.2503189582566546
2.127773797,2.571917105844525,-0.07843346156839129,3.06595413452859,-1.4341772255680338,0.39978999630063605,-0.25073673818024966
2.147897757,2.5784382049756536,-0.13926653681369924,3.0503769147926802,-1.4783497454567476,0.3791446449382601,-0.24611333850484868
2.167769107,2.582548995494274,-0.20011824152139343,3.045889545607242,-1.523003492481035,0.3693910540253556,-0.24683623802401036
2.187794672,2.584145594786946,-0.26117309277140405,3.057673211022056,-1.565623589654577,0.3699869854088312,-0.24785669126024276
2.207765797,2.583027288682428,-0.322286220899733,3.049144002706506,-1.6092057652639877,0.3580345251296195,-0.24896099300016786
2.2277667230000002,2.5790095585841097,-0.3828742236015044,3.0327666174896235,-1.656429539652884,0.3557116688580813,-0.24406242615353785
2.247763002,2.5723443464130873,-0.4432245851456674,3.036317449303145,-1.7018959321199847,0.3595468882135113,-0.25235992199772617
2.267795746,2.563011303805274,-0.5032218343103961,3.0214818943445825,-1.749115243079398,0.3718809109670114,-0.2542457878527528
2.287785163,2.5509931989833268,-0.562622727329327,3.025838276945814,-1.7978503686696725,0.3598646961021395,-0.2502475342827453
2.307779972,2.5363535217583415,-0.6214434204403279,3.0251704326375735,-1.8435172957824473,0.34375565353254073,-0.2522260962089083
2.32777231,2.518751353948462,-0.679436286259907,3.0191224638611467,-1.8910514626421329,0.3383306155142133,-0.2541266149797993
2.347776704,2.498553077840256,-0.7360123632259876,2.9933923868093357,-1.9398852943912972,0.3390705753924469,-0.2550217486601287
2.367797493,2.475892204654499,-0.7913566568564903,2.993328525408747,-1.9878213192549434,0.33568761775887446,-0.25666071838214516
2.38778677,2.4637115640318505,-0.8185749096232788,2.9819478359872598,-2.0100754590721825,0.34255857095583475,-0.2578098109880436
2.407878215,2.423164081049479,-0.8985645674440348,2.9900855642744655,-2.078415505250449,0.34567896018985345,-0.25840414850755966
2.427773991,2.3928385450492256,-0.9497139627616842,2.9775402083238536,-2.1247440539208795,0.3541125926443727,-0.25996030218632066
2.447888686,2.360537600116542,-0.9993124395051327,2.9605437978977065,-2.1720483797593997,0.3350144442018515,-0.25677750602601196
2.467792798,2.325733931775844,-1.0472045529946974,2.946719340926491,-2.21769763391116,0.33578033949497466,-0.25716010489637764
2.487784999,2.2889842058439425,-1.0932743819421802,2.9436004058526213,-2.2652390488980956,0.33026169094540214,-0.25808776768673475
2.507784013,2.250148351207466,-1.1374930429659946,2.949934466952307,-2.313197837674958,0.335942113243054,-0.26706841229414197
2.527788994,2.2094036520307045,-1.1798808161654595,2.931902309752307,-2.359390316666142,0.3305424746712057,-0.2621670013864574
2.54777408,2.166898817072176,-1.2201077794562114,2.926731746034534,-2.4047541836503927,0.33981004390633596,-0.2637543958126612
2.56789679,2.1226038633643554,-1.258237106883972,2.927797438166698,-2.4536638944280345,0.35442388168077044,-0.26509556547835517
2.587775004,2.099804600043714,-1.2765171170883982,2.9222682646154654,-2.477878242159642,0.34792179687605224,-0.26571738010784185
2.6077717700000003,2.0288408544293346,-1.3277154771490118,2.918670721142174,-2.5485131865162174,0.3420775353757336,-0.26659762820489336
2.627783811,1.9798388734692849,-1.3587343857187502,2.8948087185662006,-2.595780492292522,0.33595973402888624,-0.26753349907861296
2.647769275,1.9039607090137332,-1.40128162919887,2.9057081623079632,-2.6676476646737584,0.34222827394452265,-0.2692000928893443
2.667830671,1.8779010527588735,-1.4141539750350414,2.9065494515790458,-2.6907468426303898,0.3471136535169732,-0.2711651029430394
2.687895536,1.82504043865232,-1.4378541871155535,2.898178186053892,-2.736745249077636,0.35319463824130065,-0.2719784954269461
2.7077710550000003,1.7711411926162544,-1.4590813215694691,2.8973799596051477,-2.784386086013366,0.36841558782464273,-0.28008994193859416
2.727772867,1.7163300971920747,-1.4776725705007476,2.8999681365336505,-2.830807438713305,0.3693317366706835,-0.2708465512848668
2.74783717,1.632398294516378,-1.5002763903277285,2.892865132711142,-2.9020457354473264,0.37402960626563847,-0.2725636533041514
2.767772025,1.6042341151779709,-1.506364420544222,2.881466830839622,-2.927884771615873,0.36609250172362173,-0.26675646208981685
2.787802922,1.5473878796514076,-1.517014265081659,2.8933183614560267,-2.9772951316277863,0.37239142939174136,-0.27620914713082034
2.807774354,1.5187145657665901,-1.5210619138553985,2.8957596408072592,-3.0003572932150453,0.3823367000471803,-0.27854634840529063
2.827817971,1.432197159965368,-1.5296979386248672,2.9017051420998343,-3.07279442871894,0.39302580414941285,-0.28002994074571125
2.847776444,1.3456503378990738,-1.5318965986442767,2.884314731924693,3.135294930941241,0.4062256632961573,-0.28181294769154036
2.867784731,1.316770504651153,-1.5311075496026796,2.884314731924693,3.1109815782138033,0.42325290763002177,-0.27559393546227884
2.887772965,1.2586596194247877,-1.5276805902852169,2.920613859913907,3.062715792862179,0.4520181078327282,-0.28291686761713025
2.907772538,1.2008157820750793,-1.5217637438679656,2.9072138649739325,3.0135922752020683,0.42688608494042735,-0.27989387568224067
2.927785428,1.1433907779507817,-1.5128214113635745,2.9056766660309736,2.9618473723169276,0.436351087310733,-0.28866148785735857
2.94788743,1.0858940739800036,-1.5013261195361236,2.930947066420197,2.9140469014041606,0.4416683839367301,-0.28187601843766363
2.967799112,1.0290434805970488,-1.4870432180874447,2.929003326489433,2.8648928521245955,0.4588402856468357,-0.27385301224870484
2.987844395,1.000998424747778,-1.4789033269260057,2.9202448282786055,2.8389270353171416,0.47971761184157447,-0.2900495516872844
3.007812382,0.8901430349190302,-1.4392571958903726,2.954516605485283,2.73918236410586,0.487393258271971,-0.2815242021003337
3.027769096,0.8360375313097719,-1.4155120780140291,2.950519398667649,2.686935875175108,0.4882387300014335,-0.2806793216013181
3.047771842,0.8093714014456475,-1.4026552723596006,2.960371486091049,2.6606825493985693,0.49223450186132295,-0.27795061817163225
3.067770755,0.7310548338907443,-1.360090732035251,2.9686622652572328,2.5856144660255853,0.48923205662853847,-0.2766422923582223
3.087771119,0.7056235148455153,-1.3447348182948022,2.9707845347388178,2.560170724627825,0.4985390178806663,-0.27464817688251053
3.107797368,0.6559115626541726,-1.3119428576061165,2.986867683189028,2.5058870438443592,0.5163244744239655,-0.2799108828264788
3.127772299,0.5840816285848859,-1.2578520944518876,2.996733834404906,2.4270443223613154,0.5111060542673949,-0.2615527355771234
3.147772891,0.5840816285848859,-1.2578520944518876,2.996733834404906,2.4270443223613154,0.5288980613529367,-0.25797324336299626
3.167804255,0.5160927368802023,-1.198829876613952,2.9993130367818552,2.3466723803045553,0.5477333713760223,-0.262478407068739
3.187772263,0.473015671104353,-1.1563450265176707,3.037993867985406,2.2929657055993347,0.5301493191263309,-0.23943193454962453
3.207774034,0.4120252252097607,-1.0886992847988006,3.032483092052757,2.218017126764979,0.5415987227225492,-0.2384155458768207
3.227768982,0.39267466994683115,-1.0650778485461256,3.0535491475050454,2.1927320180847656,0.5451371940314647,-0.2279642593274852
3.247789018,0.3553105412501479,-1.0162236271881917,3.0854042131119774,2.1470954069202057,0.5475789815985164,-0.20947182881651447
3.267797317,0.3197742868693921,-0.9655946427972714,3.099347074980158,2.1026069682052837,0.5658538001370698,-0.21641891715391584
3.287770891,0.27072412359033293,-0.8860268086995827,3.1416023542253257,2.0366738129821123,0.5722627803421789,-0.19717445844146156
3.307774101,0.255553514693452,-0.8584590710392314,3.1416023542253257,2.0152472603087097,0.5701768870424431,-0.1864331653671386
3.327771323,0.22605784853339853,-0.8025886439664727,3.1559870639333107,1.9814491672951717,0.5601873065004506,-0.1522226819703755
3.347771261,0.1849137796839505,-0.7155979824247981,3.2374130062430893,1.93930458245721,0.563919908450593,-0.13215145783920682
3.367792615,0.17190069463381755,-0.6857894358026707,3.252521843501649,1.9295836393063919,0.5608959019000014,-0.10539503726727713
3.387782729,0.14679761587845577,-0.6248433806047231,3.316468349482017,1.9183998726403486,0.5657063068658587,-0.0789712997215313
3.407797003,0.12228640289348801,-0.562629699488,3.359100435658382,1.9150985204551867,0.5570385013184125,-0.045251660630397296
3.427771225,0.09843471182384261,-0.4991132615938692,3.4012888445050256,1.9224719173501004,0.5749195261930967,-0.02652912884268488
3.4477897950000003,0.0744634697860786,-0.4344992575443783,3.44996807673079,1.9325628620214381,0.5844272524973959,-0.003709006502348232
3.467772147,0.050498622494155786,-0.3691359481979256,3.4887773501738057,1.9446664679702663,0.5270664456885157,0.018016879562002625
3.48777087,0.012910090660751179,-0.27028521503437075,3.533833888554689,1.9624093205327404,0.5217636322987138,0.03211554242271426
3.507770281,-0.013291542736345247,-0.20426193204600246,3.561581573009417,1.9769990413280512,0.49549168889436584,0.04695845232761298
3.527776083,-0.040979882475630086,-0.13822578047371167,3.590880701813336,1.9928114885914927,0.47826261291032607,0.05928410868170916
3.547769085,-0.0699875385016343,-0.07246147735192816,3.5923512643216724,2.009718666900709,0.46277431203013275,0.06807901525934668
3.567773522,-0.08480998305740127,-0.03957640231472797,3.6071221532006277,2.019517927767582,0.44665763846902656,0.07608496547295758
3.587865423,-0.1319426761205926,0.05864325583798178,3.6262545551237517,2.0488358724457822,0.4357310897834238,0.08347514421451925
3.607838679,-0.16502534353289738,0.1233872364408216,3.6342524753317065,2.0698031121810945,0.41890290361963034,0.08933976667690693
3.627794129,-0.18202752995011254,0.15561079029590014,3.6433937009564072,2.0805903847483793,0.3807189790865991,0.08708914223754564
3.647789349,-0.23523506685702855,0.25153831506730207,3.6593603309711176,2.113049015820184,0.3583192374788981,0.09542657357853954
3.667769526,-0.2725624034368469,0.3141410667821912,3.641648118360209,2.13704063542828,0.348108356777362,0.10366987140607131
3.68776918,-0.3113660371870066,0.3760542061988552,3.6544274813471866,2.162965982730502,0.34117740900104554,0.11416556804876639
3.707770213,-0.33142380963429785,0.4066704380014369,3.660147381372406,2.1774165697712338,0.3245441395013891,0.1191416556133207
3.727769351,-0.39376154827264487,0.49658191133899404,3.6463949249774994,2.2205405874053175,0.31991918327438884,0.12660530870956793
3.747839344,-0.4154302103800254,0.5260063998101013,3.654218711722323,2.235052432876587,0.3229123722476246,0.13712516908743919
3.767897205,-0.4597553962755739,0.5837065701414571,3.6391663378741916,2.2673222419367036,0.28187814402733796,0.1436624982312256
3.78777257,-0.5055645388820617,0.6401440415686653,3.628046888108182,2.2993437589101533,0.27667466833252263,0.1485517667076694
3.807867892,-0.5530806500953436,0.6950655235489848,3.6270731989835174,2.3325511243988917,0.2628829208639522,0.15304388141590305
3.82779835,-0.6022183694770803,0.7479400764388369,3.5939936226645997,2.3701462750008964,0.25875658276274677,0.16105074626904387
3.847856522,-0.6529063598139679,0.7990478114127125,3.607843252553957,2.4096161300991352,0.25361915454958583,0.16066037929626734
3.867774161,-0.7049523275218076,0.8481639855846473,3.565473271963282,2.451711412503171,0.25320891445194205,0.16897141202559246
3.887879657,-0.758708394832523,0.8949924618524109,3.547124333036081,2.496298609585476,0.2581830579056549,0.17192018572603796
3.907867672,-0.8137620401624129,0.9394562660850141,3.5230955222980875,2.537995812683951,0.24561080945908778,0.17038897348890386
3.927769821,-0.8700367477523262,0.9815002515643602,3.504150264986,2.5826774238502894,0.23034228220375658,0.17436668414354378
3.947780201,-0.9274264289688333,1.0209677818044673,3.4899800648780572,2.629395655633165,0.22915536957637073,0.17707585341684393
3.967789844,-0.985775868095341,1.0577875051507748,3.4540305321670184,2.673411657648191,0.214414347797019,0.17955393863398691
3.987873933,-1.0451910425174118,1.0918270506011218,3.417890059127146,2.7204732138303753,0.22239113496896898,0.18128569283490448
4.007796414,-1.1053520636848724,1.123364450284931,3.3870820355149664,2.763669750721225,0.22505339467873073,0.18248601862580288
4.027773427,-1.1357927107021182,1.1379496946665655,3.375444184845245,2.786274829316027,0.23285600911305676,0.18471455921074723
4.047868278,-1.2282517524818952,1.17707500950633,3.3302198526202567,2.8551947288195723,0.24203758914061413,0.18589695604733383
