time (sec),x position (m),y position (m),forward velocity (m/s),"heading angle (rad), from x-axis, positive is CCW",throttle (unitless; -1 to 1),steering angle (unitless; -1 to 1)
1.00902428,1.9267255742895375,-1.3138514156881504,3.029704045309942,2.904608164930742,0.4583516609603739,-0.3346290509904472
1.029015088,1.8680444841661241,-1.3000576353707127,3.017343530829828,2.8580109505194606,0.4587965820950318,-0.3302126924105982
1.049018338,1.810140854362752,-1.283125204784075,3.0196117002010325,2.8072639608778376,0.43030596580920566,-0.3272323315462717
1.069003634,1.752977620804448,-1.2633693395802725,3.021629016638836,2.760046677999291,0.41098227442607665,-0.32534738258730483
1.089062878,1.6969790610957316,-1.2406606079915856,3.0261216143125367,2.7101904529181993,0.40868090105813865,-0.32349700912894086
1.109004023,1.6424526444941137,-1.2154103129881229,3.0027438686424985,2.6568622619984223,0.3994760534182632,-0.32157350930196105
1.129020175,1.589031455547098,-1.1874102087026446,3.009358202135518,2.605957866521548,0.3930030218422305,-0.3209656134105316
1.149009156,1.5371740040538515,-1.1568143709678267,3.0158275267115857,2.5543226384178226,0.401621013400677,-0.31961622815121826
1.16901475,1.4630240296702477,-1.1060658350140788,2.9921030356672187,2.472098706614708,0.4073421918158981,-0.3167470511057062
1.189001794,1.4392909083904926,-1.0878268538901315,2.9931947449494083,2.4447645841483707,0.4154377626778001,-0.3150008538081756
1.209010995,1.3932727082048306,-1.0497862507584124,2.985375214185501,2.3925388140060893,0.41288857957583314,-0.26810854074353113
1.229009882,1.3491194931308697,-1.0094743824204337,3.0091321819517525,2.3386935918062455,0.42492701197826566,-0.2533300387252384
1.2490154470000001,1.3068109626930577,-0.966819402500082,3.008979494835656,2.289087871673577,0.426258524276215,-0.23933540381020338
1.269003181,1.2471369044688378,-0.8989651465438347,3.015895979095874,2.243053265251909,0.4275062648119281,-0.22499105200576658
1.289005498,1.2282307881400438,-0.8753363263869077,3.0261565997917104,2.2002518231951953,0.43542270287971263,-0.20043499915670848
1.309006803,1.191700767001832,-0.8267372601998988,3.0402053927318304,2.159260878046201,0.4408237932266266,-0.17687926852147082
1.329011547,1.1567788894841249,-0.7762261309205927,3.090677656097795,2.1242183614785133,0.4504062662270791,-0.14790959810234133
1.349017362,1.1236640712001253,-0.7238651721187828,3.1106304166876027,2.0922182539437237,0.45004729789735903,-0.11828066637004685
1.369006369,1.0917361373612022,-0.6699598347653914,3.1379730654928677,2.06466653849439,0.45938404896788426,-0.0900605213704782
1.389007283,1.0608314018745064,-0.6146983610258734,3.180966513808763,2.0461236610895823,0.46288405725127824,-0.06327313052511672
1.409007396,1.030126247968274,-0.5581088221452412,3.237775091008471,2.0379819091030034,0.4760010418332592,-0.0371200199169624
1.42902252,0.9993441043066278,-0.5002278976377125,3.2884370115576727,2.0368976053635386,0.4845643939413493,-0.011823910846928293
1.449026154,0.968533071299888,-0.4413965925659216,3.338723474835913,2.041945893108208,0.46275692796922185,0.004351399246599479
1.469017906,0.9370262688422493,-0.38210242123853017,3.3752898874937625,2.0482631905306965,0.45429245951273106,0.028779002634896377
1.489003421,0.8888964887052543,-0.292178853701098,3.393845529579948,2.060183909251548,0.44531608174337006,0.051821386643071427
1.5090042060000002,0.8724350250694247,-0.2620034490532833,3.437346113927274,2.0648291409173227,0.43302751937922795,0.07184942883589907
1.529006741,0.8386581853762759,-0.2018188018334317,3.4712800198483014,2.0773606896152086,0.4180630439496461,0.08830347390424384
1.549019551,0.8032651210900814,-0.14186733274259003,3.4840055435366906,2.098357144232861,0.40750510845532284,0.10232247790650378
1.569007137,0.7660309089249209,-0.08260698711548548,3.505509645406586,2.1241779937884306,0.3993829598175193,0.11416835947587399
1.589071379,0.7274097945482481,-0.023680378883030633,3.526838092230297,2.151744175394386,0.39839956067025284,0.12548273591894268
1.609072756,0.6870805797809922,0.03452188887564154,3.5608831431262282,2.180234697278685,0.4010634750751055,0.13515658451978552
1.629018328,0.6455902077433822,0.09182526468177067,3.555320434596984,2.2060622642387804,0.40733890953040897,0.1463665299187881
1.649017715,0.6021054182623653,0.14841587218149188,3.565811077695102,2.235253935175326,0.3365817741254918,0.14890419078347158
1.669021281,0.5333365566587018,0.23086100815386962,3.567114807992181,2.287802777234314,0.33136486137339705,0.15607061563422728
1.6890048690000001,0.5097539898520626,0.2576241985700393,3.5670797838592883,2.305756719132811,0.3255402661887802,0.1615785427825754
1.709004849,0.46110671359527927,0.3099873352368493,3.582313586019377,2.3446815797922795,0.32239500752695904,0.16655118203832267
1.729016121,0.41097868796510806,0.36053183353991397,3.558978606988534,2.385799551678539,0.31729552144551676,0.17111812441019222
1.7490175510000001,0.3589916676503285,0.40939457551779856,3.579014901987356,2.4255655380837253,0.3287593863078418,0.17650107384132854
1.769001944,0.3052792113555062,0.45604089411511095,3.5632729556552794,2.471210597791143,0.33713319293355365,0.18060606194664008
1.78900704,0.2501038106422513,0.5004672484771094,3.529391229874037,2.518377119317055,0.28384698970297295,0.17543249556841847
1.809003283,0.19334710415402306,0.5426281065416373,3.5256628438201982,2.565095103711971,0.2865455229752632,0.1825592301879959
1.829033457,0.13510871499939586,0.5820678087649115,3.5101357926332457,2.616351391633533,0.2811856524397272,0.18302769604732846
1.8490177700000001,0.07597638847744911,0.6190212797435238,3.4830753767063447,2.668132452792999,0.2917929678113385,0.18274719036043438
1.869001149,-0.015384214740485647,0.6690613265744536,3.4646588872170203,2.74278474285534,0.2894065472144356,0.18290774793320125
1.8891280250000002,-0.04612875933590685,0.684443342651918,3.437780448177596,2.7682769286706934,0.3019584176112346,0.1809114060066184
1.9090070950000002,-0.10872528860745909,0.7126278688589867,3.414872883848634,2.8152880235063753,0.3232813704530586,0.1782722138914712
1.929013308,-0.17211272118282306,0.7377997015438388,3.3973495077538813,2.8645384730015184,0.33627189312396255,0.17562242101413597
1.949025716,-0.2361927680298225,0.7601340756539662,3.3908358554695885,2.9126842153830457,0.2814478102095413,0.1708880631152149
1.96900641,-0.33311045651525756,0.787767347716508,3.34704612626436,2.982409202879256,0.2891240060042066,0.168172887544905
1.989014392,-0.3655522954224416,0.7952203187893688,3.328692970961096,3.0047590450357964,0.291689616668895,0.15811647306831003
2.00905331,-0.43062942505106533,0.8081982815392468,3.318544878956427,3.04885498786406,0.3096527900288166,0.16407661354721598
2.02900762,-0.5285017191767826,0.8219383611268785,3.292935725464634,3.1137770344112967,0.3240359309533949,0.1628768623450738
2.049015133,-0.5611505267579001,0.8249471733479793,3.278715583045721,3.1348982063809414,0.33938981586165723,0.1608445722621774
2.069006422,-0.6588462386388474,0.8296109687304294,3.251394191969754,-3.086952386701442,0.30033076387417335,0.14581281179270386
2.089008919,-0.6913516145517046,0.8295705208820695,3.2505401078353007,-3.0661814280363213,0.3003601767549655,0.13849626963278736
2.109009,-0.7560802470847249,0.827465932307435,3.237279622541929,-3.027325468600151,0.3039053634263507,0.14681919087241618
2.1290114190000002,-0.8203099069121176,0.8223346642524828,3.2213886940160186,-2.986308939661427,0.30304093317932324,0.1483186708369438
2.149010367,-0.8840160062393938,0.8145267337102662,3.2198649694835395,-2.9485398839420243,0.30624341678028255,0.14315184686987625
2.169007458,-0.978414952626889,0.7973968807107433,3.1966845508332487,-2.890531088009908,0.317932217583898,0.15218909578806186
2.189103302,-1.0403272090417206,0.7826570296480606,3.1838210382299814,-2.8523531207732513,0.27041576683730256,0.14692817643362724
2.209104751,-1.1010471354344065,0.7655675179304914,3.1550278788189723,-2.8115455588487017,0.252105477823617,0.15468303005712264
2.22901121,-1.131150909045242,0.755936224604963,3.1606945387601275,-2.7907187665202193,0.236185738785318,0.15731013494444654
2.2490107520000002,-1.1903749913430934,0.7348076522899089,3.1339137238297496,-2.748926384462788,0.22388027443498823,0.15967688633672308
2.269004333,-1.2766687841136022,0.6989448741917987,3.111369003972409,-2.6857731196979047,0.20938206983918425,0.16362044999834535
2.289089728,-1.304811037803557,0.6858144910650134,3.10546840880074,-2.6641523666261793,0.20108533599645606,0.1615922936399618
2.309085154,-1.3596786510682835,0.6579757149933304,3.0722406297248077,-2.6214334997286093,0.19672872304766584,0.16620066267492598
2.329018482,-1.4129846154895591,0.6281153086873696,3.053106407091181,-2.580134133250104,0.20129095579164644,0.17006795115777895
2.34902437,-1.465042860638072,0.5959094573764361,3.0561366274236734,-2.535549759696947,0.20124315175526125,0.18025704254457667
2.3690144330000003,-1.5387507030580023,0.5435152725237717,3.0149293391137695,-2.4671367781425735,0.21173052253566219,0.18400172358362268
2.389065187,-1.5857123493376397,0.5067291413072688,2.979133828688796,-2.4233370376353363,0.22003809862206097,0.18101059055732382
2.409091278,-1.6312453956614543,0.46812026063170575,2.9802688320162285,-2.381038727309177,0.241622784392465,0.1495414918026985
2.429012748,-1.6527523633167638,0.4479460547162111,2.948810339861328,-2.3582242850907624,0.25099634046247143,0.15382673022060014
2.449047255,-1.6947593869381108,0.40654169820697506,2.9612806419991804,-2.3206232473447783,0.259269949989166,0.15862157670281302
2.46901237,-1.734500258118501,0.3636202248971261,2.9158300464689044,-2.2788758500205715,0.2472542074467661,0.1946257750140064
2.4890033750000002,-1.7722651698640142,0.3188205429615907,2.9321653898514897,-2.237833033483136,0.25086666698306787,0.18280022831243614
2.509022797,-1.8079468860054215,0.27261056655345317,2.918130276920836,-2.195583268277483,0.25785199854202173,0.17900175509893107
2.529045376,-1.841211890840546,0.22521117644151797,2.9016579591756515,-2.154190524150496,0.25294237074444653,0.1758086389013959
2.54901786,-1.8726616329413357,0.17631945569160837,2.9037848305507308,-2.1133250910259016,0.2647767387333441,0.17873120456264044
2.569007542,-1.9015424140181958,0.1262825456461648,2.887141964564333,-2.0683816398857564,0.25829373347239987,0.17725876172870772
2.589038121,-1.9284769402917132,0.075206579954489,2.878664283261038,-2.0249117859017542,0.2735256424797667,0.17431184505191058
2.609097039,-1.964500788050038,-0.0031913502949933686,2.885694699278074,-1.9617497111549766,0.2681225265677155,0.1716188049662473
2.629014463,-1.9752543752483835,-0.029617935742857985,2.8530756317800456,-1.9402027044581092,0.2595040436182176,0.170434958384789
2.649039099,-1.9951605811023247,-0.08311511053824717,2.8546407707681754,-1.897875621950749,0.2525939225324388,0.17403365927660422
2.668994358,-2.0206102506132955,-0.16442343128908585,2.8353468290944726,-1.8357690864975593,0.24227083142507294,0.17815883931182228
2.6890402680000003,-2.034475044818534,-0.21913497830239062,2.815713275851317,-1.7943405261444025,0.24190286926313445,0.1811518451563968
2.709021411,-2.040490851831332,-0.24659729768541336,2.8113500669791662,-1.7733103124649525,0.24208658735823316,0.18490058645823265
2.729009058,-2.0508897214998743,-0.301760998829959,2.7985938217801904,-1.732012372282931,0.23640071423265388,0.18257160776922435
2.749008772,-2.0588945958613882,-0.35725113812288944,2.798760476317288,-1.6918552868022199,0.2560324498173252,0.193264684979234
2.769012844,-2.063911533472503,-0.41278542908176474,2.78080008015852,-1.649459334468291,0.26329617048650006,0.1973654645419691
2.789053514,-2.0666209719965716,-0.4682996731231777,2.788428275338904,-1.608810741812309,0.22952684908435134,0.1882681312171362
2.809071425,-2.067151012434366,-0.5238031408026596,2.7806550163371573,-1.5667327929509909,0.22939482419800078,0.19205735767591783
2.829023918,-2.0652168106687956,-0.5790681935059885,2.768202568401347,-1.5206822436393945,0.23074215917712274,0.20240214647860397
2.849030017,-2.0607438983521775,-0.6338073236559073,2.7364425062438587,-1.474922602638357,0.23448574173708814,0.20653210994167137
2.869023467,-2.0539334152430713,-0.6882862093820316,2.7448518125035384,-1.4285632133679267,0.23690707484514817,0.21110544015114216
2.889015659,-2.044424356913653,-0.7421636556024215,2.7330064000485406,-1.3805317730364246,0.2489837868164751,0.21481707158779845
2.909061752,-2.0328547979889624,-0.7953149053308411,2.705997652750608,-1.3329692667417008,0.23918413331482868,0.2096999002089572
2.929003728,-2.0187376442558636,-0.8476676901287732,2.7224368397752947,-1.2856283686004935,0.23231770483688324,0.2139832844538602
2.949015657,-2.0020645881253243,-0.8990774281894174,2.707145259632942,-1.2359051719230734,0.23045812849694194,0.21714224281847985
2.969004724,-1.9831334457190408,-0.9495343261043874,2.6851343512934225,-1.1859465322663503,0.23889529983971217,0.22065233973100712
2.989005046,-1.9617910850966187,-0.9986549183586622,2.669895384646346,-1.1359334886595247,0.2366601813992037,0.2240536421592371
3.009009126,-1.9384444547799844,-1.0464112325024972,2.6600207002147487,-1.086089456200753,0.24513319215213897,0.22685101679029301
3.029005219,-1.8983606430353748,-1.1154055464045545,2.6629838006395157,-1.0117480505464942,0.2626444248352043,0.2297407618999468
3.049005438,-1.869147147900033,-1.15931341829799,2.632445288844195,-0.961112555444721,0.268265984585692,0.2323717441634793
3.069001804,-1.853749257744369,-1.1807859439081032,2.6422800330829013,-0.936805782546874,0.2605215461283427,0.22108531428063238
3.089094895,-1.8214726920793403,-1.222241211342556,2.6276444377281254,-0.887530817283646,0.26293617678965336,0.22330069432947922
3.109018825,-1.7870092523148116,-1.2619079512041993,2.635846035960643,-0.8366101539559428,0.26656118027063813,0.22568355631921425
3.129017295,-1.7510552232751853,-1.299435489578586,2.5823652150767504,-0.7849327747296553,0.2720069083626257,0.22819840319820547
3.149010283,-1.7128758253538712,-1.3350957107225951,2.6027832955014474,-0.7358872849744066,0.27316448321701714,0.2228735505673036
3.16900875,-1.6730714805069413,-1.3686469164047985,2.6067018225939083,-0.6855296418094586,0.29328066499269934,0.22487184484047665
3.189092867,-1.6316493440426552,-1.4001369375752966,2.5939056827350897,-0.6347241242809928,0.306079277385802,0.23500010606420874
3.209022839,-1.5887667456141776,-1.4293771670066677,2.598928855055857,-0.5826677931801426,0.32792216075924074,0.23688514902339322
3.229016365,-1.544360408569952,-1.4565042428495723,2.599962202302316,-0.5318398661357302,0.30408909669616047,0.22580260592503051
3.249009687,-1.4984315548582916,-1.4812236746809873,2.6037137190935136,-0.48123642738294364,0.3219148919883124,0.22678141251036765
3.269003766,-1.451424433128945,-1.5036581756569152,2.6209652886248764,-0.4293215219888763,0.3169932821889947,0.22871948714644574
3.289006735,-1.403276609132673,-1.5237949378093156,2.6169994143186606,-0.3783806318666604,0.3213402227439693,0.23014937305041186
3.309023199,-1.3541050477927783,-1.5412119949425802,2.615593842480788,-0.32883825045837256,0.33508971409808264,0.23134245096526343
3.329012328,-1.3038757432698358,-1.5561479672016945,2.6104742344052103,-0.27950518659194734,0.3458305719251422,0.23170914748875898
3.349009832,-1.2269454178677783,-1.574145776406163,2.6327283542711917,-0.20592757932527522,0.36136393344892215,0.23221686439747785
3.3690098490000002,-1.201083054358206,-1.5790552265176137,2.632421977377635,-0.1816944826234746,0.37916723708368283,0.2323723496778145
3.389100593,-1.1486609906089271,-1.5865136220462286,2.650775843006342,-0.13530002174915526,0.3464153628595325,0.2165916520693195
3.409065,-1.0961087794473219,-1.5913847774662448,2.650082133573986,-0.08786266799837986,0.3479135637540301,0.21775757317515473
3.429010287,-1.04306497918697,-1.5937250150147353,2.6616547751578827,-0.04064841154460232,0.351984514265057,0.219429849220781
3.449008346,-0.9896650319561228,-1.5937226233056754,2.6741989206541006,0.005233312630528424,0.36082682166679675,0.22107167284900645
3.469001918,-0.9359061443916885,-1.5911025103930179,2.6942081220283085,0.05283421321585618,0.36011252372688024,0.21478363740312859
3.489008136,-0.8823192329664783,-1.5856827870246595,2.692132065191593,0.09982066868758227,0.37765480909645327,0.22405580298420769
3.509021815,-0.8284785933614518,-1.5778573145334567,2.711531431983484,0.15104614082799436,0.3886891802975228,0.22599030342911888
3.52901968,-0.774888932310825,-1.5671734664999577,2.7422827023449896,0.2011318335718452,0.3769895518399139,0.2186199879445224
3.54900685,-0.6955188369436391,-1.5467662335111547,2.737556828673696,0.2757991640267262,0.37250080452483886,0.2191295943947958
3.569106628,-0.642997093172172,-1.5296534882329067,2.7605433821684837,0.3267748808217227,0.3705358504107155,0.22019145813300198
3.589071119,-0.6170962413307398,-1.5203083076296415,2.7535187063455107,0.3515354353340677,0.36878287896979284,0.22062095830830186
3.609095514,-0.5657831807141912,-1.499461615346475,2.770686390965905,0.40268537389472925,0.37770746928784094,0.22115322615315972
3.629032626,-0.515624175073485,-1.4759500034663857,2.7633211372975883,0.45700647759388957,0.3819256950891278,0.22005389858701352
3.649023677,-0.4662744202797239,-1.4498402379815534,2.775324964821753,0.5092302101917008,0.38494683354092885,0.21908329994242084
3.669004004,-0.39460068662410097,-1.4066197356744674,2.7885493922668325,0.5853080137644562,0.3807222365242744,0.20277302969196334
3.689109273,-0.3484671501277971,-1.3747336856498076,2.800773896926057,0.6337468372541287,0.370390284053934,0.2016091612738571
3.709044306,-0.30383306219026984,-1.3406072949195003,2.8085997592385845,0.6801424018661402,0.3770475097516708,0.20891351321618284
3.729013891,-0.2821040245456443,-1.3225824734407048,2.8231990122979282,0.7045200915916668,0.3743231421433042,0.20771869919798946
3.749010915,-0.2400770081833229,-1.285050765310558,2.820717272479164,0.7551779579767586,0.38298762865318564,0.20528517928365017
3.769004709,-0.19959503757523633,-1.2454635436883899,2.828460104322946,0.8013930975268208,0.38763263577701795,0.2035027030068731
3.789006543,-0.16082167436269174,-1.204051343175473,2.83587582231596,0.8469521929173602,0.3909612139913606,0.19384092012814916
3.809007675,-0.12375902575384871,-1.160563399629461,2.8511166414056146,0.8917057001391454,0.4049577027416534,0.19240119763211788
3.829015854,-0.0887127907886971,-1.1153233721189995,2.8650893616221182,0.9377394670682739,0.383965784803835,0.18678823938819752
3.84900456,-0.03950601532122643,-1.0444870406564986,2.8907592708219214,1.003647353565361,0.38104929080497435,0.1938493824912351
3.86900365,-0.02436298141044916,-1.0198907902970151,2.8884026862079657,1.02563319695149,0.383057134209479,0.19242427008615126
3.889012918,0.004535163176258395,-0.969791746074236,2.8922344465604004,1.0700290335445577,0.38418888690461667,0.19254415673537242
3.9090207130000003,0.03144291207157788,-0.9183005779244091,2.91144787014983,1.1145548128568947,0.3882130411029121,0.192833746343269
3.929021444,0.056043774717846016,-0.8653505345546664,2.9205940109501816,1.1579077559807671,0.39220207232992854,0.19327643034923336
3.9490217110000003,0.0783696548737885,-0.81127846493694,2.912511576048379,1.2039917540043175,0.3993909654310046,0.1930842716158468
3.969009074,0.09825498641407815,-0.7560947767801527,2.9356580446383176,1.2474541403011032,0.3827700130312983,0.16142999774146616
3.989085678,0.11628478478107546,-0.6998457767244569,2.9455544886423763,1.287991226150838,0.3896931921045326,0.14596095396740336
4.009048621,0.13265537188971657,-0.6429897229368471,2.9587286991424895,1.3212167330798756,0.3908052265195058,0.1230546769173161
4.029004764,0.15314863281875077,-0.5562350930622837,2.972539163763731,1.3653493591800545,0.38698336725236243,0.09997251462600026
4.049003001,0.16518869359474486,-0.4976458798717233,2.992273222061921,1.387312378796168,0.3872186998853725,0.07716355605862243
