time (sec),x position (m),y position (m),forward velocity (m/s),"heading angle (rad), from x-axis, positive is CCW",throttle (unitless; -1 to 1),steering angle (unitless; -1 to 1)
0.139562327,1.54113453528486,-1.4929838096133428,0.13981428704885587,2.49702578542132,0.65,0.04851677737882987
0.23956590500000002,1.518808906967732,-1.4732519130358959,0.6224186185741817,2.527842371367015,0.65,0.07989161109205661
0.339440369,1.4455038235987532,-1.417035686562372,1.1886415424123304,2.561581913626201,0.65,0.024981807213960264
0.43944020500000003,1.2973248626241414,-1.325411489077827,1.7739540627178245,2.5503152409706673,0.65,-0.05116421078481121
0.539440797,1.1414182959172396,-1.198515866592863,2.1682512166655274,2.509794901814344,0.65,-0.13375177671035288
0.639438555,0.9524468530215989,-1.031320875203499,2.6645259629333142,2.3690018125445107,0.65,-0.18229895403600788
0.739438464,0.7854413934032989,-0.8297177389633978,2.896452452620491,2.2155754622698867,0.6220783784892512,-0.1995616546287921
0.8394341580000001,0.5895358988516174,-0.5563946138858914,3.202085373770491,2.0751750875503467,0.5275786820950995,-0.14170352432352884
0.9394347660000001,0.4646293120355862,-0.26352252962790923,3.3757782951418513,2.038815694601634,0.4719805180873216,-0.04547506420919416
1.039436274,0.33346977227899255,0.01114063528974779,3.498216406271027,2.002687644525915,0.48774308704285096,0.033958046006137
1.139435286,0.15908512782422327,0.3666985181577427,3.5855547832201746,2.0954586710922296,0.36284197970493615,0.0886351976926812
1.239449381,-0.06619659239884065,0.6713362467169602,3.5940957063662475,2.2544774419645552,0.3051437491547523,0.15822363934328418
1.339438381,-0.24263011480796798,0.9022877168335154,3.482962955578147,2.441920453845134,0.2793834431427584,0.16097260217706671
1.439434997,-0.52918197905465,1.1253315313016898,3.3991341433282587,2.648140929799474,0.28939133135264083,0.1750258875620697
1.53946083,-0.8113476777580108,1.2867187157135747,3.303308711502954,2.8558881217803727,0.2800215623711742,0.1737833183712959
1.639437644,-1.1521104609338193,1.3573115967627984,3.2051888426096515,3.0775021969158365,0.29352227064940906,0.1831854177498996
1.739515026,-1.491463921070414,1.3674266588315913,3.1534060528522345,3.314702463498489,0.32385221115751,0.18966187862220146
1.8394328830000002,-1.7771998239038982,1.2839657716660293,3.0621061988861586,3.523592760970699,0.3245761956506209,0.19539756155116697
1.939437732,-2.02020239945982,1.1611225359949813,3.0366630818863847,3.7224377771553634,0.3250613221119025,0.19867830385017646
2.039566877,-2.284848291402406,0.9942345175112222,3.015279244823476,3.953328339486623,0.3651712602644417,0.20461545949012616
2.139561755,-2.4659722742698635,0.7545278277590987,2.9815422809403618,4.166203294287959,0.34504185360569833,0.19779023836791385
2.239493021,-2.5872534295862883,0.48267128134872844,2.9877759030755144,4.382099175649023,0.359445929397972,0.21768612130988244
2.339438558,-2.681353418224768,0.21199470954259247,2.9712516935175994,4.599176199809455,0.37481045235528027,0.20481973456219568
2.43954129,-2.6856975548261133,-0.1001763404318391,2.98062784234355,4.8315964563613445,0.3811304269081903,0.21260158341174246
2.539434376,-2.612987190695903,-0.4139153311615001,2.976598432210525,5.070769534815638,0.37866661411760405,0.21700748169852713
2.639437316,-2.5042476622012995,-0.6572321506358738,2.9761279371217997,5.26350794677188,0.38352860667673494,0.21681656750512474
2.73946928,-2.336385041639075,-0.9031728268246072,3.007818247107665,5.491758747595729,0.38895380930953455,0.21786290594015786
2.839433806,-2.0750113498277343,-1.111246947491985,2.9743423845797397,5.725455122036632,0.370964102822609,0.2166720027141107
2.939438016,-1.8241298798528223,-1.2415908630752075,2.973935581739419,5.955638591624003,0.3639308317113468,0.22175501921337556
3.039435034,-1.5621313120818008,-1.3220407516433959,2.958920844944138,6.164453470791439,0.35711352405685215,0.22141990047915963
3.139436135,-1.2213567898761477,-1.3151641330711428,2.905744275033442,6.418612892326442,0.34908043466554417,0.23338795195450077
3.23944011,-1.0108673813390334,-1.27955729068578,2.910640178680225,6.626606644889858,0.35740720252764197,0.2225265720791222
3.3395483710000002,-0.7154708517566748,-1.145999389303502,2.872238833872426,6.847007952759014,0.37630976268813804,0.21871824576912077
3.439448873,-0.4832926132231576,-0.9795854320555599,2.912318539582683,7.063632377408278,0.38317522257784564,0.22529286879111
3.539436298,-0.27431969140394313,-0.7137177147269241,2.920749622402525,7.299744777798923,0.42573317616900436,0.19547017401799027
3.6394471250000002,-0.14341580031015988,-0.4620812670122503,3.0402661493425653,7.452430588420941,0.49179553451525393,0.09824245946649099
3.739458258,-0.05722904856322257,-0.20820393842246113,3.2209455444489885,7.490232640439071,0.4644627909130895,-0.0095519045343069
3.839436474,0.10767206873321404,0.10403037213176902,3.36456204672773,7.4886322345513125,0.41731478227168217,-0.07928013492923675
3.939452884,0.2326929592665764,0.4263532820931488,3.427596324500736,7.424783573025418,0.3562045538382682,-0.14590586307505699
4.039460049,0.3941494010495379,0.7104640149765368,3.3994058255146222,7.258643538356594,0.28950931444262773,-0.19091099602437983
4.139434551,0.5837244744803071,0.9380570423647733,3.3255593753445982,7.0848296651884315,0.26293857933326237,-0.21603834625490415
4.239440374,0.8874769196273864,1.1953555628130343,3.1851059011589897,6.809470914970597,0.27461838961665347,-0.228757557764117
4.339530429,1.1432094594194613,1.3170315812429378,3.1435647333107237,6.617587963395449,0.2829350444818932,-0.23252883545767328
4.43943767,1.390115916831671,1.3916902090064023,3.068549654853318,6.412165326682246,0.3264043721236403,-0.23713232938647655
4.539461071,1.7427615092651982,1.384286349417859,3.024253880265071,6.1767249539451745,0.36465851008911476,-0.24127410639845515
4.639443294,2.043449381734551,1.3289574482742166,3.015038806789496,5.952525656238826,0.3747266088331209,-0.25256407065841424
4.739460911,2.3205873051520984,1.204140572714402,3.012628679779467,5.716775119641933,0.380524077782501,-0.24715501250987307
4.839434847,2.5587508417334486,0.9636649742552948,3.0149014595621004,5.46230659210398,0.3944622154676627,-0.25174299018842916
4.939457604,2.72580118640023,0.7615503581958434,3.041791843556606,5.265257003875903,0.39353105113173475,-0.2502372704850405
5.039516756,2.8625267201741647,0.47242997965403255,3.025833399023262,5.039168970908351,0.38640460315486475,-0.25975193343449066
5.139585806,2.916779006111446,0.18270739535862499,3.0399081268280224,4.8164980009037235,0.39575135326423705,-0.2567178162035949
5.239438947,2.939250051230915,-0.14928081368173185,3.0179479148237176,4.5545422824356026,0.40036727392275084,-0.2629520869749821
5.339450332,2.8576407470996075,-0.3977443636483359,3.0349703578215492,4.368218277792737,0.3787827640990532,-0.2536626640184485
5.439436462,2.7465103845511116,-0.6704820536932525,2.999886081046105,4.128227813975069,0.38289342656047304,-0.2549356245346147
5.539434963,2.5145879931385533,-0.9462002933764987,2.984635794949274,3.874469644100427,0.36277325872244776,-0.250863800409991
5.639454948,2.2822412111410295,-1.0757468569790438,2.9784519238892884,3.680565237067188,0.3561055694776012,-0.2566562686537713
5.739439959,1.9948472057606197,-1.2132830104863086,2.983949731401931,3.4372089824350485,0.37751925299079486,-0.25861391585083765
5.839436732,1.6937651563841247,-1.2653340473628738,2.9917605504832503,3.203164391934824,0.37334784290586004,-0.27090162311444893
5.939433843,1.415526946520895,-1.229643888746613,2.9638379412482507,2.9480579071041344,0.39248782312597286,-0.2675272418003497
6.039501282,1.170413416818246,-1.1703317959775552,2.9667447445467885,2.729552207004148,0.42385971581649867,-0.2647450686311481
6.139432785,0.8623932612848403,-0.9890234502806077,2.965300116665818,2.4663946007080333,0.4502950481543029,-0.25949330989875474
6.239438684,0.6686479473719469,-0.8008973089599287,3.0303729557712575,2.268173614507163,0.4544455198911233,-0.24075094548046352
6.339484495,0.5202315021409477,-0.5587039012200629,3.0886209554539623,2.0675617875780175,0.4654306132383351,-0.17061048077865731
6.439434544,0.3573295159036884,-0.23398746335636317,3.312174463354418,2.0035091087618064,0.513805408797635,-0.046251372139715904
6.539503765,0.22042385161239392,0.06476189095548568,3.4467137644802497,2.052309274888708,0.4541562417832642,0.0409830098457348
6.639453121,0.07726139153246508,0.34700398142655414,3.5145446987692526,2.129701026601447,0.36421535438588876,0.09260522883100754
6.7395377320000005,-0.16097078942715826,0.6759921456811213,3.5467827445968436,2.270139296236838,0.34150914496213697,0.12951911027184967
6.83943711,-0.3972968272749303,0.9269807684479869,3.4731978792963267,2.441345098719133,0.28272361958243825,0.15621439614326363
6.939458782,-0.6268484994757602,1.1175536020475527,3.4042080300112167,2.626907275676768,0.263147010924465,0.18548048024916733
7.039553285,-0.9380254969394684,1.2664382192457218,3.2794432707589087,2.8654417819197504,0.2876942838920243,0.1925995265596874
7.139433869,-1.2768997800658153,1.3479338009781343,3.1643499287082295,3.069888181244995,0.28670958905941213,0.18182628586738125
7.2394351310000005,-1.5625691979834322,1.349510633581336,3.1118271288324464,3.2898045110899554,0.3084322474858474,0.18792114309964064
7.339439667,-1.8157997912160633,1.2973195036046368,3.076071701757437,3.46433743134891,0.3314093581292718,0.19835402512241113
7.439432427,-2.167537251974396,1.1367389031199018,2.9998736744628753,3.7527980101500957,0.32405584340860466,0.19296256652410906
7.539532845,-2.3661234308630896,0.989782698225271,2.979460741776563,3.946911004433717,0.3427681681747539,0.2041147364454252
7.639536042,-2.570957059376629,0.7568733126900158,2.963521360067788,4.184385318101418,0.3752277835846115,0.21088631130642738
7.739435117,-2.6843567751185478,0.4985851842367811,2.9669004427417525,4.40092578738939,0.37628574910761287,0.21606733195577044
7.839433264,-2.781734169967207,0.14855783904185213,2.9733179196014032,4.627198013247037,0.38053429763808816,0.21543157076236186
7.939560511,-2.765463216804014,-0.10905927430811439,2.9954494496040907,4.84287410106506,0.41487571197366013,0.22344739808305752
8.03956444,-2.710132586949163,-0.39736076430226397,2.9911361257951565,5.058179555653528,0.379780077158317,0.21455807221430637
8.139434409,-2.5836152164022934,-0.6809666243870046,3.010798811714256,5.2886126824383215,0.3783028286526885,0.2160776204831029
8.239454921,-2.4196117136807107,-0.9023796101880645,2.9880943081989,5.521033437569643,0.3897641364715174,0.20628443538952781
8.339438271,-2.159947175015336,-1.1131888812673973,2.9723972258455453,5.73858979000051,0.37807907009917385,0.21243429604638592
8.439435991,-1.8849549692062795,-1.2494360445218555,2.974207048387771,5.968623664641823,0.3672653960667378,0.2245445361546785
8.539456769000001,-1.6467080958744282,-1.3231031310737313,2.9858588155781898,6.171612774181212,0.3704930575212045,0.22485310783106638
8.639444075,-1.3494715474431314,-1.3340515502171735,2.950477635024932,6.388455608107497,0.36501552376953716,0.21848519873330494
8.739463938,-1.04985213402718,-1.2740569742085157,2.917494499828754,6.644843076212217,0.3597406784121107,0.22027669758497795
8.839489312,-0.7874680994390475,-1.1414449902677162,2.9184837761487836,6.854843518780381,0.3725590893755361,0.22067915951494266
8.939447996,-0.5559918345968046,-0.9696089864943246,2.9339932892059077,7.092365251858122,0.39824775029739484,0.22585848949501713
9.039443481,-0.3741221815509741,-0.7346137363596055,2.9662884578661464,7.300831214534215,0.42854433990061486,0.18945175683468032
9.139445974,-0.22521605079008092,-0.5330817882779991,3.044150525083895,7.475754091663534,0.4569364170727412,0.10774812299530204
9.239462484,-0.08749780740103769,-0.16234809085702018,3.2451273671753573,7.523964539642035,0.4806652198522759,-0.018465014718025904
9.339437256,0.03304967129716525,0.157278383493538,3.3465261693614683,7.478404222818412,0.42666477510716194,-0.09797493725571896
9.439449854,0.12451910161616694,0.42851365675484954,3.4166830840761606,7.40547241822532,0.3549114487210025,-0.14887142553253044
9.539442171,0.2897991851107228,0.7106248603269227,3.376272546453785,7.266544182756816,0.31145576299870326,-0.1972789450289186
9.639434698,0.5522555591295473,0.9921667826320905,3.290400086626057,7.019376849762969,0.2796212432624516,-0.21099684869537583
9.739434288,0.8074597529079309,1.2142219256954627,3.203306000536268,6.788425705572299,0.27374832945172717,-0.2115259333754226
9.839436185,1.0329202146737217,1.2923149520750914,3.123181644411294,6.59257351151836,0.30663179147112873,-0.2170363424825951
9.939458212,1.3760019214622021,1.3702777048117951,3.0549938484801613,6.360569778835278,0.34260032166304044,-0.23001075513863584
10.039439038,1.6838078616970844,1.3602946456281382,3.0586785771564773,6.127867228982699,0.35772564626557674,-0.2365458170708317
10.139455927,1.9338963256625976,1.3275946926853586,3.0291126830802564,5.964787829250459,0.4307889612184195,-0.2536483212130819
10.239461377,2.246537880405248,1.1848260520444776,3.0527444983957253,5.695721333932594,0.3976854799483943,-0.24691652009539922
10.339454842,2.4688499224127622,0.95843952285445,3.034764010923989,5.478456335520725,0.3934083415880963,-0.24862125971870813
10.439542697,2.6476299311344396,0.7461483728494378,3.0464579234471856,5.256904558872755,0.39874623502871526,-0.24200770124631965
10.539449669,2.7648602035319723,0.47452398902459453,3.054791943209934,5.0062253618692445,0.3988215736676327,-0.2463382038923596
10.639456829,2.838656974725557,0.16033431746582724,3.0441093350240442,4.78950690230132,0.378948090622318,-0.23544136832784543
10.739461259,2.8234837707637905,-0.1312548945790145,3.0214082415687336,4.563206496270736,0.3763689934865133,-0.23935500298468132
10.839587273,2.755789630171816,-0.4287342457997261,3.0196622236749304,4.319284915553653,0.37717000477637586,-0.24564739584546377
10.939468471,2.58034376807713,-0.694137213132758,2.9739574308789583,4.1137435373013345,0.3569432602264063,-0.24739987308098157
11.039438925,2.4102653469673148,-0.9241431637537276,2.9470592464619436,3.8451705027873735,0.3542091927500251,-0.247075727398442
11.139436093,2.1684347110380053,-1.0863280357761835,2.9771848399272924,3.6390565294583928,0.36858489700319413,-0.24434557359601472
11.239520118,1.895860148278283,-1.1923160555037409,2.9643737244637376,3.4192288072111316,0.35671498487732556,-0.24947814579566863
11.339434888,1.5713055068025,-1.239896341127624,2.94319937864252,3.118483922627866,0.36816872534760625,-0.257266172142433
11.439487005,1.2815916660441797,-1.2129911079797648,2.9575878662481223,2.910099482677732,0.40223980628879374,-0.25872208454589424
11.539433505,1.0330771537340862,-1.117269613933667,2.9737121062229557,2.7096176434310806,0.42156334020244984,-0.25746453091465926
11.63951532,0.7613544568940618,-0.9672359824041966,2.9639905687830517,2.440947268797279,0.42862269706756756,-0.24212023684586198
11.739461272,0.5844211224892507,-0.7474945993499542,2.9826226298933927,2.22303433044958,0.462722218008271,-0.22717721947424316
11.839455108,0.3986060096348135,-0.49560978173298853,3.119177659551832,2.044937696536492,0.49588724209802937,-0.15396395833659832
11.9394541,0.2738396464057175,-0.19733636401048935,3.301631906927719,2.0350418348989026,0.4644265382301764,-0.04953813815321276
12.039456568,0.08902394632499555,0.0681454431052066,3.4411624415223447,2.0259154070289633,0.39922676676961777,0.025396515136531832
12.139455977,-0.05131220312668102,0.43143845101321315,3.515827310918114,2.116568504411662,0.3630971094955588,0.08618896813599197
12.239434683,-0.25040344453173,0.7087869088815562,3.509349660675092,2.2450330078545924,0.2861456408422677,0.13136592618639284
12.339454514,-0.46637139208196204,0.9560519673632658,3.4863777744689157,2.3940993927032777,0.26788727467688556,0.16370583546945
12.439434675,-0.7934838452010781,1.2022564384980738,3.3861839445537565,2.626027356322768,0.2562021420047625,0.18751429110122825
12.539449797,-1.040312921068089,1.3409132951419247,3.2287651159001127,2.851308403494261,0.25298033439105444,0.19321028504585935
12.639456335,-1.3558568470583412,1.4347271968094246,3.138806659182494,3.0660351984116336,0.2806384330950367,0.19417866690242006
12.739435582,-1.6445419334678082,1.418320256218785,3.0813376906183625,3.297054908329138,0.31639834099517883,0.1922231492544694
12.839434423,-1.9520581366398093,1.354415695427127,3.0362648134480703,3.502181761376837,0.3280009857514524,0.19888747368915644
12.939431474,-2.229509657304005,1.226332575023921,3.0331381817323346,3.702907078460421,0.3431679850247723,0.19721879441167864
13.039500319,-2.4799781639116762,1.0368129100792742,3.029748470870352,3.915069667777852,0.3560475639991878,0.22356947842246794
13.139434341,-2.6809163983173785,0.7979407574484456,2.987534742069747,4.1785743692395485,0.3525944825196816,0.22804694471443818
13.239434366,-2.8037866402917158,0.5363693212273288,2.9775692446910207,4.406578523499389,0.3733451018018665,0.2225872437389395
13.339434993,-2.8708609440171835,0.25639126235312343,2.968206149409204,4.597226518852062,0.401598968102333,0.21780863999593716
13.439442563,-2.882363821286623,-0.042765986174913756,2.9985397883903793,4.823686819099242,0.4053682592442018,0.22452949003423128
13.539457226,-2.8326746307580812,-0.3434098917391375,2.9911955382805746,5.038750076752448,0.40333252614834975,0.22631434641438322
13.639448045,-2.698756761264207,-0.6066467015484542,2.994789082099137,5.26694049538363,0.40620492161685195,0.22176133976266446
13.739493506,-2.5109835926611335,-0.8645300937488618,3.024699535008798,5.523143312732687,0.41256610097113555,0.22286088005020488
13.839437037,-2.270157183022475,-1.0612904901208557,3.011209325245033,5.738215278175732,0.3922930780197719,0.21973822907730498
13.939433947,-2.02521317058015,-1.1961370471263952,2.998623111207417,5.946157757298537,0.3856927525815106,0.2084880167855405
14.039433214,-1.748826339067781,-1.2656559443956148,2.9994100078790225,6.150227853572659,0.37445816983705565,0.2239103043245519
14.139527501,-1.4499072720079127,-1.2807107634369224,2.997588680543316,6.377166477950488,0.35131868787097864,0.2222307032791238
14.239442964,-1.156398627699572,-1.2156637540934676,2.93575958187035,6.616198551924184,0.35012435775375617,0.23081616191456836
14.339464495,-0.898150158914368,-1.115618384931807,2.933007960608476,6.827760143618559,0.3841892521705603,0.22657254285084003
14.439437536,-0.667551009613997,-0.9302694152858408,2.935929142665602,7.0585188435293045,0.37525943630196246,0.22470176562110034
14.539435154,-0.4456626699359255,-0.7256848839054226,2.9649327173643436,7.269470187841995,0.4265302210853628,0.18659929858131408
14.639437122,-0.2949433530125182,-0.47066827587149035,3.07086365631606,7.438358327476074,0.4782133844621786,0.10422005140683742
14.739530707,-0.15933267682329239,-0.16285048552899706,3.2291559854670364,7.471362290892713,0.48292762833122743,-0.0008107296339330064
14.839436992,-0.02844038356473455,0.14385613731796387,3.3880692363732683,7.427436469060111,0.42653842047168566,-0.0779411828355864
14.939538158,0.10165834131926162,0.4282722275137254,3.4292700491014223,7.360290673963699,0.38998685534307737,-0.13636413049955945
15.039431965,0.329699188324964,0.759255027733234,3.3918827422292632,7.1861777855282645,0.309143932815879,-0.17941006318214117
15.139518973,0.5268484471248476,0.9777044754917837,3.3385073283616324,7.009335663692933,0.27669973039237483,-0.20302449374228593
15.239465965,0.7753838303683297,1.1768080552022757,3.260840103820619,6.788857759561421,0.2783988206756276,-0.21560570370041687
15.339438478,1.0410741007452302,1.2947010891135435,3.151999785365763,6.604326012771459,0.2971637314685541,-0.22128547506579643
15.439432537,1.3800716400265882,1.3502809378260658,3.0713529465108618,6.30838083967518,0.3242896054421925,-0.23138902855215265
15.539564046,1.6774089342646257,1.3668189800936317,3.0424907265784404,6.114640635171439,0.3628128007015441,-0.23006541666518449
