time (sec),x position (m),y position (m),forward velocity (m/s),"heading angle (rad), from x-axis, positive is CCW",throttle (unitless; -1 to 1),steering angle (unitless; -1 to 1)
0.122753708,2.9692302306847522,0.0007938301171853024,0.008879177109687945,-1.529500786450323,0.75,-0.6689579173414765
0.22278266400000002,2.952592931630016,0.016281863455406352,0.0008085429243697209,-1.5198197991554676,0.75,-0.1002421553638242
0.322746083,2.9673571625459654,0.0020758265663145307,0.15493908647992152,-1.5185022287773229,0.75,-0.14543500455068212
0.422790618,2.970000460130203,-0.05465250870467901,0.9860424830225051,-1.573427014186255,0.75,-0.21931266516373651
0.5227471890000001,2.9428314561105164,-0.19427967059556625,1.727353661846245,-1.777474631438036,0.75,-0.2761513955331446
0.622831844,2.86484891123971,-0.4024870704101018,2.3378232149427527,-1.9856700776894294,0.75,-0.2809575744334638
0.7227459770000001,2.718098580022642,-0.5892694591953407,2.7856119297845074,-2.2821544840196792,0.749057740347227,-0.26868066052994183
0.8227470240000001,2.5086709696666127,-0.80299227380502,3.007915088017331,-2.535437765159912,0.5984416951673716,-0.2417906188732923
0.9227430480000001,2.240648216577344,-0.9624863585196004,3.08396214621553,-2.763290688564426,0.5160950226435082,-0.21660242066915247
1.022747874,1.9350239304271668,-1.0527921715731872,3.1479246447607245,-2.98968659795401,0.4674550333989574,-0.20468842012595653
1.122793033,1.6299081551015755,-1.079591982395596,3.135795089402589,-3.216513008441053,0.40240813970286354,-0.20619452714280478
1.222743381,1.3199092479910173,-1.0098869596985547,3.0668083588698734,-3.4428294653169433,0.36950555482443664,-0.20288609864647225
1.3227514390000001,1.0308517310364165,-0.8954138182473188,2.959023199037896,-3.693000320992029,0.35604475798170443,-0.2010428768833822
1.422765134,0.8081941614149274,-0.7339214084076032,2.9127450129413925,-3.9367863248668726,0.35382929711561956,-0.20897166284854435
1.522753991,0.6069603367043764,-0.5121763389538496,2.9632388574737654,-4.151107017868856,0.46045927617993493,-0.1611354285448506
1.6227418720000002,0.46802015383838985,-0.25338689419037813,3.123377713120866,-4.270879900508709,0.5254642257036416,-0.08045374802255902
1.722751266,0.3348050184110589,0.04541828580559206,3.33959432406033,-4.289142975751309,0.5463139360763564,0.01962009536316057
1.822891064,0.18071312018521973,0.32915178763347086,3.482754825002432,-4.263979492156141,0.4559745860268676,0.08291068546916985
1.922740981,0.01229232693362322,0.6627180806247518,3.5792819920184966,-4.160563405492428,0.38030853357170114,0.12925037113395157
2.022751348,-0.19386353661881067,0.9384061849990435,3.550155139998951,-4.022866719540562,0.34119586419050757,0.1648958308216471
2.122752986,-0.45843113119880236,1.2035362230626703,3.499513317968788,-3.820905794312712,0.29747551598536354,0.18713470095060084
2.222750841,-0.7134068831444866,1.4116307312709013,3.3948084218571064,-3.5727649073679246,0.3078862654544811,0.19361598593026033
2.322753711,-1.0444712226846724,1.5139564011764297,3.3246987603370917,-3.3549626002615565,0.3677096109987004,0.19560824730182155
2.422754057,-1.3598688634163585,1.5782673554680617,3.2775389518164237,-3.1543410516901047,0.3983675220101951,0.19620997641413468
2.522748267,-1.6869361358924797,1.5543893640264372,3.2738003240247,-2.928014794868815,0.41560227124107246,0.19834486212571661
2.622745809,-1.991286131594114,1.4724742197565202,3.3321138295094506,-2.7011521447531566,0.4530768702854878,0.2045086945494923
2.722751959,-2.2812630085230765,1.305929672128593,3.3256176859682895,-2.5042853279321315,0.43890059008653215,0.20034437890219786
2.822747238,-2.541734063561311,1.102011075842022,3.3288552069852364,-2.2962526602413735,0.43335939940329404,0.20389450437892537
2.9227456810000003,-2.7439822614995064,0.8290803428974108,3.3726611912680586,-2.0707060948642013,0.44731579679419575,0.2102071260894802
3.022747345,-2.9005925250014966,0.5173426412661105,3.338646798950815,-1.854486677289404,0.3859545677015872,0.20476255737397922
3.122745715,-2.976922633453339,0.2253843571852614,3.2641243480573507,-1.6344913429225894,0.3474363276541787,0.2047896474824699
3.222746789,-2.973888913940864,-0.1198777329939997,3.1921209513181545,-1.422133544057489,0.34213199788729526,0.20470019634251363
3.322762674,-2.8951854706732023,-0.45013860332325206,3.155315853127418,-1.1899531862796198,0.3125551250230177,0.20795008152874664
3.422745361,-2.7490498710316578,-0.7187040817473778,3.0970815039696356,-0.9566503060453204,0.3087759698227743,0.21880053949486722
3.522744997,-2.5445084951107866,-0.9642314255713668,3.0010296184534098,-0.7335567577741385,0.3375617008998835,0.21611625242993648
3.622753844,-2.328606740534666,-1.1269637457052724,3.044268140586378,-0.5043545840347878,0.3634680155140539,0.23022050942365466
3.722784711,-2.0632838809834184,-1.2752245310532024,3.034663954519193,-0.2763992562255876,0.405813504781011,0.2402526723965196
3.822752164,-1.7459931766608996,-1.3165439779703985,3.075331640849897,-0.027365667952397473,0.4386910801388334,0.23685827414848704
3.922749528,-1.4467121668103484,-1.2977399577226598,3.1325812734708296,0.17263181601023955,0.4656011288444462,0.2385898837762856
4.022748591,-1.1389154068455012,-1.2346043036954466,3.1587910969018544,0.4025492458129946,0.45906989049627167,0.23519319494650487
4.122749585,-0.8535562355190756,-1.0663861658346874,3.1826535032570673,0.6461888575178069,0.45753619959013786,0.22662727513952344
4.222743347,-0.6235369159797219,-0.8692680746526362,3.2276621567353945,0.8728159448664886,0.4730852800702364,0.21999552370874667
4.322748074,-0.4370433720757606,-0.5895983416958074,3.335809046170171,1.0489351736020405,0.5358987281266008,0.1279582183595085
4.422748107,-0.25062435576604675,-0.31272512223822396,3.484988016009455,1.115882695017147,0.5482357426859024,0.02801927873358576
4.522749835,-0.09970070860930427,0.023214103493581984,3.6561731101810993,1.1131953092264257,0.5315290234574661,-0.04473289234355962
4.6227482470000005,0.07313640503428226,0.3654010695988375,3.744393046451974,0.9909103105417058,0.4542415887816264,-0.0954571912344797
4.722740312,0.2875477238833267,0.6575146737478988,3.6885176797595185,0.8495958488239582,0.3856763067332853,-0.11965934074157401
4.822791695,0.5485055278367378,0.915348763590633,3.639937434167005,0.6428709432662782,0.3565835623310867,-0.12789219557737289
4.922745437,0.8346658471166138,1.1247045038969499,3.569126464670443,0.47173808840343945,0.3506125705970202,-0.13263200478255543
5.022746334,1.1803490609255876,1.2694749172410607,3.4439084780452824,0.25639182634118524,0.3270497964257526,-0.13290959388544643
5.122741498,1.5016619792535468,1.335978793955728,3.3439306462404224,0.06408457757042006,0.3057145031423094,-0.14383844684885747
5.2227479070000005,1.8264703696392417,1.3367989862591954,3.223369371853693,-0.12876200911107566,0.29959473881677373,-0.15352391876989394
5.322769981,2.1298086840142014,1.273366897108475,3.115153081379417,-0.332852435873343,0.29073453119702936,-0.16351439674981036
5.422744664,2.435290253159042,1.1425947359409454,3.0473660264519644,-0.566278581956666,0.31586563133391976,-0.17549390237408788
5.522742052,2.662958547297423,0.937746411749642,2.9708013069870938,-0.764444079958887,0.3417911723121416,-0.1958603106659612
5.622742344,2.8643066966021635,0.7393593607151705,2.9423835274247545,-1.0163263048982014,0.38355227918368023,-0.20755698348123774
5.722742544,2.9680804061597565,0.4737625283907339,2.9225848268934604,-1.2577055918320106,0.44750160867702726,-0.21710167316039336
5.822751677,3.04892901616126,0.17579389553799216,2.9521178424814045,-1.5026880835148917,0.48525678645430925,-0.21578193533734522
5.922744364,3.0140969061740255,-0.09814465367224462,3.0003922161188457,-1.7304971977075365,0.5010287414213462,-0.20925013292857167
6.022743519,2.964140159494514,-0.40427219699554584,3.0906428431499102,-1.971805386730549,0.5121137863020463,-0.2064525330504354
6.122745116,2.8034225622658178,-0.6844352275443173,3.134872896238842,-2.1827508522218966,0.5260807400234203,-0.20443487228229634
6.222801812,2.6087000871918713,-0.9298557916711867,3.1343792055544117,-2.4202313312949277,0.4983398137323313,-0.19467729929020403
6.322746164,2.36552930207907,-1.1147357625226273,3.1616397111010985,-2.6629076681715094,0.5013012133581674,-0.18725622209899076
6.422750445,2.061227036207225,-1.23007127498861,3.2071000430420784,-2.8673738192615366,0.48064610814073383,-0.1853489323290606
6.522742326,1.7644600809332502,-1.3072988105754193,3.1691878413556442,-3.084974916908147,0.4178619893728316,-0.18398265830928345
6.622744009,1.4442414059160225,-1.2936022132940734,3.1729037234081563,-3.2898613032899804,0.4026113163742598,-0.175243283138724
6.722751004,1.1316504433156502,-1.2258087585621473,3.109237839488814,-3.518381000925039,0.36994402467945653,-0.1854506433611521
6.822748284,0.8729686318130544,-1.092591973630516,3.02815101769118,-3.7755361678934753,0.3486981852783188,-0.19358531753688787
6.922742795,0.6317438086420626,-0.9261380700434171,2.9714040862872153,-3.976436685860863,0.3885569254353527,-0.18911017219324872
7.022744459,0.46036719080665883,-0.6732238484986998,3.0185600079941177,-4.172837011783749,0.4602197954184173,-0.15723777650554097
7.122743281,0.3212233686163461,-0.40093368917713124,3.168332900858275,-4.321418056097617,0.525896439183784,-0.06708575699725718
7.222747565,0.2011771685132766,-0.09005010091395241,3.3751044143448694,-4.366729433525647,0.5227516133079344,0.027103180719953966
7.322742334,0.06696558724150507,0.23220014646170634,3.5086209291081736,-4.315337233669868,0.4657845557205117,0.09571583550825846
7.422750038,-0.09520048113042888,0.5730655560068125,3.5384802214243916,-4.235771390955063,0.36462543939018555,0.13559985982154596
7.52274576,-0.2684263577938501,0.8630386410455706,3.540811197575156,-4.071325734416808,0.3056401481890672,0.17524567824117152
7.62275131,-0.5265364629493987,1.1080184741926837,3.4756382799351826,-3.856252135942938,0.2820043677004518,0.19757333897790744
7.72275189,-0.7827967546161853,1.3140982304228659,3.3763383799516307,-3.605201193365048,0.28555413646710265,0.20224793163080057
7.822746675,-1.0746227317409835,1.4325394364771933,3.2614786068147277,-3.3681521884470174,0.3400013285979067,0.19989600622633377
7.922746852,-1.4117882409864009,1.5076555100636175,3.2194865779716286,-3.1513444767323637,0.4147673525764021,0.1960607593394646
8.022743724,-1.7244937996226775,1.49379056023474,3.26255869074764,-2.9503829199667946,0.43950485401223205,0.2030346790889231
8.122752081,-2.031643355785135,1.3929281074755753,3.16529955622911,-2.7415814814175916,0.14302455140711498,0.22699453864645816
8.222750943,-2.3049494531379033,1.2787023540577396,2.9296843798669934,-2.462278367990523,0.20488605276515906,0.26517273813544867
8.322747555,-2.5226977554253347,1.05756148171323,2.958310751592154,-2.1997510328468968,0.5229022682906463,0.20584667941677207
8.422748336,-2.6767620720144003,0.7987262021736297,3.1449636267770793,-2.0329168203837,0.5400890216549763,0.1805802953736928
8.522740202,-2.779709214429445,0.5075628655185436,3.265202641355971,-1.8485001335023392,0.46621482430485167,0.18857932473218025
8.622742555,-2.841857410728678,0.1918881404566232,3.283743093942648,-1.6409677219763599,0.38906000330940155,0.19811943816211236
8.722743663,-2.830893756286273,-0.14382195576025647,3.2417472666015357,-1.405053464835429,0.3199437691117665,0.20581469791354004
8.822747694,-2.7693229500959635,-0.44341345311740593,3.1525251829800687,-1.1510917377539642,0.2914990933481364,0.20528385397198617
8.922741021,-2.6269682852471927,-0.7441250748267372,3.0681721959209067,-0.9233079887635152,0.2922297837132196,0.20598051641093773
9.022757839,-2.4385542760477987,-0.9687896798206806,3.0038460781507927,-0.728928362020033,0.30812357520393246,0.21066880443745403
9.122746813,-2.1953890866309598,-1.1342065506951877,2.982777576119078,-0.5002877717454198,0.36200755852195227,0.22874053324568971
9.222793156,-1.8864536483106458,-1.2772482825080673,2.9762336459498457,-0.25203737361748424,0.4123573860831307,0.2371432669093661
9.322746663,-1.6103917043734446,-1.3237253451955093,3.020319441339195,-0.027599923347168192,0.43678356552655423,0.22843486412889222
9.422745534,-1.2984697345930742,-1.2812501120747504,3.080092353238357,0.21788777552552913,0.4541836198979699,0.23291468559851122
9.522745383,-1.0132058877726993,-1.199121113430392,3.0980794070935342,0.4365588485176848,0.4731066712190124,0.2275429180976111
9.622797899,-0.7295504596436854,-1.0338325242081001,3.1590502326365586,0.6553294547139166,0.46139905670616377,0.2212419557919701
9.722747169,-0.5083830037665288,-0.8337167994890803,3.2275790039014414,0.898591434928245,0.49294107826731887,0.19531580983928148
9.822741557,-0.3202457358776783,-0.5522135303172134,3.3415560927190935,1.0852813152155614,0.5369865876213188,0.13044943230001743
9.922752505,-0.15346001315661065,-0.26046783697109205,3.476877164435417,1.1500958557949301,0.541508856936422,0.026795197655644514
10.022751926,-0.0034355985034809737,0.0660373537803745,3.6480302075414035,1.1193858250588364,0.5127002512452831,-0.0449188788878995
10.122749696,0.16205193582291877,0.400654015963556,3.726604758608047,1.0152341048144111,0.46229274842695117,-0.10076073109136104
10.222751638,0.37496090978482094,0.6968466684563086,3.7267216596862522,0.8442097684834821,0.380032634102528,-0.1257234135841299
10.322792065,0.6334344845793926,0.9662394707503301,3.630149290521345,0.656052757509433,0.3434667003544135,-0.13175703886649937
10.422786363,0.9018812085245134,1.1723922292041113,3.539698373349765,0.45669648271522884,0.344863658077855,-0.13732046869726813
10.522746128,1.2365283367898838,1.3156717299446659,3.427637794846986,0.2633711662143975,0.3151282038001627,-0.13678239719289811
10.622755142,1.5458470068076797,1.3689214308039606,3.3024512609802823,0.0720400208488301,0.3123305209987446,-0.14103322325483314
10.722752776,1.88992098692345,1.4074930144217341,3.20161059727767,-0.14669059785681715,0.3082054399612623,-0.15726621528203558
10.822767295,2.198974345393963,1.3305965765673555,3.0850183564857114,-0.3557678262619075,0.28601687933989894,-0.1725684122757299
10.92275248,2.4842464427494746,1.204140736646817,3.021729615271579,-0.5651603733835178,0.3160460541809959,-0.18247137864226134
11.022822587,2.694097252798428,1.0231615300778358,2.9472712162507575,-0.7808099431377259,0.35858707125773404,-0.1973482905582216
11.122817908,2.897161867129213,0.7665202879887234,2.9288885807979734,-1.018627672569072,0.402243160231399,-0.2092739393699117
11.222746251,3.0087319097061873,0.5371440301415268,2.931073847314093,-1.25420740094292,0.4512448685780001,-0.21303601774767575
11.322745485,3.0617309924854537,0.24185013612018333,2.9768980272022274,-1.4756674866340387,0.5085559039808651,-0.21806099019209424
11.422754009,3.0861457150571057,-0.06068101001145112,3.039649999388492,-1.720416055275374,0.5096725981755973,-0.2133186164912059
11.522747269,3.0213814499435805,-0.36540969192268574,3.051061852834978,-1.945031388913649,0.5143423626456292,-0.210499524288274
11.622753031,2.875671610180189,-0.6450639409296235,3.121867285207333,-2.1728994954065266,0.5278316043093049,-0.20604141613200247
11.72274929,2.675841494894123,-0.8728919287739834,3.1127896963775927,-2.4134240129631728,0.5055711829623546,-0.19980429671493397
11.822746205,2.414525800232766,-1.0536401196743514,3.1652150016155387,-2.660713615712531,0.49597316421419124,-0.1837816694183031
11.922754643,2.1307654544317347,-1.1811622965026753,3.1918881586942986,-2.8567641817159064,0.49935645942028095,-0.18366233871294058
12.022812865,1.8037956336921916,-1.2577674171448268,3.194763230056784,-3.054046290179188,0.43825485864021235,-0.18535073101341273
12.122749702,1.4957689852357692,-1.2560389390788531,3.1775882826061546,-3.2710034151497855,0.38016907562319135,-0.19050976981312287
12.222745843,1.1899254048255448,-1.1946054428960837,3.097438184831758,-3.5116181576856733,0.3645682987510974,-0.185528802658734
12.322752383,0.9116819557001803,-1.070096790876919,3.036497088807793,-3.7568857834765153,0.35864799461157204,-0.1911371449667444
12.422792521,0.6779866114825455,-0.8724021838208156,2.9566955222834994,-3.9705797904841553,0.35579267722075575,-0.19702317342802317
12.522746381,0.5032658884746012,-0.6594720178755629,2.9587379106383622,-4.198415666047235,0.43343469319535166,-0.1798591173456761
12.622746905,0.382773831713685,-0.37764362534810236,3.123496893215429,-4.356117752512933,0.558830170552766,-0.058380140882617226
12.72274442,0.262554073597004,-0.07505865150186591,3.3759780811050546,-4.367633701916188,0.5377259545134498,0.034458184916193825
12.822751863,0.11461809717923709,0.2271504305556708,3.5030231236631977,-4.313877328091249,0.45642162219857424,0.0903781003827293
12.922760563,-0.042028547913415065,0.5498198144895999,3.5221403040865518,-4.2435016041532725,0.3766110157651419,0.13721741833700957
13.022753945,-0.23707969028669,0.8784216900836789,3.473913907540561,-4.074630444716647,0.3160811070780277,0.16992537418829964
13.12274876,-0.45317408553851696,1.137917423596338,3.492583599113359,-3.8712066587526968,0.28590173101825456,0.2034685066171029
13.222748855,-0.7218742477192394,1.3231286790963912,3.403762655507823,-3.6163717745235924,0.3001938337883298,0.21041958517094345
13.322744382,-1.030539939617529,1.4790823632614465,3.2976148926454174,-3.3710959888009318,0.3330565450424275,0.20349785163685175
13.422751323,-1.3676001033690575,1.5363628428923664,3.2278777793076903,-3.137512228248283,0.3949136213727561,0.20064641069594422
13.522747577,-1.6801204430458365,1.5214171980584181,3.236575617785462,-2.9327665212441576,0.4568971396931817,0.19909909392202121
13.622751798,-1.9805829068020906,1.4339584452615393,3.2566283656154984,-2.7391265562477636,0.45580586363616094,0.2020410951027346
13.72281058,-2.258142159944473,1.2692398957645679,3.290892388153604,-2.5328649512441666,0.44604892422879283,0.20305839553313915
13.822746588,-2.5253634308941257,1.070661233659268,3.3109937815490205,-2.2973448434562553,0.44514950248786955,0.2112069901487004
13.922750979,-2.738369430105717,0.7933576241964354,3.3659300660511673,-2.069593687046072,0.4141336145596398,0.2056436211117197
14.022749667,-2.8813344414094124,0.5018609184284802,3.320696570587775,-1.8414000490858546,0.384329717663224,0.2095101688881836
14.122750263,-2.9328899218546995,0.14913882596768954,3.2426459679987376,-1.6348539176550707,0.3677224076526359,0.2008426818316542
14.222748855,-2.943250202893393,-0.1485283947891945,3.2408251941131003,-1.4236920823621826,0.3392072732697392,0.19832573489363284
14.322745107,-2.8574003918536164,-0.4475664100089574,3.161201097386195,-1.1806297543266344,0.32495231932753477,0.20378045489665536
14.422745506,-2.736852945216509,-0.7421268256444458,3.0767933914353,-0.9396805042544168,0.30663331035557645,0.21253893403630483
14.522752901,-2.531689652058622,-0.9618229949983741,3.021875557384046,-0.7149493383713277,0.32532254627218593,0.22325276844126735
14.622750249,-2.284431059838735,-1.154368560218444,2.9732326195956933,-0.49395886017235674,0.36788855270927195,0.23120943802039512
14.722743628,-2.0143137961611135,-1.2613984231633255,3.0094580578838506,-0.26822382578656306,0.4306867695015535,0.23473469228737914
14.822755847,-1.7154265019828272,-1.3262945032332725,3.0754051704082883,-0.03763230953439152,0.4489095726589212,0.23823916546582324
14.922750464,-1.4114391383283642,-1.305269804011394,3.1241745244144976,0.19882221270023298,0.46146068333038454,0.23677931758927312
15.022749146,-1.1034170859264014,-1.2128891846760272,3.1637252764208337,0.4387845078965509,0.46719346850686105,0.22638654806566863
15.122744991,-0.8396644760815666,-1.0554899538532772,3.1889855195514256,0.6547412772833822,0.47469173757735705,0.21907792869684103
15.222744539,-0.5904835306554257,-0.831054202198914,3.2702567383544574,0.8736511885961552,0.4836128785325609,0.1937994712819577
15.322747308,-0.40159702813094916,-0.5731739039105191,3.3549567432793963,1.056936075828934,0.5008599900165928,0.15279474243299526
