time (sec),x position (m),y position (m),forward velocity (m/s),"heading angle (rad), from x-axis, positive is CCW",throttle (unitless; -1 to 1),steering angle (unitless; -1 to 1)
0.136862124,0.1722031033344905,0.22467591892947722,0.022216113495204883,1.5302289513025373,0.17091960052429156,-0.04851239714054589
0.236916019,0.1644029114327622,0.205883848732597,-0.0018876468033911273,1.5262676191614635,0.75,-0.12881674955887212
0.33685961600000003,0.16304465056906145,0.21694528509112507,-0.009833688344827021,1.5259371260552965,0.75,-0.1808276162086987
0.436863846,0.16551406790608414,0.24294166117742222,0.5913451230064631,1.5327217296557363,0.75,-0.2437610828642162
0.536862893,0.1883264802643115,0.32759951506505,1.4094374062415809,1.410273954222148,0.75,-0.31708594919461464
0.6368569930000001,0.23113800257466474,0.5057390269200045,2.0742428850731143,1.145959101066334,0.75,-0.34272640582380776
0.736858136,0.3953349525594287,0.7111061155828661,2.6058050300551296,0.8804581952177487,0.75,-0.3126525308301973
0.8368573380000001,0.5731396630744464,0.9197064919585543,2.8734331093141763,0.6134555685394385,0.6438922712756983,-0.2735325007529191
0.9368602410000001,0.8358481108711194,1.0384048728166506,2.982802670255505,0.3721257939268536,0.5031595201674726,-0.24042883611792903
1.036862757,1.1160419843556064,1.1300229786065819,2.9969943539001864,0.125323940635548,0.4336929188987711,-0.22324187587339403
1.136861927,1.424230334424445,1.1144249819170273,2.952073291384085,-0.08870866068518554,0.394335872467328,-0.22162672530751343
1.236860748,1.715011666764579,1.090633713575418,2.91557513903194,-0.316527546786354,0.3600595117444725,-0.22834083076834136
1.336859991,1.9748460646929755,0.9629164176616839,2.8913277657531795,-0.5975663821757252,0.3772325760160514,-0.23929652333270793
1.43690697,2.197151974361883,0.7884312296209122,2.859872998460693,-0.8396938345903494,0.440753386122465,-0.24405138435418922
1.536893936,2.3529307090665244,0.540285014840498,2.866520378854957,-1.0783825944830043,0.47129788626945734,-0.24727209573962353
1.63686724,2.476447830992768,0.2681802668805771,2.9229449493461694,-1.3050404234299677,0.5102980857168962,-0.23828288193863925
1.736858317,2.5296802643925163,-0.037800616270855195,3.0100055429894557,-1.5299962473646556,0.5362060781360944,-0.2417652344093517
1.8368602850000002,2.4984785088690016,-0.3110267441461213,3.051650840994531,-1.7994430526448735,0.5120881212030902,-0.23522409795954824
1.936858903,2.4066598965770662,-0.6221672108785176,3.106173738046638,-1.9982628920530898,0.49418300852375135,-0.23066144528514404
2.036857556,2.2635935806644496,-0.8703357327978481,3.1324309456087214,-2.240194679184853,0.514403019695562,-0.2264780791503843
2.136858664,2.0456560099248655,-1.1073488016473378,3.148441160959651,-2.4632633539815503,0.472092399480624,-0.2188785044010849
2.23685781,1.7990031572399523,-1.3035842548170162,3.1360702602146584,-2.677825065375686,0.438621549143035,-0.22174293980643064
2.336858722,1.526653647822476,-1.4202083881858456,3.070950369938743,-2.906781231994941,0.42777476036592804,-0.21791723020306838
2.436903899,1.2032479511511476,-1.459966915486931,3.0419370168963225,-3.1272016999306134,0.38914636146943854,-0.2192104137806558
2.536911059,0.9138339358570166,-1.425544595347338,2.993238163736556,-3.361800839243052,0.37829963173955244,-0.21792098078694286
2.636906142,0.6231297879816107,-1.3476514884190447,2.9392803743726175,-3.5854262297049067,0.3967115078718964,-0.23068633569238947
2.7368742040000003,0.35433519004233044,-1.180720818982768,2.906144705368701,-3.8315347770018047,0.4033895801907633,-0.23460328549530998
2.8368652990000003,0.16959291058946743,-0.9727960393331381,2.914929615544981,-4.047665725248721,0.5063487914942435,-0.20771879509608351
2.936866004,0.01928857554367725,-0.7328536849822619,3.0570666057297196,-4.240647578776551,0.6242331889177488,-0.11438347113078647
3.036866219,-0.12295304591412687,-0.44905970201439327,3.358817430006074,-4.31136325906895,0.6102755692801303,-0.01807647184010808
3.136857575,-0.2686088673384081,-0.11997087378574284,3.524514691515705,-4.29689157315456,0.5017648137702688,0.05434686228022359
3.236859257,-0.4410623816316524,0.20624290195408848,3.6110852254841257,-4.216495886676907,0.4205356379581639,0.10117320354062245
3.336858039,-0.6438257373473236,0.5200947660008648,3.6130220383184826,-4.088482419663062,0.3102764859636256,0.1346279418759856
3.43687714,-0.8579153061879259,0.7637344608659468,3.550805581535803,-3.9032863444789916,0.2538422528984703,0.16217280285654279
3.536860726,-1.1340583962562631,1.0065730271254656,3.447102010946226,-3.678796886439188,0.2539855267380925,0.17932105221679465
3.636858573,-1.4310976832996847,1.1597088746339654,3.302616607827054,-3.441276238536927,0.23208406830341652,0.18484989876346267
3.736858574,-1.7649519456486356,1.2198996200914745,3.1925248564127324,-3.214932036117537,0.2862521194805775,0.1874421486607553
3.836863271,-2.055660153123366,1.2365774959327005,3.162253789893954,-2.9512806054846865,0.35019362903939794,0.1940020247190122
3.936863432,-2.3588479566866862,1.167896247695347,3.0396855900985296,-2.7291138104702055,0.3751900778130356,0.19853504896024385
4.036857654,-2.652794490722649,1.0048425724022294,3.0634626885385434,-2.5106818344214656,0.41944441141085853,0.20248305812590275
4.13692865,-2.889831639037519,0.8136673894548555,3.0911514957107666,-2.28233101117949,0.4493924045066929,0.20972073875623443
4.236900561,-3.0349663672297886,0.5460496466275997,3.1493531984023866,-2.039051208281132,0.4630737152196149,0.20908664893202078
4.336864502,-3.160498478590277,0.2419172196315581,3.175255316291703,-1.82661869340231,0.44611310270203564,0.20438837271603283
4.436857544,-3.224078241022952,-0.04503715986916221,3.2133117970121825,-1.6066529462423784,0.42732833255674896,0.20338404197080479
4.5369151930000005,-3.1945492027525413,-0.36941357084005744,3.195814284509262,-1.3620474545513697,0.3884275621382946,0.2077895214951627
4.636856996,-3.136727174465857,-0.6682368326036582,3.1862184013099863,-1.1115859542966569,0.3686305901109217,0.20719211887527045
4.736862089,-2.9623710198449236,-0.9603179201056928,3.1494657950937257,-0.8784235978618138,0.39224849980363957,0.20367999693077193
4.836894048,-2.743207970210042,-1.1660481197002184,3.0794336523510912,-0.6366449096042464,0.4388329590886327,0.20248617223766868
4.936860421,-2.4935258794734967,-1.3506233378309422,3.1202717803010622,-0.4312734730532239,0.44007894476483655,0.205844259638956
5.036859994,-2.2074765786287838,-1.4465152665488767,3.1742424890666263,-0.19766561583283496,0.46123055043994265,0.21000330802955314
5.136908268,-1.8642873890042466,-1.502854440816781,3.2116197843200585,0.0350637676386426,0.4930468868989476,0.20704655495581112
5.236917001,-1.5298497273824834,-1.4629833593445352,3.2600740460210127,0.27225834662866727,0.47682834931700385,0.20271994868259086
5.336882798,-1.238132224335947,-1.3517609708571252,3.3064061054735006,0.48808403355039426,0.47025613895907403,0.1915996265638695
5.43691839,-0.9732599167328373,-1.177045785285472,3.3190154548372393,0.7138385302555963,0.4834835195033771,0.19487298088736804
5.536859787,-0.7393386876841631,-0.9293104705787895,3.3504918983249037,0.9499586660024235,0.4706387813740692,0.1766128950052895
5.636864757,-0.5344961837682173,-0.6719241401559427,3.387585242176472,1.1309233669641092,0.5096846280058124,0.12677554969985977
5.736865406,-0.39349394101447366,-0.33068309061612833,3.53474345378773,1.2191243421210105,0.5893664729155507,0.009380827691111263
5.836861554,-0.25583885876175716,-0.006446986406109986,3.7277254382443314,1.188890019014934,0.541274727139247,-0.0710456725208031
5.936860435,-0.09932848872052265,0.33462876687432536,3.7950070214256684,1.0970139850267344,0.4619026395830076,-0.11444497466766636
6.03688457,0.07451816451343049,0.6779574477530254,3.8032237852587594,0.9300742563898006,0.39662684325973147,-0.13626851318622457
6.136858472,0.2957499796197186,0.9562125448266954,3.7283782441553677,0.7862431850920814,0.35486686380342125,-0.15163770035986845
6.236858996,0.592773591510939,1.2055520906515411,3.617785541670207,0.5719510199090402,0.32307274912953066,-0.15685963320944857
6.3368574760000005,0.881784038110835,1.3904226891578375,3.501293198012493,0.3735825933541666,0.3250343458153035,-0.15988976022973325
6.436859607,1.2148787617797459,1.4992261363098676,3.3865496480296127,0.1852463007935821,0.3005996442465742,-0.16659579555559215
6.53685924,1.5402103197160921,1.5236922977120788,3.2593980737400576,-0.026707369396161643,0.293740163681692,-0.17940068010502816
6.636883757,1.8640870118419803,1.5032930867711412,3.1417676729233612,-0.25364734753376317,0.3234171838429835,-0.19163690907311448
6.736897928,2.141966559318951,1.4099817020324015,3.0626659177891153,-0.45194923095812867,0.33220809290217007,-0.2019787905945565
6.83685552,2.4148490407454695,1.2354887602795643,3.012694670644701,-0.6902184734394284,0.38981108545930215,-0.2143490212425684
6.936856974,2.623969257777243,1.035968880860559,3.024729937287146,-0.9075416647955438,0.4633164819186886,-0.23151235554434044
7.036909844,2.8041849778857184,0.7900044336892731,3.019147534394132,-1.1586361569062955,0.5168644605298524,-0.23521968794090994
7.136899053,2.8902590966629544,0.4803273575769733,3.1270885851363888,-1.3672593494287089,0.5379790676479856,-0.2342167463682019
7.236855563,2.9084137226151046,0.1664751028956749,3.203373660482826,-1.615349270403049,0.5631214388580358,-0.22650254458552538
7.336854735,2.8958643651877516,-0.15107341682804393,3.2550345984706914,-1.8318759693661704,0.5419208424866213,-0.22083873322316297
7.436858522,2.783850068351957,-0.4429824099862215,3.2961132556671715,-2.0513853101502426,0.529862185554678,-0.21466904323740257
7.536856437,2.6069514510229355,-0.7334625557953397,3.340248117611714,-2.2814988021318494,0.5278340568460969,-0.21204288694589818
7.636951255,2.385494939883906,-0.9926283388680194,3.3386289733459673,-2.493439511657403,0.4773760671628082,-0.21057470005920165
7.736858707,2.115246818169125,-1.1660420937199452,3.3290809640358017,-2.7051124772118738,0.43379320083318174,-0.20590805457666567
7.836867343,1.8006958748958737,-1.2986918447673506,3.2501962150705817,-2.9064357820304934,0.3985093062591417,-0.21051973577064875
7.936863131,1.4784207551300277,-1.3333415475265682,3.1675301429242064,-3.1493166438067055,0.37996152148226464,-0.21174060957027646
8.036860394,1.1714543257642906,-1.3220088976733066,3.078429601314521,-3.3615580409891987,0.3451073882447644,-0.21314242585962972
8.136861125,0.8875604765895682,-1.2223830723634361,3.0287623319839776,-3.5992634775566104,0.35308551373716285,-0.21618499923298737
8.236859919,0.6240199071029525,-1.066021677307119,2.9369040917114875,-3.8247231507822117,0.37395710864520754,-0.22481198931122737
8.336859857,0.4275775205000147,-0.871840464422526,2.996917454838824,-4.0575069694471715,0.4850096924114649,-0.1843114190630299
8.436908504,0.2427893690232781,-0.6263722963623446,3.1778528528770904,-4.195426198502946,0.5641077456866253,-0.12009243115862782
8.536864919,0.08398402820013352,-0.33515683389257095,3.4107133843014195,-4.269676771039705,0.5990539710431718,-0.020568444574093726
8.636860062,-0.07218540289584015,-0.004163855597795639,3.5758175401584884,-4.247936439147024,0.4989664846076268,0.04781935651876595
8.736860056,-0.2701528363571035,0.2825725716763573,3.658288627084556,-4.164511038416554,0.4124702297334723,0.08917913855586058
8.836917589,-0.48088126058721287,0.6006712717441067,3.6802589562627683,-4.034631339369229,0.32752133360969404,0.12997671817642262
8.936906733,-0.7182829500302247,0.8643565698108526,3.566169556704895,-3.864862513843585,0.2659807222992295,0.15834342309179866
9.036858411,-0.9927460840366842,1.067812766489648,3.4647130298936464,-3.63318739460343,0.24636461015387928,0.17380214277342043
9.136862592,-1.3145567104190257,1.221395285474317,3.355931713940059,-3.399855063852043,0.2690036026773576,0.1752934474850699
9.236860878,-1.613949863172048,1.2999444808788683,3.2445455344630596,-3.169150035626298,0.2997710957695188,0.17660690870707693
9.336899189,-1.95985664648147,1.2871888992792504,3.192272733200503,-2.929562429713141,0.342860516647396,0.18507862759047522
9.436863844,-2.2579255164353778,1.2067284983652757,3.132214146544989,-2.6910494519000885,0.4044091542307115,0.19063924127001333
9.536856649,-2.544361180498979,1.0091966458880175,3.1249891336904705,-2.479362689653408,0.42116700135898527,0.18972495921486426
9.636868673,-2.757917822338942,0.829271343957481,3.1352445554097677,-2.26994352040018,0.44446027051917214,0.19277795814096088
9.736864654,-2.932361781072861,0.5726637782885307,3.234289915188035,-2.031040228844168,0.47355962553037373,0.1982233834645936
9.836861651,-3.0477862316524647,0.24964183541105575,3.2501738491044425,-1.8389518304094066,0.4327706808961807,0.1950095908464514
9.936857976,-3.092219560787667,-0.05973498019462981,3.2435923074038953,-1.5931497635427816,0.41510639274205685,0.2003580410430776
10.036864862,-3.1033038141339317,-0.3661115254181714,3.215253074083738,-1.3473702382625496,0.3987925779606132,0.1957249873726955
10.136864812,-3.018324493783454,-0.6803848389005716,3.197161240547509,-1.1503109862863787,0.360553322841863,0.19306027484951907
10.236900405,-2.850604102676133,-0.9412046637612672,3.146663736748919,-0.92123330750055,0.3670938718060456,0.20169251723424325
10.336857386,-2.6391918109954253,-1.2023112254699715,3.1530731479311114,-0.6789389420805766,0.3984197002499031,0.21173505747144777
10.436861881,-2.381389553921494,-1.3792373581650699,3.1258196066416555,-0.44005443036469205,0.4087596123264375,0.21565116633845538
10.536854712,-2.094825979107019,-1.4887531205786226,3.1155689243231097,-0.2025189051417559,0.4347856572640699,0.21710033392149303
10.636863748,-1.7747877068883158,-1.5236940629311846,3.1644831346020106,0.03479371501073088,0.4966491764871101,0.2099512113313906
10.736857238,-1.4357694125994573,-1.501231485295063,3.2147407950653197,0.23827313433793093,0.4775966828992735,0.20261011474107396
10.836861476,-1.1348314357867346,-1.3846986019738245,3.2859730918653507,0.46779394164933435,0.4809964037759819,0.20628205624049123
10.936859678,-0.8647247095002197,-1.2048114776518326,3.306622736377614,0.7063737397179927,0.4982057126339055,0.20071737929921887
11.036856637,-0.6392700692647805,-1.000487841441462,3.344162146630595,0.9364129874449737,0.4852111995153354,0.17671312239716142
11.136858893,-0.4533588598459966,-0.7040907894680473,3.4171807646550785,1.1301136922517234,0.522060016402869,0.1263389140840564
11.236917098,-0.3155122373152278,-0.393341305997864,3.566402746767138,1.213145516500449,0.598031149582781,0.014149618407401303
11.33686024,-0.16625575086792746,-0.056348505981126736,3.7193105420241235,1.1853758396728136,0.531474862015183,-0.0663931095998288
11.43685758,-0.01571085111556775,0.29077004767247966,3.7945422658969887,1.0763978306525954,0.44801306172860156,-0.10735676053577003
11.536861206,0.1662389012535201,0.6184412695087992,3.8247638926034804,0.9364242866370928,0.4196512683585791,-0.13634653601968633
11.636864001,0.4042305218416795,0.923989623463105,3.7434698149056818,0.7792073494109873,0.33808325306571146,-0.14681594221047573
11.736863218,0.6945751849701022,1.1788667483136017,3.6085862959685366,0.5770969345730722,0.3212050303108081,-0.149169923271041
11.836860057,0.9679291399843969,1.352638375478044,3.5249420372832465,0.3718648091594053,0.3090796138783315,-0.1612451483470472
11.936863668,1.3042989907462204,1.4752838609667303,3.3780089788733303,0.17559704885700472,0.2789502579665845,-0.16968851863831722
12.036928578,1.6545436243713205,1.5056872993600583,3.2493976411165892,-0.051492054008679136,0.2875081557437393,-0.18118067194228066
12.136864371,1.9476882185032995,1.4619869774948815,3.1249045735201073,-0.2397177650460008,0.30312715869991563,-0.1937400256899571
12.236897083,2.2405232129708894,1.3799184859358529,3.0265257174421696,-0.45994443378137645,0.32294173541628673,-0.20944741470249947
12.33685915,2.5039494427574627,1.2214166471108325,3.0142713488064987,-0.6971322720810704,0.3863352727227542,-0.22673503856620295
12.436859902,2.7041680967291764,1.0108053392539267,2.9682740458263033,-0.9258749927894654,0.4581119199140082,-0.2336401055519626
12.536859124,2.847329268586171,0.7483069868261494,3.0212079519699495,-1.1310395941522446,0.5157151391071834,-0.2314947560476796
12.636868639,2.9608507755513145,0.4587129437464626,3.1258678875128574,-1.3851574161374427,0.5537756095456192,-0.2314292038645911
12.736886646,2.9781334941996764,0.14616310834751067,3.186354618627623,-1.580774018539889,0.5706703874299683,-0.2292381079339866
12.836906919,2.9464432894560355,-0.16894237111034616,3.2659040321623207,-1.8556445254007967,0.5402452784852301,-0.22432955415853137
12.936927003000001,2.842666655235966,-0.4762307072295451,3.28280172068265,-2.037655017963759,0.5266423416049226,-0.21970425039827773
13.03685987,2.6910251921779347,-0.7451289606811844,3.29930725668266,-2.2849683572923527,0.5186926541672747,-0.21654312362985442
13.136895696,2.433947681561773,-0.9992957821003969,3.313078005396667,-2.5265218616723897,0.484172678344231,-0.2091611856013969
13.236918978,2.172993884896908,-1.177726345268538,3.2674815387595024,-2.7162896750698518,0.4656449022097555,-0.19871979097094025
13.336861556,1.8712333651218809,-1.276913450978199,3.257008613939493,-2.902779254675408,0.4435942807491429,-0.2074034912161933
13.436865704,1.5383479519599235,-1.357726173162399,3.1861619977989366,-3.11848419525774,0.37730405095359065,-0.20959519177581082
13.536857552,1.2232035964455243,-1.3434516358131685,3.1222362700965824,-3.3553569757020316,0.3485325941802382,-0.21441464668062948
13.636859125,0.9241903622420532,-1.2625357012415053,3.0425773565711176,-3.597373387002072,0.360243433248255,-0.22006448663986938
13.736922832,0.6802252320055098,-1.086422855896503,2.95104863924323,-3.83682054183979,0.3668453786471277,-0.22455042925072652
13.83686021,0.4597175975929215,-0.9013055418752708,3.0025278318910433,-4.05079294323441,0.48167201825684086,-0.18833940249559175
13.93685683,0.28604964033378055,-0.633332688664131,3.190941453580531,-4.194052780119323,0.5621557266696932,-0.114515230919572
14.036861084,0.1252424384819624,-0.335571031888317,3.4270378234785914,-4.275869672629117,0.5918991699008088,-0.014312684757687936
14.136864267,-0.024704015010194265,-0.025657591925937015,3.6157801254043127,-4.232235156225422,0.49596125937286367,0.05390056298185988
14.236909843,-0.20066580653200689,0.29500539811850346,3.6607084100501694,-4.1678820462320365,0.40443683774526595,0.09146754177423443
14.336928921,-0.40588287776860077,0.5934396673982203,3.6663868738733068,-4.0456257250222665,0.3401719741327608,0.1300407165075454
14.436902751,-0.6864688860113612,0.8328108212705969,3.59409681715698,-3.857271049232721,0.26997216260582524,0.1571343757544264
14.536861583,-0.9460097784980167,1.0891755393031666,3.5013375490801613,-3.6191737040111103,0.2446724783485998,0.17661721954734344
14.636911809,-1.2375701142872073,1.205536791541705,3.3557058374694724,-3.397696144624084,0.2714070833818383,0.17547665390410483
14.736856921,-1.585912379512261,1.297621241220793,3.253788545528763,-3.170237509382825,0.3033507807105978,0.1735908734318505
14.836912623,-1.911601096170488,1.2822045109719038,3.160054545308304,-2.9298653195109985,0.359165270243037,0.17256737649420562
14.936894209,-2.181278697285336,1.19897313441569,3.1657781981194417,-2.7082221345943576,0.3917446072536009,0.18916467514115368
15.036911555,-2.4770345757233203,1.0533886698708232,3.154098246355075,-2.495748742400462,0.4033985018057589,0.19863781149739695
15.136911256,-2.7279981995683027,0.8473735951012568,3.118074044392504,-2.2555314978836978,0.4465968925108449,0.19558431434949033
15.236859901,-2.8912304835715297,0.560439082288898,3.2419740759212248,-2.050384614608247,0.46814707730482397,0.19668645570602092
15.336861966,-3.0244730917099942,0.28337047068592447,3.243300599973544,-1.8202775658816355,0.44025643781821333,0.19524796178461648
15.436855245,-3.077487245747793,-0.03945323596332217,3.2953934744737285,-1.6059738672737935,0.38809379149368917,0.1982945918779844
