time (sec),x position (m),y position (m),forward velocity (m/s),"heading angle (rad), from x-axis, positive is CCW",throttle (unitless; -1 to 1),steering angle (unitless; -1 to 1)
0.138305378,0.34137718633923475,-0.3879305392335312,0.20517276532285947,2.227671601198928,0.65,0.43147718993099027
0.23830863600000002,0.3195205821795883,-0.36280411496563697,0.6656439924065387,2.202051795341939,0.65,-0.1845380308687912
0.338308317,0.25898865900945306,-0.273058553805141,1.183107033147128,2.147199912156073,0.65,-0.15579353422114572
0.43831653200000004,0.20858158290067313,-0.15779739348877675,1.697044650936569,2.0844908568975713,0.65,-0.09173637840084008
0.538392387,0.09294368909797487,0.03424344630576433,2.277430540468745,2.036291845955705,0.65,0.004441768925795773
0.638310123,-0.01611104153326006,0.265207850333703,2.7722718903570627,2.0810348899837967,0.65,0.07937352090036734
0.7383289420000001,-0.19711974085473005,0.5349905220753277,3.1616604657158365,2.177207608732375,0.6458215281978547,0.12053413385159778
0.838338401,-0.3738945138570916,0.7560020931676383,3.342585883778752,2.3127434151048485,0.5048918388290294,0.1539311903000132
0.93830742,-0.6335362486811176,1.0002028896655375,3.3866554787814573,2.4503180746084436,0.3904070486589725,0.17687372918553143
1.038331719,-0.8904195758569522,1.1964649369913405,3.3638887378962807,2.6665123675067908,0.33140318309033545,0.2004947773467382
1.138380093,-1.2033305149604923,1.318540537087594,3.296884524047754,2.9126060915511065,0.29170129316321214,0.21574442661057797
1.238336381,-1.5185446120656605,1.4027240703258053,3.1952150951474763,3.1417192382484003,0.2829461521506748,0.21121113223175259
1.3383085160000001,-1.8341286667841057,1.378475722860881,3.1139490255348927,3.3545027827403175,0.313167155025856,0.2068783635104837
1.438336607,-2.140205882282671,1.2893296276228696,3.0780310772385633,3.5284604548174294,0.3306462616017404,0.2208563912010639
1.538326507,-2.3970181405835556,1.1439726595080404,3.050547990859547,3.7745482314618886,0.3367178840935759,0.23263869830285466
1.6383810890000001,-2.6385172583426235,0.947954300583348,3.0296959889499164,4.033599109655326,0.37608140051153005,0.235999423212582
1.738309643,-2.7975555539358594,0.6928785782463407,3.010256017186041,4.252060714154206,0.40906582074815684,0.24007998315201043
1.838405957,-2.903705784488977,0.4315184302769643,2.9998972325981663,4.50114087213042,0.44418101907520396,0.23665527438484424
1.938307473,-2.952263188723231,0.11459819391618316,3.0677210066743728,4.724665069830776,0.47301721318367956,0.2275206879259704
2.038399965,-2.9263126210959287,-0.20490169098020677,3.0779989697518584,4.960402366382614,0.48642665519122263,0.22766846984333408
2.138310911,-2.831061199393953,-0.4696425843308261,3.1251204962442456,5.184587859300721,0.4685779251776634,0.2281469457909637
2.238310857,-2.691113454957748,-0.7649064176362312,3.1463398627235337,5.407677523590014,0.4652059117679976,0.2119095089954543
2.338404491,-2.455979289076475,-1.003539495937519,3.145509974570172,5.625779046612224,0.46025937275310896,0.21762271727758178
2.438370928,-2.1840824227835745,-1.1740094589049561,3.1727561022649806,5.838048835106323,0.4116847408845725,0.2087056822582375
2.538371499,-1.90511621893429,-1.2784707627765293,3.150672083223085,6.053340463559562,0.38654838445475265,0.21028922923750565
2.63831685,-1.6184168177324192,-1.3255010173278619,3.1212373647722593,6.280193277083691,0.37598117277001863,0.21765649634335268
2.7382996410000002,-1.3038005737995026,-1.2998097065795602,3.0645264963712187,6.5172777136748685,0.3520272280846334,0.21809709364631447
2.838311058,-0.9943214674540284,-1.2273337787218137,3.017214587433788,6.761788888806252,0.3494065624927167,0.219967218826809
2.938310078,-0.7320981848473086,-1.0682373057979586,3.0015501468888393,6.979998717860232,0.38498054192419523,0.22045836991037893
3.038314475,-0.5492708719995065,-0.8637258583121793,3.038731268804672,7.194343124321619,0.4468450722323876,0.1930253303383565
3.138395182,-0.35450526558772055,-0.636666623740362,3.1338983775633023,7.375016510141504,0.5145142009190087,0.12458891773594453
3.238312057,-0.21040334869842095,-0.3198608212843807,3.3539040660444526,7.432144692268774,0.5943135239299147,0.01023422553798847
3.338416229,-0.05079385997565799,-0.013243850150084672,3.5148534978626715,7.4173352992714445,0.5188389999178225,-0.05689001519392434
3.438305602,0.10472102150693872,0.32275170260083613,3.6390499079459957,7.368700345289904,0.4178534579829087,-0.10556211427860071
3.538308229,0.27156011837432037,0.617756637834852,3.6613855902721237,7.257809269429191,0.36098193878896007,-0.1565624597743709
3.638311227,0.502705795890779,0.9161708186359266,3.6087742401356873,7.088756252410048,0.27864104709060156,-0.19151289563393034
3.738365771,0.8020115738052509,1.1724985871101052,3.448537498655833,6.840267773147648,0.23234871257961257,-0.20430828125964606
3.83837858,1.0768052995235005,1.3263574005472973,3.3548091307268026,6.665291977972176,0.24681659632910707,-0.21635446133700334
3.938319281,1.380273637594664,1.401537560109376,3.212522953106017,6.418253991067049,0.28556277789863077,-0.2252292409946025
4.038317586,1.6894658445311626,1.423236036377952,3.146157211322644,6.1890334762618595,0.33566829311561497,-0.23398871910913202
4.13830973,2.010506192359444,1.3781948203609544,3.1168867962671016,5.96699713154892,0.3961424008025535,-0.24077835316949708
4.238314224,2.2642317645969596,1.2781671693558978,3.0975762198793855,5.758343386589006,0.4374055036192484,-0.24736571976616217
4.338308267,2.531715036153749,1.0631821394072096,3.1410532699274354,5.517746110205171,0.4436193907685947,-0.24901576491172292
4.438314106,2.7522579369154068,0.8102060775266338,3.1564234282513017,5.301738460480668,0.4675784055741387,-0.2428429181496232
4.538320294,2.872847245512409,0.5531398839314086,3.1663165689940382,5.064026807190083,0.46797506733433464,-0.2457061747238617
4.638309839,2.9733286805939936,0.23618762339723606,3.196952454415843,4.817178717513891,0.4357512535671583,-0.23551461744796984
4.738308227,2.98962132671123,-0.09296634918639154,3.2242995027577543,4.602451172053248,0.448209647151901,-0.2375361999566509
4.838308978,2.927129452372129,-0.3940617259175599,3.198554525559291,4.393645151313342,0.41434957026782593,-0.22960231072134238
4.938330671,2.8060311066756904,-0.6987405438029902,3.170198542875633,4.146543473474606,0.382365213028018,-0.239763422272928
5.038308976,2.6099470154873896,-0.9507649708485393,3.123032893656686,3.9074283091882847,0.3885792921306345,-0.2323108775973428
5.138309427,2.367439997372479,-1.1357890917933213,3.121100854402228,3.6779199079158342,0.3813900847657488,-0.23182065800945043
5.2383218750000005,2.1001159039063686,-1.2742717902324476,3.0882263720745895,3.4515474199303724,0.3703608148763717,-0.22890493432411113
5.338310848,1.798450751634158,-1.336050631344103,3.093529624981345,3.2277087402047835,0.3970945988190317,-0.23993724017107393
5.438308495,1.4515026075162643,-1.3164079437876144,3.0914962743623797,2.9837472829772143,0.41935368759409103,-0.2533181934522362
5.538308402,1.1455807463121626,-1.255066389293316,3.1112874438862965,2.7587772297438677,0.4389888116528909,-0.25700657020665857
5.638320372,0.9253530599161215,-1.1453291551366571,3.081342718155259,2.5033078250322682,0.48398228461433057,-0.25919543067678347
5.738313069,0.6818837167486035,-0.9334401285787582,3.1188702274818603,2.2550053361981104,0.5111584518981844,-0.23751088807769055
5.838307007,0.5084975608213355,-0.6705646807213923,3.182706910688081,2.006676710657197,0.5642197118474759,-0.14634377792173212
5.938327125,0.3433320079514629,-0.39069956873787537,3.3758342566652937,1.9175443444258955,0.575779017809839,-0.03870504223696286
6.038333415,0.23986492569100942,-0.04939014503790137,3.6164606264575907,1.982538172880383,0.5575769621193287,0.05387471754978787
6.138308385,0.07814733762614386,0.30979008877752456,3.7259302484214847,2.0584978805070757,0.4135934587473389,0.09087364394975622
6.238306153,-0.09963446668142364,0.6136856202700187,3.739279045582547,2.1793115883109806,0.3356250362484163,0.12489646614541497
6.338310589,-0.30516430335514516,0.9303808598792326,3.729457677527785,2.3190626065221425,0.3129021759994229,0.15885868837484327
6.43833671,-0.5862961822126641,1.1914259520975585,3.6005058398595238,2.531394889166875,0.2566417418058884,0.173734867116719
6.538308709,-0.9028902550903505,1.3496325266004103,3.451288508360851,2.7937044988165503,0.24618659313339156,0.179433777062206
6.638327083,-1.2007705554358323,1.461387455697234,3.30645735678064,3.015887838118241,0.2808129899363412,0.17701910930228157
6.738355674,-1.5605255386869301,1.507100930321024,3.199430563340506,3.2399408345977845,0.3030639524279368,0.18013870079580077
6.838307573,-1.8444199098646508,1.4680728674382582,3.121101558509989,3.407692930009103,0.3258379301931768,0.18970507402167194
6.938310401,-2.1248961522980605,1.3422506402299936,3.1004036415616283,3.622700027930871,0.3668424195327672,0.2033696633206926
7.038437062,-2.39032864711648,1.2033472693319878,3.080522605891978,3.827054198699129,0.36488786023847797,0.21971591287391826
7.138326743,-2.616831677782174,1.0036650627668402,3.065808478283902,4.083316599923788,0.3812307498847728,0.22814463777521699
7.238311029,-2.790778707847769,0.7284553400905958,3.063498555924792,4.296322738809796,0.42118513158715437,0.2266983290648588
7.338311834,-2.8829069966681917,0.4337739757142978,3.0808414596576394,4.533294981483851,0.44341496708994577,0.22665576298417664
7.438396837,-2.934883399121602,0.13864469035218896,3.079554062750548,4.761831752601545,0.45339825647699256,0.2211912614275782
7.538321606,-2.8716859777067802,-0.15677638378683878,3.100189349136874,4.996939385867709,0.47189614385106693,0.21975409331591508
7.638310644,-2.7609697066407133,-0.4682535544862294,3.147377441611286,5.211226784861046,0.47699429101333424,0.2214159398336812
7.73832726,-2.6154130169292222,-0.7347167731116708,3.166962121413214,5.433513418135187,0.44435897733412266,0.20314870862433881
7.838309226,-2.417011526922886,-0.9462596718450823,3.174029795585577,5.638099982807517,0.43054744637645326,0.2065701730700667
7.938308976,-2.123200211457577,-1.144426231041134,3.1820796854165465,5.844034136965232,0.41162036864490126,0.20858046542792172
8.038311502,-1.840902803798755,-1.27033886275435,3.163275112210481,6.085796413037883,0.36675830751723415,0.2093551339231934
8.138311647,-1.5356618360660863,-1.3110586528290613,3.1218828774904646,6.28751947628666,0.35467618451975086,0.2134199057435697
8.238412901,-1.2413631626904107,-1.2961147453306736,3.035400931640973,6.517779356190037,0.3501579833290528,0.21924433221032505
8.338312309,-0.9405465812082644,-1.1756418108256712,3.0068274504987262,6.7597439208130865,0.34493799771877537,0.21933987864271426
8.438324369,-0.690852430481138,-1.0173976719858717,2.980009192867846,6.976615094709428,0.37786230416471794,0.21996143232285484
8.538312126,-0.46950785926594946,-0.8324447151799693,2.987897307192654,7.204446389803722,0.4204062487117033,0.22730943480678073
8.638307428000001,-0.29504986964807756,-0.5853126954811352,3.116894378155703,7.393363532405222,0.5226098317011685,0.12173307672880314
8.738317146,-0.16673710929617605,-0.27610464755869546,3.2748955513933775,7.472226554573139,0.5634086285231216,0.01275342428153815
8.838308549,-0.017789752679611102,0.0014966058290970096,3.5000471349561204,7.458084501148659,0.5487143747893002,-0.06951758350161767
8.938306077,0.12245691132763296,0.3587330691508578,3.614147949489984,7.422520004335043,0.42548845887909886,-0.11671382793505444
9.038308267,0.28432506793530327,0.6630688600960633,3.6130522247205725,7.2740346170276045,0.3415556807000665,-0.16472026593887334
9.138308539,0.4951375436558842,0.9383258445860638,3.529819851427011,7.104495829666658,0.28841557380837024,-0.1969746072821273
9.238324332,0.7652472047824264,1.1731132871744425,3.4410977970519667,6.868256511389758,0.24370648512216364,-0.2060014404329118
9.338307964,1.0455724414617906,1.3199468991858547,3.2816886140274826,6.6501298567381015,0.25861003011775574,-0.2175562011041999
9.438310257,1.381751747665801,1.4387640368962258,3.227614108333876,6.414630751888828,0.30656259540759556,-0.2226197128586871
9.538309347,1.6768135531282726,1.4451546994967284,3.164852485965142,6.2189735180828185,0.3475291665457433,-0.2348565362500236
9.638306066,1.993784326398846,1.3811091550791057,3.0947877855100225,5.981559285990682,0.39822865732923324,-0.24632259671995088
9.738331545,2.265838654517927,1.2729379132046919,3.137624822744928,5.74125018683923,0.46502581367073353,-0.2552021845965501
9.838307806,2.518157371825233,1.0816196629734585,3.141559818323244,5.519016503591914,0.44757080731409554,-0.24442632150079704
9.938307634000001,2.7121356757098614,0.821614365868136,3.157649799198931,5.30551777041861,0.463997459505522,-0.24631387230938243
10.038386123,2.8524104029238377,0.5805858356746757,3.195564224805758,5.10368201771958,0.4608993583930846,-0.2471914241645566
10.138423866,2.95030384676667,0.2460513004023768,3.179480727438997,4.822896220349136,0.44248647299159427,-0.2426056103968035
10.238321483,2.976743332381742,-0.06027024259809561,3.2089395948914956,4.614176901235199,0.4329408397437943,-0.23036031030649148
10.338309721,2.8873548310497292,-0.3980866966100648,3.2280031586146403,4.407847342377612,0.4329945481836121,-0.23695011957673995
10.438316281,2.7642037367820023,-0.6809189751156968,3.2365015942488538,4.186527263540411,0.37825097118998274,-0.24097482765000855
10.538309146,2.606207851428689,-0.9491375899312496,3.1598185673465506,3.9270086778164335,0.3612694338858324,-0.24727591510596467
10.638318547,2.3695256255617765,-1.1193798981318526,3.1298619127598193,3.7100906110534253,0.38079321535358174,-0.24143605351063027
10.738416191,2.068085857429602,-1.2757751686652088,3.091566512609542,3.4493732249396882,0.35727930640697214,-0.24129113576047315
10.83839981,1.7526754511978189,-1.3490030986685733,3.1022925031156827,3.2507011083735695,0.37122364308080663,-0.24585279481484623
10.938314229,1.4791751618124473,-1.3596730302119395,3.0672973039178095,3.0482575534084058,0.4313106353951474,-0.25585635900275205
11.038310688,1.1631079260539572,-1.278599448242201,3.061588042927276,2.775666846235245,0.4573374790083805,-0.2647758123485006
11.138309097,0.9146060662093382,-1.1498329309104054,3.0951864299444303,2.5005164424964286,0.47653533592627445,-0.25063388598026504
11.238312186,0.6674735828003837,-0.9179372166405173,3.083453763555049,2.2295289425188023,0.5218804986130314,-0.22306447405185084
11.33831631,0.4814460154330942,-0.6896733482032189,3.1872867357633377,2.0109942782034524,0.578612270699438,-0.15244224859590877
11.438308612,0.3322083609018598,-0.3605289058915688,3.457327041131324,1.9523299892550534,0.5637303611376997,-0.047006673886230574
11.538310789,0.19941293758685813,-0.05194711428193285,3.6279847755940238,1.968718711315155,0.5037584570336624,0.046081449479946926
11.638343386,0.04066706920316697,0.31779512921881997,3.7346506419242242,2.073493844045897,0.41513675527988114,0.08901416956616327
11.738311325,-0.12462307147347586,0.6060101276853365,3.7198818590070606,2.1864982241048274,0.32928181041656784,0.12099700753200862
11.838307554,-0.35184583322526786,0.8943215318348017,3.703887009844235,2.358642820517651,0.27839276473585645,0.15313245478612592
11.938316753,-0.642083301178474,1.1435080527593038,3.592003020573569,2.5722141097585367,0.26894155005923065,0.1680863294146031
12.038308154,-0.9402686230701448,1.3332224603265714,3.4459857876694318,2.772975976253,0.2430883193952266,0.17156289066395494
12.138309336,-1.275978368513287,1.4488307053714902,3.3114472352907174,3.006069307963251,0.26769064008246085,0.1752832575719296
12.238311228,-1.5909431560621012,1.4708102733646664,3.239774345810383,3.1755981115982372,0.30073560149019396,0.18052431078069073
12.338371412,-1.8931003252990528,1.446951576498335,3.160335813853398,3.395362026356115,0.31072979771749554,0.1990182339571849
12.438326612000001,-2.1894059880827625,1.3386748677431382,3.099782180379608,3.622126195777109,0.32508710436104377,0.22175545997158788
12.538316751,-2.455573649068857,1.1960546878917615,3.0803583530150562,3.8556714147646693,0.3586823235777221,0.2191803077361956
12.638320028,-2.659461538603623,0.9845112045623431,3.058829662286187,4.078403926119095,0.386291923588534,0.2248595736020186
12.738309717,-2.831004541601432,0.7170196541504654,3.062251441390324,4.272268426969484,0.4105820261231916,0.22877502505858832
12.838309987,-2.9148622932433423,0.4327211591955332,3.0772877727047514,4.51047398225775,0.45096166445401165,0.2285245028450242
12.938309213,-2.9824562048963283,0.11527520197130277,3.1184683387350036,4.725465488671425,0.45944267361490176,0.22770754931764742
13.038314188,-2.933100861297916,-0.1868577991720319,3.1296132539835755,4.962290293532481,0.44930257268834045,0.22226651652601503
13.138313708,-2.8578003373646887,-0.4854578074037953,3.1748165108679363,5.1960306602913,0.4680235792774828,0.2244828539885
13.23833889,-2.693390354557967,-0.7568302533354399,3.182338053373244,5.385798147178555,0.4525102426277607,0.21669590856443582
13.33831197,-2.472173147482524,-0.9933184288102251,3.208487303437773,5.6137489567195145,0.4272348589976743,0.21354923051836008
13.438367288,-2.2141407361858945,-1.188269166342872,3.183239355503018,5.829072765716304,0.4100674625983701,0.21247173551996787
13.53831131,-1.9341063078698606,-1.2968692045398438,3.154933846617504,6.044125101548356,0.38484211668658025,0.21783279300772304
13.638308472,-1.6168370104909562,-1.3658035218326454,3.115609307118967,6.2649924728863144,0.35338495814155985,0.21828612752290558
13.738311118,-1.288107118917927,-1.3429805994571518,3.1147537902071196,6.497923828757348,0.3551280201675154,0.21969554509991301
13.838306645,-1.0127835083926515,-1.2627911655389326,3.026118260112521,6.7149532393180555,0.350210899515047,0.21949063972904342
13.938322305,-0.7436935084177874,-1.099376244904724,2.9710232532932204,6.973045554438655,0.36821889517682793,0.2250119896220654
14.038311464,-0.5256557207617915,-0.902299307601082,2.9913543667814855,7.19350164897331,0.43851637340989547,0.2194515416878656
14.138310186,-0.35273064894589995,-0.658581568556954,3.1248110111684038,7.38416136675816,0.549039857052072,0.11238170477013405
14.238310435,-0.22119194961755748,-0.34303170204543265,3.316502423548002,7.419985543232083,0.5661160427283844,0.014345225991868755
14.338316964,-0.07934449936871421,-0.05230255656633899,3.5332051422352344,7.432089963838794,0.5185144921477542,-0.05667239302266307
14.438333447,0.1019853911904802,0.2800784159720923,3.6462200677224605,7.392034831989989,0.4345926035600432,-0.11223738818881135
14.538306553,0.2709398168039162,0.5871454652015302,3.6578891367955544,7.270203332994649,0.3340394634595893,-0.15875470885536808
14.638307802,0.5089436645892649,0.8933426246880874,3.582771608728555,7.076761249124606,0.27652412555453737,-0.1831254046247881
14.738327269,0.7607675332091516,1.087428705078206,3.479568113734017,6.888416807584785,0.2510876459721479,-0.19661978689850942
14.838337294,1.046289967674505,1.2831877078302547,3.3483521761754846,6.6601721856403895,0.2414621278359349,-0.21092066885439004
14.938308834,1.3847676344116029,1.3698793945508851,3.256537580746312,6.461494239066198,0.28925666159413355,-0.2184767612844688
15.038322692,1.688486295180341,1.4046404370491445,3.1744910051539237,6.236747242688411,0.3339189687882757,-0.23999220298217191
15.138306897,1.9922675895331603,1.342309543358183,3.1375350429999305,5.999533264560084,0.3752034792830142,-0.24843931586758644
15.238307937,2.2878202531672143,1.2156209150612887,3.120112405484159,5.768814693792851,0.4241349206443505,-0.25781883791559335
15.338306556,2.5385146572548747,1.0631779747972583,3.1272746915322154,5.524022451986946,0.4525567333130963,-0.2544289989917157
15.438307756,2.736034067819646,0.8116208764327052,3.1706158677745657,5.312204667356496,0.4553294000715922,-0.24821346308645564
15.538325865000001,2.9123643829851265,0.5316624509631026,3.2195830561628527,5.099947654549975,0.4583224675860201,-0.2487103874080443
