time (sec),x position (m),y position (m),forward velocity (m/s),"heading angle (rad), from x-axis, positive is CCW",throttle (unitless; -1 to 1),steering angle (unitless; -1 to 1)
0.131991207,2.415719381629449,1.5299011451306022,-0.006531789473652264,-0.4908260673651503,0.75,-0.4699028162257382
0.231971997,2.4153783732006096,1.530567775453559,0.004628731203174442,-0.4952360196293178,0.75,-0.14137900044203652
0.331968382,2.429501132676233,1.5328752423837273,0.15460168075548072,-0.4879861008943997,0.75,-0.1822547035600732
0.43205588800000005,2.4750667079154187,1.5127398566234573,0.9766029235815339,-0.55250287994459,0.75,-0.2414412046033545
0.532015196,2.5639724335323506,1.4130888502745589,1.7992937014123636,-0.7503634195730284,0.75,-0.2995788832685879
0.632066157,2.700265769649236,1.1962471435037103,2.4098581032922444,-1.0468461237064228,0.75,-0.30100389454310855
0.731968226,2.8160671785239875,0.9490285610178498,2.853136629067931,-1.3031449259667789,0.7164935945367034,-0.26843288534794507
0.8319667860000001,2.83246064545074,0.6735652746051521,3.0232708348241752,-1.52725473497209,0.5285634981213748,-0.24930701487923854
0.931986229,2.827740296829838,0.3972366728111397,3.083957213846368,-1.7550030755994166,0.4257256670655555,-0.2413401238522352
1.032040944,2.7180880360723734,0.09795462934542103,3.139472394485333,-2.0115944221510507,0.40693757147177717,-0.23220675859203493
1.131963455,2.5930257750171046,-0.17652424922250096,3.1158628218027657,-2.240986496405421,0.3988535435794996,-0.2298115928632281
1.231981929,2.369812109163885,-0.4157260974858158,3.1401935479582517,-2.466564848328932,0.3709452871891818,-0.22750170596441005
1.33196297,2.1141135861042932,-0.5803737182818789,3.1014553394953235,-2.7138881195844644,0.3549486104821836,-0.2165484947303297
1.432052937,1.8338273942073033,-0.6684837676270698,3.087903062356422,-2.955604608092034,0.35800122063545214,-0.20827376096540517
1.531979471,1.5170868331029028,-0.6984449161855022,3.043807305623903,-3.2094420624698143,0.3392627727585487,-0.21470580296535782
1.631974832,1.2216919350224498,-0.668027399078352,3.0216755188674638,-3.4328293661416747,0.31275454750195936,-0.20047277739295083
1.731980347,0.9405750609574259,-0.5538482342059805,2.9817831967560524,-3.6437172981677524,0.31539193323379877,-0.20374686010005558
1.831976161,0.712137881986573,-0.37239417109316836,2.9491583831268047,-3.8602672570670604,0.29397571599583694,-0.2161951483548542
1.93196395,0.5045964309009795,-0.18794703576093647,2.942744297247588,-4.087115038814924,0.3350484298934802,-0.17936316460886675
2.031995173,0.35217645135066106,0.09885512290879864,3.0526185034497835,-4.23750949227576,0.3785469152985524,-0.10971182784419263
2.131971194,0.20698657894924555,0.3753779294325218,3.1992708764637765,-4.278053418809346,0.3921167984931103,0.005855633571819794
2.231969519,0.039883622200566474,0.6633394859134817,3.312832285927283,-4.225442319223878,0.3446843172439659,0.08524138870780819
2.331973669,-0.1285674412304607,0.9483768742548238,3.3539923676573116,-4.1088731392324656,0.30224299621994366,0.13027221250539486
2.431968695,-0.35870616956765283,1.1987967447227392,3.3679071550357005,-3.9157492478022893,0.29094699846183114,0.16974122683175497
2.531963973,-0.6098502306646597,1.3972942605756096,3.3300445570609125,-3.7058573530075316,0.28157623756647876,0.1764479036211315
2.631983278,-0.8921900433708894,1.5536899578637748,3.2416628832448304,-3.43565169025926,0.31506392053260296,0.18322449480722458
2.7321070890000003,-1.2025838380438074,1.6539272947752204,3.1491962595110152,-3.201786677172578,0.3341748216620205,0.16920517721904968
2.83197068,-1.5018729299939246,1.628076663144159,3.1279680302581627,-2.989509213116064,0.3708397972236308,0.15067829301281332
2.932010399,-1.8077807757709816,1.56393994458877,3.116370656919211,-2.7879315653627184,0.40440076343247344,0.15898928178725796
3.031982845,-2.086017858259286,1.4362703328714483,3.1513978722405622,-2.5728615909558177,0.3708705690314863,0.16108152257833697
3.132015774,-2.3513523188552035,1.2560027485595808,3.152374721742152,-2.3860261211003273,0.3462556820266597,0.16667067127137872
3.231962098,-2.5334791476636567,1.0097587632131115,3.1453673504812385,-2.171037431236682,0.34010966097588513,0.16820380308139085
3.331964881,-2.703348377862516,0.7351026973646184,3.120576015269738,-1.9383524147909936,0.32397017432308095,0.17842313347758848
3.431978199,-2.8011823226362527,0.430493395009752,3.0791659220273693,-1.7038664140943651,0.32024373130002115,0.17886757136492598
3.532066336,-2.8114683016092075,0.14765303631423138,3.020990937024683,-1.4834965397715767,0.32061335562463994,0.1846743200264122
3.631972776,-2.7643747778277357,-0.1759986133443951,3.0054527799500197,-1.2828490724670194,0.33499992765149084,0.19283489588930972
3.7320483280000003,-2.637580376667777,-0.48503692417962585,2.966138044782015,-1.0123739875032338,0.3378925233090317,0.2006199350229732
3.832045818,-2.472515996590236,-0.6709034509052775,2.964583960733082,-0.7885784959728809,0.3622017827515106,0.20565470854009968
3.9320180440000003,-2.2544259603944283,-0.880441926863429,2.9870026929989644,-0.5829484418367242,0.4015044911393767,0.2042694567756082
4.032050828,-1.97245822538246,-1.0004407701907543,2.982758912704013,-0.3208577989108428,0.3990511540098811,0.20033197892587906
4.132028675,-1.6722480259178676,-1.0831898536914397,3.0349875836450373,-0.09735934890755103,0.4089474827097189,0.19566419307647
4.231992035,-1.362753199936672,-1.0871900894400257,3.055595330642784,0.12334944357495724,0.41371770167352384,0.18747640513848426
4.331965783,-1.1020754229510732,-0.9964476969074417,3.064853065603475,0.3673482778321447,0.3838321420729713,0.1884979329476173
4.431968755,-0.8033748899949805,-0.9073120235591821,3.0435554314174222,0.5998286151012362,0.3708766548773048,0.17962167704718612
4.531962738,-0.5753070026304559,-0.6883849242011659,3.076883661250725,0.8030600293495102,0.36465879388413275,0.17949612782865496
4.6319837360000005,-0.3778778451658553,-0.4509655219274671,3.0481517414808175,1.040250374642737,0.34683865560033383,0.1797065664535332
4.731969645,-0.2413624870039277,-0.15137212752101892,3.0728927288067687,1.2389071965256941,0.3676958687098852,0.1015389021684968
4.831962287,-0.14413498413010095,0.1346964270104734,3.1356066330620984,1.2985198151116797,0.4014106451248846,-0.004662710059927138
4.931981848,-0.07643557669336104,0.42825634825224496,3.250699951253757,1.2606409076527367,0.3982572454221664,-0.10290741486419072
5.031964802,0.03879846001922765,0.7265316409192413,3.2631551333684192,1.1225452933090736,0.35536580427623776,-0.16296948939230257
5.131966807,0.23804885489526215,1.028308587991725,3.241024030366472,0.9113133099361608,0.338601132869503,-0.18343495327317105
5.231983944,0.4260122001256416,1.2496220934821514,3.230034071881844,0.6666567239623454,0.3647088434939911,-0.1938694111684382
5.331965169,0.704259259048202,1.4506687866591097,3.2118839571040625,0.47959798210898036,0.37692891545943663,-0.18975291679247494
5.431960332,1.0212568533640984,1.5833572465690406,3.210828455512339,0.21916302298280624,0.3967675504912944,-0.18746658084197948
5.531960956,1.2996696679017465,1.654936249127328,3.2190757711924776,0.005718749845189462,0.42462494365547176,-0.1779190678762501
5.632049285,1.6271509605886743,1.6030302662297886,3.240129187449551,-0.16989412268882917,0.3978479187838724,-0.1799342105556367
5.732024487,1.94943394793366,1.5339128354377596,3.210438785066747,-0.405096416742779,0.3844263841232965,-0.18020473380627697
5.8320341970000005,2.2319346223439585,1.3636558025064336,3.230153413838651,-0.6151554199321485,0.3882590309118269,-0.18670151229167567
5.931965616,2.4876944978765203,1.1985252699163234,3.2298475115779532,-0.8090396761347547,0.35536662842092015,-0.1845565830288124
6.031961534,2.67778038453076,0.9239170827862874,3.2462464530342783,-1.011947211949767,0.34416057781950915,-0.17956911454089794
6.131970074,2.8389052952287326,0.6611617906940523,3.2003904111873736,-1.217303745896436,0.3585481938346726,-0.19710898561986576
6.231971753,2.909022638205684,0.3579183890056251,3.1623507410937335,-1.4413318727586901,0.33331220252869975,-0.2028130605001154
6.332003061,2.935947107902622,0.024780099487198413,3.12789877302631,-1.672535238728439,0.35423511324063295,-0.1932148923903137
6.431962362,2.8746419520576416,-0.27790246886880604,3.11122681240245,-1.9072454454769499,0.370107963856481,-0.2087962179613424
6.532061254,2.7602816337104894,-0.5587758927531558,3.094082807277226,-2.1470342306636057,0.3659427216910952,-0.21008772011727675
6.63196814,2.5653513511814467,-0.7987416623814206,3.0666700431856624,-2.3672898456931577,0.3726979081331846,-0.2091839770295367
6.7319759900000005,2.324694100718387,-0.9897999167966233,3.0810055564864802,-2.5848675794734564,0.4009964201833814,-0.20965984820058725
6.831967406,2.0429665744058516,-1.139878106836246,3.088543493635195,-2.8023931251710095,0.39059288094496736,-0.2073315485402843
6.931969364,1.7531703680500954,-1.204356113181454,3.103320646641463,-3.0338490983555157,0.3739492547006645,-0.2025562923159694
7.031969543,1.427960285931048,-1.1988896901439658,3.1149367719244676,-3.265741108605073,0.3813988881362398,-0.20582070751972514
7.132051994,1.123873907905084,-1.1518367022242708,3.1047307169427336,-3.489505678289052,0.3516287259563859,-0.20509652134196274
7.231965981,0.8536801903064001,-1.010318236244067,3.053207527657916,-3.712661172029911,0.33341849574945415,-0.2056663622414801
7.331981851,0.6221100208273752,-0.8457066848725965,3.0235307621606706,-3.9453751113973037,0.3333145738888652,-0.19598981127713166
7.431993336,0.4402892490961028,-0.5916006802699824,3.0328756691051266,-4.1763245062181635,0.3585529704649349,-0.17318568410947938
7.531964077,0.28737935319335983,-0.33445638245801446,3.1109688216336635,-4.3297992424756275,0.3969087417031523,-0.09561186790475137
7.631986129,0.1753870219965512,-0.03801601552077148,3.276983710273973,-4.3507764582968935,0.4245252935468453,0.03402828591182765
7.731971737,0.02341743309678724,0.28152593717423724,3.401694044450315,-4.275773874184286,0.37120875124421915,0.10501419008261038
7.832098904,-0.1646199646254538,0.5962074847380922,3.4570742387893776,-4.127987545824635,0.3201076958617649,0.14697325038053868
7.931967861,-0.3320397769861151,0.8499613732135868,3.4317897355905034,-3.960784026337487,0.2919609776312068,0.16466160292967413
8.032094404,-0.6160644119047353,1.1002127288366834,3.359505047286817,-3.7299036364678835,0.2682595557814358,0.1851928410350737
8.131969545,-0.8635058254197158,1.253521035744912,3.274847770406038,-3.5051507121919188,0.2866146826669346,0.18935989044500476
8.231979899,-1.1900379352774342,1.3324841024765781,3.214042738877078,-3.2852348901138337,0.3118622169447433,0.18080616023287516
8.332049723,-1.507142609173754,1.3850659858353795,3.1264753240607894,-3.0530513098401,0.3439758907198928,0.17409820136224388
8.432049063000001,-1.8270832439657885,1.2918674611287346,3.09794830227636,-2.8628498734293295,0.33791411408179456,0.16097832449664512
8.531965834,-2.0895986450736035,1.2092474834109943,3.1236346097628274,-2.6283485418001673,0.3480118505590604,0.17540669607766182
8.632053705,-2.360804833548393,1.0235997183616212,3.136919631994717,-2.377585551796403,0.3364564782298601,0.18092637515189797
8.732065463,-2.5496078869755023,0.7801871937292356,3.0677015101697416,-2.1578874103045402,0.3073478526663033,0.1715066352567161
8.832054387,-2.723202833812194,0.5350456016340666,3.0597733312642643,-1.948959978505363,0.2997621480955897,0.1838904526913692
8.932062972,-2.8218997529965186,0.24613203054300872,3.0332651876622023,-1.719841780851338,0.31098366351166085,0.19056741843399808
9.03197491,-2.8406547321919744,-0.043635844195659385,2.968370112401937,-1.5171758676176914,0.3059038760387464,0.19520272931943386
9.131961145,-2.790426345106672,-0.3455127895559269,2.952843176711463,-1.2811065672421513,0.3132575329014692,0.2031512337787238
9.232075927,-2.671692246896188,-0.6113316349878134,2.9378470146862323,-1.0360232567450633,0.3640457559889557,0.2088538519049662
9.331962551,-2.506460379588666,-0.8479050777235692,2.9092933490775685,-0.820203928948083,0.3646749385619061,0.2131313169307387
9.431974613,-2.2540021845449814,-1.0470453818630077,2.960855799715569,-0.5757132487965009,0.388708516753857,0.20989572864601186
9.531975653,-2.003121266987644,-1.1891540868867796,3.0153337300264305,-0.33819190563866064,0.43896313298294104,0.21569765050812642
9.631966822,-1.7143318984760625,-1.2394524707812002,3.041555744936773,-0.08286429995074059,0.4109135651827002,0.20690109230867837
9.731967219,-1.4206825145743707,-1.2589215145971315,3.0676274732868243,0.11792679651105503,0.4036620942253964,0.18924864233929187
9.831962358,-1.0991966023600122,-1.1952945796569034,3.102999385698786,0.3638824362957211,0.4234931401793727,0.19780484341297033
9.931985637,-0.8382025820729193,-1.0518351860725013,3.1153490141543103,0.5939160743632509,0.3848796428480941,0.19068799817282306
10.031977252,-0.5765779185154992,-0.8583470462511222,3.1044634467114265,0.78459275340164,0.3697426512304127,0.18432032875455617
10.131962886,-0.3971216163867174,-0.616844056935435,3.1298656370720237,1.0361704946610535,0.3735203022629074,0.19060604035049836
10.231961477,-0.24452730210134774,-0.365329100565113,3.1683395578885083,1.206642768042546,0.38317909560327673,0.10870340194735488
10.331960625,-0.16446809918840483,-0.04807173772711453,3.2310022713481543,1.2976300413359352,0.39309963305587575,0.012677359162355437
10.431967574,-0.046714757309469154,0.2648358320499579,3.294064915414777,1.2549839632550888,0.40259694982472705,-0.09464233128807491
10.531965976,0.07705332495115687,0.5591629205475714,3.3304375975880274,1.1036739745557158,0.35092600848876526,-0.15174751801103611
10.631963129,0.23859388140880655,0.8473570830217672,3.293748957471976,0.9083439807347448,0.3258243764712245,-0.17890743402839024
10.731967123,0.46961821867813275,1.103175675760664,3.2639080489437884,0.6809730460726613,0.35319771863277666,-0.19066659350118445
10.832044765,0.7534779566233881,1.3135360997588845,3.2459795498912833,0.4484744835114284,0.3614712428124952,-0.18579943762249074
10.931979624,1.0471786671536185,1.4396278229097121,3.2521628902461113,0.23601062241366041,0.3756161319508268,-0.1773660874673898
11.031982191,1.3355286780177968,1.4892494882692129,3.2428699965646253,0.05421247624694643,0.3954600641852439,-0.18331884109319577
11.132058872,1.65073876608184,1.476188524315101,3.243184712042542,-0.17539895141777168,0.37183484621463997,-0.18414037357942423
11.231980418,1.9752861306032117,1.4087190860076173,3.2110652380764053,-0.37593097361667416,0.36837525101627233,-0.17196473333826126
11.331982475,2.27123400050088,1.2586356300216828,3.213009350647723,-0.603997245198897,0.370025421958595,-0.18424643482477257
11.431977979,2.5115809011161665,1.070205036930572,3.179647179107862,-0.8134923850836971,0.34131463655312444,-0.17959764870684228
11.53198591,2.6995934956911958,0.7960244004221223,3.1770964964302393,-1.0198253961449553,0.33514027787614836,-0.18944483105859503
11.631969312,2.866777813669692,0.5201956557003643,3.1519479124305883,-1.2505332881134188,0.3435341005535611,-0.19352863887502209
11.731968189,2.9122783503982497,0.23700936203520423,3.1112185903889906,-1.478053274237085,0.3458729712274925,-0.20069958418639158
11.832044606,2.933348967858968,-0.08100926327462182,3.0737165574900356,-1.6972076238936642,0.34591176538525015,-0.19143173231766045
11.931986887,2.8642488993709665,-0.38213568280198534,3.088427359372651,-1.9321130046321249,0.38518346418399896,-0.20603095564015897
12.03196722,2.7536822610630067,-0.6540536994049867,3.070926267613512,-2.140019782550076,0.36152178840380256,-0.20537827062534442
12.131981639,2.5406128462321447,-0.9030495411784502,3.084828847664449,-2.385537119739069,0.3756459060696173,-0.2051509579684351
12.231972574,2.298731346493402,-1.0901362294164663,3.083022407731702,-2.6240395307410944,0.4078825360790637,-0.20604474716562024
12.332060121,2.0293701897564285,-1.2169652876861055,3.1060184057873768,-2.8364080309982125,0.3954782634666193,-0.20401061337753978
12.431989011,1.7238243054694988,-1.2831550681972546,3.118384326565328,-3.045333260789161,0.37497315928476155,-0.20582191259151902
12.532045606,1.4233089035212414,-1.295709370043696,3.116686312725297,-3.281602788739932,0.3754416798584075,-0.19583648566991477
12.631977965,1.1151139344336818,-1.2270668048019275,3.090806760911344,-3.529255984352622,0.35477284680499765,-0.20083817266770262
12.731968227,0.8183897219444419,-1.0910595140324437,3.080429451562307,-3.755875329736421,0.3463121349511666,-0.1948389344203417
12.831960549,0.5767596120267718,-0.8781541287292702,3.046797700931286,-4.009702984856095,0.34498874283991515,-0.1973887042855231
12.932012705,0.3962585272602432,-0.6443359341968097,3.0303327157647786,-4.217296894394512,0.35237493777400375,-0.1740690685307807
13.031976908,0.2623558948851811,-0.388464569627932,3.1115825794627625,-4.357169566718355,0.3966691068573598,-0.07578295467933013
13.131986608,0.16276528219398106,-0.05867321759230007,3.3123705303776427,-4.386693240146171,0.43013657482842593,0.03351612598897499
13.23197524,0.04165178127268097,0.23573507178935257,3.423977463316799,-4.340238366579009,0.3792327286568378,0.10989967786355428
13.332062515,-0.12342494369763113,0.5503497544770022,3.4900544934902973,-4.202658181704576,0.30591313102452145,0.15714120648298108
13.431965868,-0.31455689229074635,0.8367819802352979,3.443838508869803,-3.977788653438729,0.26583759257413436,0.17497071138477668
13.531994336,-0.5669647286571399,1.071585641505411,3.3340452156349936,-3.724448996595993,0.27566090368361573,0.18903890957995184
13.63196383,-0.8379766159956089,1.2238644455278402,3.2276339432909693,-3.4730575519089704,0.28389623983570045,0.1793580309993648
13.731960245,-1.1938872598912988,1.3197879803797206,3.141047264404856,-3.2241179825932638,0.3368784132493793,0.15275709917771285
13.832056214,-1.445750402238084,1.32624725316223,3.1203523526196713,-3.047451804514081,0.366461628856118,0.15934291210665635
13.93196784,-1.7694221470759242,1.283287515096421,3.131725935190577,-2.8108035158532565,0.35500194492592896,0.16837650927456158
14.031964724,-2.084204645398141,1.1464615531859652,3.148417170880172,-2.583234805041495,0.3379844591849114,0.16534244952997143
14.132012949,-2.313419298139387,0.9684341365179963,3.1097845062319016,-2.4061267270638385,0.3365321463823369,0.17094764774289753
14.231985928,-2.5200397951156126,0.7400341270117368,3.072473014140137,-2.1860087576012712,0.3061170156481545,0.17054419034921947
14.332059502,-2.656501844075286,0.4994038218695037,3.056172322956202,-1.9598257540010022,0.29711765991937017,0.17451856817639333
14.431991139,-2.7480217424818307,0.17096116907448028,3.0051917155697776,-1.720283670837912,0.30904975748835783,0.1857055967308212
14.531966159,-2.7920140893257157,-0.08963877508022754,2.9491965234948103,-1.4974982758174238,0.29665753913970505,0.18623304675772434
14.63196662,-2.7287973198447513,-0.42296428402012415,2.929988768275246,-1.2777818742607254,0.31120154160593777,0.2004347252451278
14.731986791,-2.6212059330163306,-0.6656971804426528,2.907562436058275,-1.0487929238871074,0.3493683381675656,0.22002331604109102
14.832116084,-2.459566565641118,-0.8969760455194068,2.904360286650882,-0.8042717126642446,0.36293430407279986,0.21943985466868585
14.932026805,-2.231839475204895,-1.0792401922348815,2.9209992196134777,-0.5673014030404935,0.3877611084800928,0.21634165676526718
15.031966832,-1.9720739187642797,-1.2132079136868854,2.974642848358705,-0.36065191715268585,0.40886314917978694,0.20771932532296158
15.132042397,-1.6587758674970858,-1.3083742865285308,3.01641056198132,-0.09170898353353052,0.42560902682252616,0.2158257323614448
15.231963328,-1.3930753122796515,-1.3030107303068814,3.067906024685971,0.12871235579943155,0.40972934462315946,0.20669911485678216
15.331983125,-1.0817120562109463,-1.2463502400079078,3.072984891146828,0.39028171667972467,0.4034078357271407,0.18702503534081605
15.432050794,-0.8045107331968131,-1.110558325964113,3.092925768188936,0.582477524744614,0.40439052762882677,0.189384116681923
