time (sec),x position (m),y position (m),forward velocity (m/s),"heading angle (rad), from x-axis, positive is CCW",throttle (unitless; -1 to 1),steering angle (unitless; -1 to 1)
0.138141817,0.46985330824636823,-0.4815775293467101,0.09830556349326555,2.28248180568493,0.16806774055637347,0.06104000910894201
0.23813066200000002,0.4350844845563999,-0.44302085618310644,0.5933427160221837,2.2421630789506066,0.65,-0.14521960481080562
0.33813157600000004,0.3876037660259124,-0.36467233633404794,1.1319675652365586,2.2192243223728516,0.65,-0.1575985116364872
0.438190619,0.3001233728732207,-0.23742818788506834,1.6688120094728551,2.132116423517048,0.65,-0.1406771127223288
0.538132462,0.20450670519015732,-0.09605165034159988,2.1862483548392615,2.0632085248345247,0.65,-0.05073162406600823
0.638130926,0.09109947806629788,0.13351811466081642,2.7172376927484074,2.0922979063628104,0.65,0.021813711767856014
0.738141523,-0.07314033358180488,0.3772677454884672,3.1045937132883146,2.1400039511319635,0.65,0.06966581524403259
0.8381306970000001,-0.2551231409240845,0.6300715191422297,3.3901117369228975,2.254199185989459,0.5605220573911892,0.11068627271834454
0.9381310740000001,-0.4833950296220288,0.8964904939740687,3.448791289929296,2.3855275154617113,0.4093874627960875,0.13991298940776659
1.038134499,-0.763694741401684,1.1392570416558498,3.480896764099913,2.5574005298674907,0.3790269165371129,0.17186266267328407
1.138132522,-1.061746748525863,1.2950704392660706,3.43035049258208,2.7603275907008316,0.2659612237819929,0.18267765199649788
1.23815281,-1.3714795399230657,1.4149701563642434,3.2707226206061084,2.988475091130949,0.23561787337437634,0.20322070005304904
1.338130328,-1.7040891273964736,1.4264653736446213,3.144742603426216,3.2555564087403663,0.27173982411852055,0.199484616697634
1.438130951,-1.9989752909895993,1.393191776522044,3.062674232770001,3.4629516128329256,0.3046374002328466,0.2043462048946376
1.538133034,-2.2703361800426944,1.248927972983835,3.0356038353796904,3.675587989716908,0.37025368207581116,0.21333363097822786
1.6381450069999999,-2.5080159732434084,1.1086979745034797,3.031763884170824,3.8729767385844704,0.44776998871533735,0.22566527835018801
1.738140618,-2.7316748501237385,0.8718294816776327,3.0997777506334967,4.150945823780142,0.47677989904575785,0.2329668352977845
1.83813591,-2.869151441291079,0.5824390347667442,3.1656050201825248,4.371251643111622,0.515989899977242,0.2240090692987931
1.9382145990000001,-2.9744248248444145,0.2985446436205359,3.199619799692638,4.595031344035709,0.5540730082017868,0.2135733792113166
2.038146944,-2.980648939399938,-0.009468090326126322,3.2758559489076955,4.817807100881032,0.5454239972817279,0.20904915293340517
2.138191318,-2.916647803979486,-0.37116505293707835,3.321870593839266,5.06593641332791,0.5212300175791053,0.19728037383806668
2.238143153,-2.7901978413784976,-0.6662543521257791,3.3667633796267684,5.277680096913473,0.5049284738590767,0.1895241836040138
2.3381360620000002,-2.622467580804031,-0.9508722241091657,3.3872363811552053,5.467667639055213,0.4724612140041988,0.18869122398144264
2.4382351,-2.358062876353765,-1.1831882407438832,3.3642770495425545,5.695588319518117,0.42509244550750624,0.18462841205473637
2.538232876,-2.1025823450163243,-1.3683346615291843,3.3548600240442825,5.8865488108786845,0.3890253869173766,0.18886925295297066
2.638233079,-1.7695732663603947,-1.474886118354278,3.2903403946116296,6.09326710245017,0.3433534053168629,0.19787203582438123
2.7382137230000003,-1.4444415173616378,-1.5099529782459358,3.2417608086052656,6.328974953267346,0.31610392180274643,0.19974883135148522
2.838138468,-1.1107488271025696,-1.4840519010473785,3.1705074020647652,6.55309138575651,0.3203447515927383,0.20696766819895962
2.938134416,-0.8190128747158416,-1.3694692833925455,3.0965417263016595,6.789492673943551,0.3463233393608316,0.21303807928711183
3.038136155,-0.5751220251992707,-1.214199486251921,3.0715943758561663,7.019155226829444,0.380950218843078,0.21382706316396624
3.138149172,-0.3721180068161688,-1.0342374636386835,3.07794535504205,7.193001831969014,0.48677235761318655,0.20346994474772773
3.238188713,-0.19288943320774155,-0.7349061982944505,3.285275489596397,7.3799426871984,0.6452597952492721,0.0979401899716052
3.338131094,-0.04013849553844694,-0.43593784812796804,3.5324020760914636,7.44545296223127,0.6117102136575264,-0.0017791925782735581
3.438135296,0.1323588700360376,-0.09643267425234556,3.7599539073512442,7.425144016437732,0.5130075183418352,-0.06240022593623183
3.538164974,0.24331411031445901,0.17366859930421136,3.8204664531790606,7.405909126473883,0.4211563663089721,-0.11078968930039719
3.6382620020000003,0.42063011517975785,0.5114990651886555,3.8138162701350566,7.341722095876769,0.29111558893718026,-0.15539319377771232
3.738142583,0.6549205977731976,0.8695154513711876,3.7258714418969214,7.149809568266477,0.21861820865558046,-0.1935739156765195
3.838131291,0.9297765153386784,1.1297747663506172,3.563943568195114,6.904467490340418,0.1742483075123807,-0.21306438582032652
3.938129361,1.2359821208586739,1.3303023241192358,3.3761388983164915,6.644769822470854,0.16475071943130373,-0.22417497021465327
4.038131512,1.5505471164107287,1.4089052397632809,3.200084029784448,6.448620779818228,0.23348305336079558,-0.23807851821806555
4.138134304,1.8526398525022043,1.4537246382496969,3.0908303388481504,6.21135242013347,0.3250935081258815,-0.25584291333401055
4.238146765,2.1568903805066117,1.389647041259391,3.070013708321781,5.970865341098191,0.42687692379404846,-0.27518555704278624
4.338133908,2.439346210523098,1.2765532311151733,3.084891811744129,5.728883288523847,0.49720720151170067,-0.27615369791844413
4.438155137,2.6563677186946943,1.069004079967609,3.130355755402192,5.453940969782509,0.5668190877468758,-0.2751962217494349
4.538224463,2.877381168734654,0.8354822553269253,3.2080116144947617,5.208486433149343,0.5694978775896723,-0.2607787065952005
4.63822795,2.9729635014437092,0.5149876120753499,3.319984721074231,4.945448915295211,0.5728426932568401,-0.24732177932812419
4.738214843,3.059872855170227,0.20772640506540177,3.323324699515585,4.702138028533113,0.5786054397357335,-0.2340494700471037
4.838134887,3.0531590946968845,-0.1246191594343122,3.324459566148655,4.469053938747885,0.5418910865224006,-0.21787524426092875
4.938145306,2.9784228881791,-0.42741011087369335,3.3461183001575505,4.250419933783538,0.5024383890685035,-0.2074429531251362
5.038229105,2.8139650293714737,-0.7217969295068798,3.3435136952640243,4.0584890941766085,0.4839978507886302,-0.2119575405695316
5.138135086,2.596974655252995,-0.9839885483236034,3.375252108079357,3.8782842866469385,0.40196158171562074,-0.21796318492770814
5.238130342,2.3051013469689834,-1.1665861282065757,3.375552172583257,3.6813015990214804,0.35368162400268044,-0.22107564565416618
5.338134261,2.0401961424142994,-1.318639969546084,3.2893394141134804,3.49092537451837,0.3374248258904145,-0.24234332568437197
5.438132174,1.7103090306333102,-1.403215628089403,3.224204858138235,3.2189948227629555,0.3197160064266986,-0.25095420777884864
5.538131895,1.382051826743051,-1.3853261400365569,3.179226678237791,2.995796962972266,0.36271305109938573,-0.26553812666606375
5.638197034,1.0665745826840132,-1.3341357298266294,3.1753654023659506,2.756990516967286,0.4566215332953288,-0.27823023363795707
5.738134502,0.7824149710088018,-1.178974256031731,3.1361154223234564,2.5139037743638712,0.498643748992282,-0.26660544339479497
5.838129718,0.557601886124558,-0.9600451593821038,3.229902661443273,2.2552160616307395,0.561619064406002,-0.2257683088705045
5.938225891,0.367054515050075,-0.7125489860679994,3.363105386849909,2.071007859317433,0.6347585141401171,-0.1398576839478969
6.038130997,0.20519465625703628,-0.3926337224962645,3.6290517926054755,2.0151733687145015,0.6107272650710821,-0.03510422682746632
6.138130291,0.043469886075590124,-0.06147417287074813,3.8033439699135925,2.0450169047241236,0.4955551240097038,0.02918658116633791
6.238133088,-0.1431158853517627,0.26014216761128045,3.8859374548489964,2.097602330325724,0.4186321271614542,0.06998638188047289
6.338134196,-0.34599272872699016,0.6035915335954322,3.880918857829947,2.2332529403075565,0.307862672914266,0.10606220700895305
6.438145493,-0.6034221411546536,0.870485532468487,3.83821322207349,2.401877488685833,0.23692563273241635,0.1279210748196253
6.538239385,-0.8982796178287787,1.1398205476918823,3.6683215075482414,2.619688930988304,0.21161859070710973,0.15126854044687033
6.638131229,-1.214266776658822,1.303275785316224,3.493217207261551,2.8327564285771856,0.1766353524078565,0.1636994838519057
6.738131469,-1.5418621069086802,1.4043582758824824,3.3016205872947975,3.0652991800285543,0.1936966999578782,0.171897223598644
6.838134771,-1.8441779132690144,1.414377905460147,3.158336373933884,3.3117346437170037,0.24808263022035806,0.17967767529087575
6.938131554,-2.173781637794179,1.3635377433288658,3.061039055414751,3.525655052077707,0.29297684610414365,0.18720898330025437
7.038152363,-2.439632480239618,1.230524865415847,3.04611545601414,3.7331071215287497,0.37081108021931686,0.20948311352951857
7.138132969,-2.6800677937471913,1.040690750019012,3.0111815905438357,3.983061225309572,0.4449055141054501,0.21849011059116655
7.23813132,-2.850363484830582,0.8035058875930056,3.0963838238480115,4.2094679972762075,0.48193537156329996,0.216814574916587
7.338131262,-2.9797177700280706,0.5166810894623626,3.1581929900747845,4.437898242647097,0.5307961635525408,0.2110755525811875
7.438132754,-3.0191629622222425,0.2188989361407321,3.1906893345874305,4.6809148606247835,0.5774872095323818,0.19437584718749862
7.538130603,-3.0422035378519734,-0.11510334862187871,3.239139805246889,4.903269747814294,0.5650411152396847,0.1903453629107442
7.638149393,-2.987497528454476,-0.42722387392930755,3.319622636019828,5.157062461768425,0.5552828930372552,0.17719350261388586
7.738139429,-2.834283406782316,-0.706462400873038,3.3489370629082247,5.319738595293415,0.5209060186729834,0.17079167919727256
7.838131032,-2.603808879780874,-1.0015522287670402,3.373712072276933,5.5415028788800536,0.49417646697481427,0.16870520791169757
7.938146716,-2.3465656835913355,-1.2046796134194255,3.4020564121027443,5.734175828106626,0.44254240863481276,0.16497837108416724
8.038154825,-2.0522846626971467,-1.363828834006325,3.3529320226525026,5.9518298046343165,0.39781206215529463,0.16762987346018426
8.13822256,-1.7400464756278884,-1.453403879809184,3.318827519328301,6.16383249072613,0.35319361419401557,0.1764065170821601
8.238145257,-1.4120148964821007,-1.4933384131801641,3.2607838704243446,6.376198891471016,0.31973998364670503,0.18082412167665438
8.338144077,-1.0968188568677708,-1.4145631917573762,3.181588390669472,6.608631982006211,0.3190345132674789,0.18918671320831804
8.438131892,-0.8088584208578319,-1.3042257742383976,3.09014912815628,6.867398301562602,0.3476943370749136,0.19381653561740955
8.538131809,-0.5766997302317903,-1.130341491535177,3.073560019983834,7.085899902915061,0.40190564635494397,0.19927434567007776
8.638135795,-0.3576659210615668,-0.8954334905356863,3.1152599071006093,7.298484449414393,0.5228610514109677,0.17284154546986238
8.738164684000001,-0.20552121771416715,-0.6600722614768116,3.2862917433816414,7.4470303834974905,0.6181230904109226,0.07849218378146244
8.838142966,-0.05984716177248631,-0.32984858767107395,3.532012751726644,7.476516188139347,0.6190724146815426,-0.01566588535023477
8.938236004,0.07583306829892439,0.040721117248397234,3.696543702706539,7.448038327148552,0.49752162907086817,-0.07610283762627443
9.038150459,0.235270108843889,0.35761662991301696,3.777436886947901,7.417717811208339,0.38517870065470067,-0.11902271362074315
9.138141433,0.4070068301907269,0.7035500251368187,3.774890011544068,7.301691601072365,0.30249580154393435,-0.16631250032473666
9.238135366,0.620483309110739,1.0246607440846796,3.6759624141202814,7.099825521062055,0.2108553417276006,-0.20282154502293392
9.338151364,0.8698410806983374,1.2691251686435443,3.4950571236901715,6.882512014163328,0.20547975935914464,-0.2084815988863774
9.438207054,1.1662197388359925,1.4299144433651718,3.3389395594059983,6.672956656606478,0.19334754028007298,-0.21875983715063774
9.538131318,1.4924548874358767,1.5303657284760275,3.1937970734143053,6.445769466199511,0.26287739981965075,-0.24141686153197625
9.638147286,1.7717150841330562,1.5498823883191484,3.124911864004426,6.22747435180803,0.3690293560685231,-0.25989164900782213
9.738220537,2.0901799562201706,1.5144809441092375,3.065807126127171,5.975110955257577,0.4295796736208862,-0.27464378047596544
9.838139419,2.370719398489407,1.384037062868557,3.106166021599945,5.692535683013195,0.5060514366453848,-0.2759179185447881
9.938139974,2.637731895243047,1.1638995172397963,3.1507295160548554,5.4694207445420115,0.5915690393575475,-0.27199709941103306
10.038240578,2.8060810783042958,0.9273568967152991,3.2033728490312656,5.1813242457231174,0.5961603244132109,-0.260384379037648
10.138220608,2.9441163910909074,0.6459971483468746,3.258022285235145,4.942501980017573,0.5887049384494546,-0.24648869839592866
10.238210755,3.0027530279292067,0.31549449212976255,3.291399688944346,4.703290999184675,0.5666471033940851,-0.2257479965617883
10.338132476,3.0075402119122656,-0.025907728261187327,3.3183681379488097,4.43850823544358,0.5654891013612813,-0.21209868467346127
10.438146075,2.909153512180737,-0.34477979745569115,3.321527170743081,4.238776723397697,0.5047481680338853,-0.19657716681697332
10.538209382,2.746594526014518,-0.6186981084747987,3.3744290551616154,4.043809953153808,0.470695569103496,-0.19111119703953158
10.638130609000001,2.5322780904477518,-0.8567379810112269,3.3790907521737417,3.8832383917223128,0.4031509116233205,-0.20503996092329876
10.738143754,2.2421168493045074,-1.0728009373424434,3.3593584667628846,3.6793419783604677,0.3349112512744852,-0.22454248171664531
10.838150829,1.9569470467209458,-1.2203074491618262,3.311355227850978,3.475687077957517,0.33093351740070504,-0.2460980334871065
10.93814759,1.6411279671452335,-1.3104926704259667,3.2102327330417144,3.2579859356002943,0.2977176720011912,-0.2600166664480917
11.038144096,1.2929701675762812,-1.3195848182542211,3.135888309447645,2.99528238878148,0.3356874893148611,-0.26783494562563465
11.138137748,1.0198951292708025,-1.2346688436098119,3.095719372737672,2.750754288408609,0.4198224591686062,-0.263619012957899
11.238136675,0.7426305969727806,-1.08980983183561,3.0865376096868613,2.498188467092779,0.5059432790348495,-0.26591858001582863
11.338143289,0.5113489653571798,-0.8971617968594607,3.1859006167880715,2.259421989586528,0.5787277629591071,-0.22298395187588388
11.438132912,0.3140487559201847,-0.61759453071492,3.2958693583383183,2.0591605412295446,0.6481065972261986,-0.15034546050029696
11.538132791,0.13839564105708752,-0.3117085872209352,3.563006554581075,1.995965613173165,0.6048050571464479,-0.03465369756125759
11.638129492000001,0.0025532447163661097,0.019940774280759133,3.719974295905925,2.0473568188852367,0.49961269934997443,0.03250046345260914
11.738133352,-0.19368348526786466,0.36037789888838745,3.849131275133466,2.129685122312326,0.4201920366404675,0.07112788456261598
11.838131796,-0.37582161887942583,0.6470217152516038,3.8367417446330667,2.2333706524923005,0.3070632275134943,0.10563968471472822
11.938232427,-0.6272186587633077,0.9648671099939167,3.795578302723259,2.393371610769087,0.2426347657308873,0.1318831652059683
12.038148653,-0.925471729146881,1.193041556434544,3.673469878052803,2.581427940943662,0.21993179686298983,0.15922045172841928
12.138143696,-1.220584680416822,1.380045527696561,3.4912954973121,2.8297590624939812,0.1751964208779998,0.17562198228521392
12.238129971,-1.5610792075592552,1.4768069160166957,3.3010785259508495,3.075702709584688,0.20114587640811646,0.17150152050304712
12.338210777,-1.8517745694274645,1.4876087551273305,3.1425318535630455,3.3143857563600028,0.25001983230221697,0.18067827535311812
12.438150202,-2.159143732411395,1.4215376237753026,3.031878370551045,3.5374055322214497,0.3135179902155383,0.19247291865459337
12.538188668,-2.4366340869385503,1.2990852826731696,2.993661517136193,3.7239300861234694,0.4004192120530895,0.19952163014569058
12.638131247,-2.6595898864841323,1.1233148439022576,3.0440216572771353,3.948179077166226,0.45377327064591355,0.22123146096646004
12.738132211,-2.880763285863272,0.8704099401598544,3.100099753366869,4.17368468392891,0.48586520198013866,0.22154281262602832
12.8381341,-3.0252048797178106,0.5979257207322525,3.176980026557433,4.416164682482911,0.5418161157009033,0.21365612604305537
12.938185109,-3.088300616216823,0.28841990131076634,3.2121694287686635,4.6374213442017025,0.5540648412891315,0.20876469535751918
13.038133067,-3.083845484221342,-0.043330441413323185,3.259071603937656,4.8875950068167135,0.5559370476524713,0.20255175141971743
13.138147903,-3.030672994666172,-0.3494917337357563,3.3487426388575305,5.130846030840477,0.5718446971459392,0.18936122038067885
13.2381344,-2.898415866227779,-0.6721889422806899,3.4039345166672,5.321204809850533,0.5216545131006741,0.17922743638286143
13.338137173,-2.708557537256495,-0.9379750958783134,3.3867886493909496,5.522501613095105,0.49206751380856606,0.17231237273909375
13.438129613,-2.4286724750926734,-1.1706253080655087,3.416003541531429,5.743083500740512,0.4812698201856629,0.1755052415880566
13.538128706,-2.155391103252873,-1.323732386063066,3.3569665003115357,5.948959569924565,0.3957708885536624,0.1677627695483747
13.638192364,-1.8194697723669282,-1.4307677400575725,3.356970250391844,6.135479904309541,0.34710619963781536,0.18159396594285948
13.738141942,-1.5068811250757952,-1.4384034283104516,3.2581091188681115,6.34765086123351,0.3410530028536556,0.1876436674230538
13.838142952,-1.1798467944322577,-1.419217666534404,3.1623841767559253,6.56703959903752,0.3178266902965672,0.18975146560290299
13.93813164,-0.8970173088535915,-1.3216879870542393,3.0967479272341523,6.811969235966454,0.38962912528781596,0.21526438415792942
14.038134604,-0.666936728584433,-1.1548558590216844,3.064946557394467,7.051094798004833,0.40373216070336404,0.20129909507778798
14.138134145,-0.43047010579038686,-0.9298219367143836,3.112752643938056,7.261895164614995,0.5255305242175353,0.16316728877247916
14.238134685,-0.2685077278159952,-0.641387712237833,3.310301761113078,7.417204074636385,0.5856584161132581,0.08535896085675099
14.3381341,-0.11428577335390858,-0.3403530326768541,3.545617292157351,7.4295359026735515,0.6315850419560393,-0.010995781193811865
14.438130518,0.03907572875387173,-0.010346163290655633,3.7060588363799156,7.447649533359206,0.5086629865479417,-0.06967380671908324
14.538134943,0.18718813492162636,0.32155939508321835,3.7954413291459588,7.419088239202839,0.3956959876202151,-0.1154518847459734
14.638132082,0.3902218633314731,0.6546952070456478,3.781169678950566,7.324415835264027,0.31893356663681516,-0.16552285930206007
14.738133635,0.5990148927140201,0.9641089061693924,3.6962273687733,7.121350547295944,0.22248875909289845,-0.19821925690111092
14.838136548,0.8337917850156191,1.217755121231928,3.5366005092814268,6.890971625356874,0.19110761658494996,-0.21117730185427877
14.938133463,1.1383049351495973,1.395085875369014,3.320347339045873,6.641099072687927,0.1988317106509881,-0.21957952763352426
15.038152647,1.4428886089224755,1.4943538689435054,3.1884081504962807,6.423601726246047,0.2533255225079324,-0.23310138531185465
15.138134973,1.7498178402542444,1.5246878027936215,3.103270249511211,6.201847176044327,0.3520073894331,-0.25399545166433596
15.238147969,2.063922174613712,1.4568207102811022,3.0601407051534086,5.942625204834003,0.4333257517059545,-0.26965552326198955
15.338181971000001,2.3520216841567962,1.334410444878656,3.1089320649339967,5.729973537242689,0.5114527063147237,-0.2717084603315016
15.438135141,2.5884965315005934,1.1330475444432648,3.1520465015607853,5.450121314459936,0.5844816002338157,-0.26599186989211104
15.538133062,2.793575880875518,0.8666879371467858,3.2152238004447806,5.21182478311566,0.5693328851796131,-0.2578894269078085
