time (sec),x position (m),y position (m),forward velocity (m/s),"heading angle (rad), from x-axis, positive is CCW",throttle (unitless; -1 to 1),steering angle (unitless; -1 to 1)
0.128514306,0.010424069800430046,0.3885748973647951,-0.025846640538013284,1.6840528505591594,0.12002676229218298,0.14323412461067575
0.32851162500000003,-0.003242390669174781,0.46213641560511576,0.9409319997151652,1.8138080157509544,0.75,0.1981287396762746
0.528505275,-0.14949101594032274,0.7782938374363745,2.4968926550611865,2.109542674779373,0.75,0.28162867147999476
0.7285218050000001,-0.5545001010904725,1.1338172439260197,3.0992951922676735,2.51066631697705,0.45275652167049907,0.23152363504508428
0.9285303650000001,-1.1498556743617179,1.4408616343702216,3.087313808505545,3.0692213124026013,0.4050531344247476,0.2145415236160644
1.128507066,-1.7620130233060036,1.25525637181684,3.1309679674972264,3.5037412922545244,0.3961437790845676,0.20988790238942484
1.328503801,-2.2339400381440724,0.9048406759893199,3.0569933099449673,3.975386351443422,0.3698243279764249,0.1983780801527918
1.528495742,-2.5803627586759776,0.401727905228938,3.1068161040442837,4.461346727829749,0.33406352024776054,0.21297068349450526
1.72851068,-2.56475423061543,-0.21117317820267534,3.101791796315779,4.902461645826013,0.3529630523155757,0.22258249856070894
1.9285156200000002,-2.298694252931074,-0.8280452943974984,2.9371632747816556,5.372714437210264,0.38755521717318964,0.23534954214348042
2.128511164,-1.9234985060532532,-1.1096705854353042,3.0042754024586995,5.860527393017816,0.43534713864451857,0.23226628354436846
2.32850814,-1.2846716026542218,-1.3015947155010636,3.1256803439248335,6.367763652027769,0.4573720376743429,0.22456091600428932
2.528516733,-0.6882877989465458,-1.0991268439475628,3.119672593471435,6.786257741960003,0.42237559436954925,0.19923792021387798
2.728510855,-0.14952687733997894,-0.6171269940182056,3.1109099613287414,7.311211101206513,0.3988400635054977,0.192231884897884
2.92850953,0.12693774436960714,-0.13934616112615908,3.277377266270577,7.557003534486977,0.48941791698330006,0.006964746220969116
3.128522684,0.26131983098351075,0.5303712679176698,3.467839192280167,7.351357333108834,0.40239136180514745,-0.13797088459299545
3.328521625,0.7341948181526359,1.1124358059911212,3.33625500513978,6.998583065856045,0.33704614981507447,-0.1718325700389153
3.5285004090000003,1.2929920110805109,1.4259108579175646,3.2747939375534876,6.543341254217766,0.3676257465007144,-0.17414537598395824
3.728500092,1.8992753023415407,1.3766955106527532,3.2522754449149276,6.046608878320455,0.36710767399678573,-0.175880094953138
3.928564561,2.538877006883074,1.190898747212224,3.1669856527472797,5.607798301847854,0.3670102119402367,-0.19133085621048326
4.1285102,2.921005656698731,0.672466221717424,3.2258662170172974,5.221434388949474,0.39969482200117146,-0.19800371126493369
4.3285058880000005,3.139820157373334,0.14554939879628281,3.1923744158998923,4.733250333869653,0.39217874364351674,-0.19477522149016088
4.528511742,2.991564354339681,-0.5478413534041425,3.189361904469017,4.204003639325801,0.43550965770814004,-0.19489419535846966
4.728509798,2.631262755290034,-1.0020444565221953,3.29474483799517,3.869668084294405,0.46627277224801494,-0.19173013507719128
4.928515452,2.06052340108241,-1.3219568085731581,3.2440424068037443,3.38255810636351,0.4112342203228483,-0.18076549388453025
5.128515216,1.3740388965384476,-1.3676013416129593,3.261942999250894,2.914674815136936,0.38536390541784155,-0.17007243984328732
5.328509707,0.8394258378005516,-1.0957653390910522,2.9439127192665966,2.3527989756177132,0.2579037414199555,-0.22488873199890974
5.528499051,0.4586319935303197,-0.7319752906029052,3.1006751804452857,1.9763919147557825,0.48692091565584095,-0.10960048259521364
5.7285283830000004,0.27100157122639706,-0.08240938023469495,3.475446299219114,1.8111574660487149,0.46285598352262225,0.051592877979892586
5.928515234,-0.05265446534118719,0.6498258034627645,3.714965986919228,2.128385498821866,0.3145072151476264,0.14561051015311907
6.128504732,-0.529645460570814,1.1179349973693096,3.5784383934841317,2.5451591358417236,0.2553270185537812,0.1831907515242044
6.32850642,-1.1172567569130527,1.4195230489698565,3.2948486088262823,2.937933317500006,0.32032363191757673,0.16448743985679914
6.528498475,-1.7877321270445368,1.4179193150096507,3.1668076655544573,3.4599598570428225,0.3665380435181836,0.17475554974100238
6.728508152,-2.2835466498563903,1.1299019290578252,3.216988436441774,3.86758427737302,0.36413024600009647,0.1812777117122889
6.9285016630000005,-2.7097031839168246,0.5962606511571148,3.0184537973518326,4.434542068900083,0.3302350286995348,0.1955191054328647
7.128509204,-2.7930953954528914,0.04029285082894861,3.113678229021074,4.782697428989351,0.34622043010730724,0.18897815811729246
7.328505416,-2.6781245438192847,-0.5792853561342558,2.979394799067869,5.152362288918879,0.39022210031146376,0.21503283049542563
7.528547302,-2.22702915678183,-1.0469058477794397,3.0900760363636914,5.75205608035069,0.42134362377621987,0.1977471371395367
7.728517511,-1.6654950093687448,-1.2863574939269367,3.223898792959665,6.09430111744642,0.4414592511846856,0.21604018331625294
7.928529026,-1.0758360790755441,-1.1800768982401815,3.1002970016216156,6.585765723515583,0.4292378716483631,0.20525363333584104
8.128510888,-0.4498398792122162,-0.8548730990454364,3.185054385534992,6.997107574671391,0.3924322716799001,0.18078388590266647
8.328521655,-0.15104570183977678,-0.33878032872747504,3.264841060891121,7.567247864797249,0.440760305608665,0.094683160910932
8.528523909,0.11717506381949433,0.31333401016709167,3.4539152322367643,7.528649016482488,0.4591114666618835,-0.09345192929970562
8.728513476,0.39823412355177035,0.913159465420902,3.4816189259048493,7.253698283050011,0.39090388898513545,-0.17448994554272235
8.928524634,0.8065377469052961,1.413260791240411,3.5702645699262625,6.817292388050633,0.3252663961005224,-0.20146055046328554
9.128514997,1.5196261836061216,1.6627360292811604,3.380940265465464,6.36220948791629,0.3476953105173568,-0.2223351497193377
9.328506728,2.150117603070344,1.6251114213499853,3.122735281194791,5.88240868892157,0.39728536159869493,-0.19559282329992103
9.528497738,2.6946086159742593,1.2002465720591888,3.243560174832307,5.505142470042813,0.4391300750668675,-0.1992722490520126
9.728508146,2.907874156558907,0.7155675859754288,3.3179210761406686,4.926036858722112,0.42460008958604967,-0.2077061906053923
9.928510383,2.993213144798684,0.037620085505104414,3.2454671372170156,4.465504288836361,0.4087594026250652,-0.20014246483009157
10.128516611,2.7453504618671944,-0.5426695239471037,3.30458370846361,4.087895781717131,0.4434893035167848,-0.1951103340093998
10.328507513,2.2847928544567244,-1.0386109039497071,3.291735421187404,3.602608157142511,0.42596857898992196,-0.18070016339654715
10.528521199,1.7193708829528862,-1.2011221700043446,3.303420510997699,3.2262952757326193,0.35891450213701903,-0.18131352107396667
10.728511096,1.1539294871703218,-1.0507788085815957,3.159101361121607,2.7083017692411278,0.33620389748359464,-0.186904997705168
10.928517643,0.5464526258046422,-0.7726039783163803,3.07953053116898,2.27419925093238,0.3338800434685189,-0.1841717664687611
11.128507137,0.16052189955844898,-0.2050462192476089,3.193118065689517,1.9464040265744575,0.4454369047353921,-0.05516190925262793
11.328511071,-0.02726026650555071,0.3798484066879743,3.5381943497953037,1.9701633945212547,0.4094939501888716,0.11533955824215522
11.528503632,-0.4365740062938833,1.0496169604217238,3.511228130549912,2.2416565666124733,0.26726469114913,0.1686455383734457
11.72851697,-0.9268374724053107,1.4343764123572227,3.3569954029310463,2.6900306626490678,0.26772180043668264,0.19178946309904035
11.928507687,-1.5182977977929015,1.5256523666376602,3.1202740857775337,3.2354394207481336,0.3642300901663111,0.16749558726186475
12.128503956,-2.066572234880498,1.491971193409702,3.154026323238278,3.5929506076016553,0.3955915600357928,0.17683119756493001
12.328513546,-2.6188876067298734,1.0505648394464047,3.1668194985580573,4.083529521641866,0.3707485537321418,0.18825011468275543
12.528500292,-2.888520878632209,0.49585048367368434,3.104424218615182,4.547326142301805,0.363079316040058,0.1988762593763347
12.728510463,-2.860887009402287,-0.1769875802418455,3.112348921882318,5.032428769127915,0.36729843532366657,0.20325355523355704
12.928522332,-2.5902732596570277,-0.7401028747244307,3.114956462328653,5.515749643605405,0.4092325605517646,0.21086351296385686
13.128508695,-2.011187274572194,-1.0942720064964038,3.1539481490433854,5.910267546297613,0.4637582209208304,0.21259450826714854
13.328533488,-1.4882388414959844,-1.233585866234431,3.229822248083604,6.433853156182754,0.42261912811830993,0.20912807445847378
13.528502493,-0.9605485445654138,-1.0004902159519928,3.238918366764411,6.833052376003892,0.4022933738026582,0.19105613868787824
13.72851291,-0.3265200351136283,-0.5806439169309936,3.1437967254402888,7.2761542655371745,0.39883233403795415,0.16876988008209368
13.928521048,-0.11791063668582606,0.08910211984061076,3.304397814014213,7.515859093247102,0.4421359547652501,-0.009853153917144843
14.128509938,0.22238142562109145,0.6665877191421725,3.4565167316669174,7.25875058964357,0.3992885808548612,-0.1376002663579238
14.328512907,0.5359948320981235,1.1781698053302048,3.4200743429178564,6.97953010855247,0.3422133303924577,-0.16695124032997144
14.528591721,1.1757577348333117,1.489755862210138,3.284521681743288,6.499805894651407,0.35338206611398304,-0.17412771048977885
14.728510059,1.8355181257728486,1.6010323152376689,3.274150401188249,6.023118900798902,0.38171753882047144,-0.17468516552479668
14.928510096,2.5047885377078005,1.3255987079075757,3.320782289651549,5.648410349518401,0.3796682500402521,-0.18587745582066514
15.128525119,2.8946352947094365,0.8068508015764891,3.2240618362859212,5.148080067574825,0.38246024074227797,-0.1945459634331464
15.328514051,3.054521022786811,0.17031042866458823,3.20217137819583,4.761939326946498,0.4100193585740574,-0.1967803181737135
15.528496227,2.9294767673354354,-0.4770769876141664,3.1938758883202336,4.230847968388455,0.4231452783338802,-0.19797239760821703
15.728510314,2.6425154056068183,-0.9025254117567287,3.248293857240893,3.8532578385533487,0.4183452602526044,-0.19087974350824866
15.928507206,1.9548805648182646,-1.2331117672149194,3.254527370532492,3.389525906589662,0.42279633267147587,-0.18906205224378012
16.128512145,1.324833981025736,-1.3114523750649205,3.2464152100408215,2.867717548128653,0.3729228787410716,-0.18304874520263614
16.328512521,0.7640554309575724,-1.038550402218724,3.207718726174007,2.5341500352954367,0.34204506319522593,-0.18750286954279022
16.528500097,0.36462526735286793,-0.5933692153655501,3.0829737626101816,2.0785871951684594,0.3654771340144762,-0.19102825900395803
16.728506433,0.064840775898174,0.03465331215376019,3.413339647831275,1.8894016162295062,0.46773765789390287,0.04865277889279413
16.928515371,-0.23847884889678864,0.6456001872297704,3.555359636182664,2.0733516282753923,0.31467544338879244,0.1386571962277824
17.128511208,-0.6540656114118452,1.1684775661409141,3.5230329996427105,2.491930516753067,0.24650426518909066,0.18154782755072818
17.328649777,-1.2150430170898006,1.52161857316387,3.1606100853149606,2.9153690094567506,0.2826834961456909,0.18482824404611758
17.528515768,-1.813894298269788,1.4924152696931279,3.1890701476506655,3.397967658396361,0.35835742259084885,0.18242194861967612
17.728506756,-2.3445991569463747,1.2308601562587116,3.130847137628197,3.863665872166184,0.36411240253074667,0.1977865305982318
17.928523048,-2.8544126631622797,0.7449651894851795,3.1548388963403564,4.371324757389873,0.34478829326175114,0.20812160779362235
18.128510944,-2.925495813127631,0.1689448368102944,3.0809129766292545,4.779814365733008,0.3724696410305047,0.2110387670319419
18.328524944,-2.767448727770889,-0.39219691169138626,3.049681156644443,5.193259306705704,0.39258632203266025,0.20582615183074765
18.528496166,-2.416123889870716,-0.9312023690836492,3.1646292893730252,5.749306212198955,0.443310139249625,0.2152454173119987
18.728511423,-1.8009157654677879,-1.1041010092534764,3.2066994533097066,6.150966422757308,0.45632591345185153,0.21551592748927087
18.928522454,-1.1335453774087654,-1.1631900007061877,3.268308739051973,6.655086097932402,0.41024014486924165,0.20083722346353147
19.12851097,-0.6296120159641683,-0.7847898770783752,3.247117156541738,7.1048307383238765,0.37547981203072767,0.1908515411378568
19.328521081,-0.2611084645711016,-0.3194447314566544,3.150330736993171,7.48148598909357,0.4051164489989709,0.10509872711319947
19.528508842,-0.01864176080250763,0.3519866982827891,3.4633294436813387,7.449133201949157,0.43843801219288375,-0.08994292853393099
19.728528591,0.3296400218413454,0.9591550213753102,3.5869321498266338,7.156721302737724,0.4857624382707256,-0.1554831603746695
19.928506354,0.8270968833522767,1.4375141476843256,3.489959744744854,6.807917394864321,0.32769658139058666,-0.18291915326899452
20.128514298,1.4096309289648148,1.6764206527093923,3.3387647040972204,6.2532021529361215,0.37375619650354686,-0.17701003746257318
20.328513385,2.169353168854452,1.4753854365423316,3.2415817422187567,5.892121182507672,0.40085152219835357,-0.18202551687342902
20.528497007,2.6339708887662727,1.0238499927614546,3.266050095608765,5.4178169869257164,0.4000968975630211,-0.19249606679492479
20.728516441,2.918161492653453,0.4755734525349678,3.219534492996981,4.974678578977354,0.38633308525685406,-0.1930836709325267
20.928509214,2.999835941759265,-0.17531202749800506,3.2561873101644125,4.537543009096801,0.41805912128755507,-0.19348154690161143
21.128508316,2.732687052275431,-0.7040151685854877,3.226064209308999,4.089375076129064,0.4148183544040444,-0.19218672877496765
21.328516633,2.2134642384993466,-1.2230481162696836,3.2848524168596693,3.6068654886746163,0.4086344724285581,-0.18371117128626002
21.528500667,1.6007256395537035,-1.3138162383564698,3.228678074162941,3.163632319363026,0.3848930944207604,-0.1842052567100942
21.728501741,0.9226331474132545,-1.2001071921318933,3.1310502855877913,2.6384693047373378,0.17928490012420645,-0.22731169469706863
21.928507227,0.44351146856306944,-0.8675268846750797,2.856645013563453,2.1401609246536344,0.38077312180369677,-0.19440868721690938
22.128508156,0.21337242499171064,-0.4111262646558526,3.2831123649165956,1.8937705371859794,0.5298020454351836,-0.031209842200143622
22.328519558,0.022421390401288432,0.3071006125692709,3.511128625162708,1.9686483766740028,0.3813281225765845,0.0937703358361429
22.528500108,-0.4315425980757278,1.0004446386750052,3.5871534122285706,2.2937540911838945,0.273092821458956,0.16761376613994244
22.728508419,-0.9530766151029105,1.4324519826436486,3.340088703907185,2.7686696676629614,0.26140356194589176,0.18864039608278052
