time (sec),x position (m),y position (m),forward velocity (m/s),"heading angle (rad), from x-axis, positive is CCW",throttle (unitless; -1 to 1),steering angle (unitless; -1 to 1)
1.009688771,-0.18348906136121645,0.3854462639235463,3.4407308469576474,1.0191156572801903,0.6132061298770984,-0.1538804550545086
1.049704415,-0.10610159627853182,0.5004549947583604,3.4794158980951417,0.9654978961393018,0.531164489826551,-0.1647616076100954
1.08969008,-0.021880196021201684,0.6119816027959251,3.5032634239600196,0.9017683380042552,0.47999562811292606,-0.17692265959504616
1.12969955,0.0460151234614867,0.6927642253736914,3.515924799801991,0.8523845779378297,0.4334747452117904,-0.18636818719364434
1.16970275,0.16799019331266923,0.8202736230691365,3.521883348875172,0.7613949960950283,0.41471285493984134,-0.1945176832178347
1.20969069,0.27302052606661453,0.9139074466384568,3.526397155538819,0.6784126363963756,0.3679004453574307,-0.1983989426100339
1.24968541,0.3840075690843314,0.9992725423958134,3.489701008761875,0.5955345943572238,0.3422009912806881,-0.20880529679552445
1.289687271,0.5005799741115842,1.0748803097101267,3.464458279778252,0.5093382485154953,0.3203672042110002,-0.20827058151850375
1.329689994,0.6220261724164765,1.1402203556062847,3.416286182599002,0.42241136156690506,0.31494257809510295,-0.21522624955089362
1.369687278,0.7472581322148028,1.1944742559768793,3.399616435839086,0.33212540948604374,0.3016001525032509,-0.2177764495103767
1.409689607,0.8750993721834425,1.2366743134251832,3.3546765902655316,0.23771829233906003,0.2959583146221426,-0.22042603430953164
1.4496879470000001,1.0046737786738527,1.2668342142080091,3.2984982357222576,0.14734500417290852,0.31073586307144047,-0.2235654978122327
1.48968539,1.1352173535099075,1.2843527383358717,3.2753716900441923,0.05969949476493767,0.3324170290342682,-0.23102788984237596
1.5296900070000001,1.2653636611443455,1.2892576960393516,3.2516642610829405,-0.03004712049667308,0.34001133115659365,-0.2341086163221543
1.56968921,1.3945777603055685,1.2821124036826066,3.213478377761982,-0.11983812393608,0.36719173389484844,-0.23897593960056296
1.609694055,1.5215038229414088,1.2633204065582695,3.1998495032206655,-0.21174824371532897,0.3981021883853986,-0.2444826696367871
1.649699991,1.6453110356317193,1.2326412642921762,3.200131188699365,-0.30778849451879325,0.4167955880372426,-0.24653331673807882
1.689706146,1.7654376488453953,1.190770207308718,3.1671712647317216,-0.4056166453968266,0.4338406268386783,-0.25071801964814067
1.729694571,1.881088938678017,1.1373722446966967,3.1854981068625814,-0.500491165771465,0.45740949982634643,-0.25412960154860054
1.769701068,1.9909926839867296,1.0737524829314475,3.169411437420513,-0.5983537204423769,0.48439578700043506,-0.2598470684636928
1.809685945,2.0951076339367543,0.9995958870202845,3.186620846781535,-0.692885103279889,0.49487060880750317,-0.25662861431257017
1.849689815,2.1915821011667025,0.9157122445663576,3.19534207566588,-0.7862904972479011,0.497360482866825,-0.25450383940788135
1.889742993,2.2796423802225236,0.8228585580000415,3.203345910958478,-0.8827617872350785,0.5249326349599338,-0.251099674884055
1.929693285,2.34001030545048,0.7476624737983781,3.2032715499020337,-0.9522980537954888,0.518750961179734,-0.24690200431764175
1.969688716,2.4290517752997656,0.6131509380851666,3.2326784109226625,-1.0675261548450439,0.5065826162017723,-0.24539218098541438
2.009687161,2.4889907507475066,0.49836780481646675,3.249768329419025,-1.165138105036005,0.5070160533506741,-0.2432016268921829
2.049693492,2.5379454577055283,0.3784135046404254,3.2417302873544087,-1.2571408469966092,0.527168905914811,-0.24911551164980936
2.08968853,2.576709681096828,0.25368716413284503,3.2530634609127715,-1.346948790448666,0.4886262168106452,-0.23768548629497785
2.129685886,2.603043705800073,0.12619855424495274,3.273072826528245,-1.4354296602343337,0.46794236889248664,-0.2352703871429807
2.169687061,2.6180398167503998,-0.0030811323048830627,3.271743316057193,-1.5284363899756204,0.470072962163677,-0.23521940707022007
2.209691717,2.6214401475429856,-0.13365446901484904,3.2552243258388143,-1.6146531138784548,0.465091786222784,-0.2334072605883355
2.249702453,2.6129505477864474,-0.2639578316148611,3.2637749723720155,-1.6979057242062785,0.43056981034052955,-0.23348126767579527
2.289684067,2.59342878662427,-0.3924763211757688,3.2578944927345543,-1.7877552254793678,0.41681970026338133,-0.23292639771984724
2.329685951,2.562398207953478,-0.5186296866142317,3.2383466066501603,-1.874886075258456,0.42203970139268976,-0.23515701756965432
2.369704597,2.5200669516740444,-0.6414043754399242,3.2559225874240862,-1.965547656434682,0.43062058537923426,-0.23839007819628175
2.409685186,2.467300001695035,-0.7591514169899839,3.218714184949776,-2.0581253121338876,0.38160611903745145,-0.23140993809586183
2.449686584,2.404364914483983,-0.8716440977080179,3.216773414542092,-2.142386748718548,0.3704394608093581,-0.23572001369148204
2.48978887,2.331785743312362,-0.9775047104798218,3.1959746285640844,-2.2298448521200704,0.3596404343712222,-0.23953789800324327
2.5297858939999998,2.2505078008616555,-1.0759326334872337,3.190757201599862,-2.3194265360343205,0.35701337818864054,-0.23799375109024704
2.569690256,2.161364850940398,-1.1666255479578562,3.177328671773841,-2.400184846878172,0.33240579434733747,-0.24207676975751893
2.60971136,2.0651864710868173,-1.2487978253868168,3.154597716063547,-2.485628654220159,0.3288426727653835,-0.2461176426254563
2.649703374,1.962638407666239,-1.320995861589749,3.1297618964785654,-2.5793871152744754,0.33344063254846934,-0.24977193189857974
2.68973296,1.855204109745866,-1.3835509655935119,3.1031497107284953,-2.6719788278859022,0.31571389626803936,-0.25911362068526766
2.729689238,1.7429231542190509,-1.4348139775694224,3.078174286304707,-2.7668473170187924,0.3153467616445909,-0.2631482681447477
2.769688479,1.627527170154707,-1.4751242558813182,3.038061404378718,-2.8643734859216314,0.32903144785670885,-0.26465787932014356
2.8097993260000003,1.5094886877193707,-1.503673879256541,3.030077418815173,-2.9629427156239956,0.34569140823405814,-0.2709591061823547
2.849688027,1.3901533656213234,-1.520528616718155,3.01625395677571,-3.0616524797289713,0.3553869847184216,-0.27383347523552193
2.889698513,1.2706909905047414,-1.525337632121974,2.9788840554914224,3.118905250307922,0.38582573066557097,-0.2757992890121233
2.929691418,1.1510784497037099,-1.5189818927452403,2.9909467165130725,3.022570590234474,0.4190401811892035,-0.27677642710343314
2.969687633,1.0327693763706995,-1.5007686485215594,3.002936488573008,2.9237166698540373,0.43411929622336437,-0.27289882354056655
3.009687771,0.9165209128508852,-1.4713975404876587,2.9924759633901785,2.826409502130652,0.46685847023377924,-0.2733244847855933
3.049685361,0.8030847712357758,-1.4307955420620357,3.0280923867264007,2.7273950224787558,0.49666774427509414,-0.27509278296414513
3.089742785,0.6935557802516252,-1.3791525486897958,3.0313669144098334,2.623138858639156,0.5411671678360641,-0.2746164928995244
3.129689194,0.5885806185588693,-1.316903531811259,3.0529856246376563,2.5151115538064017,0.5399931465137905,-0.26882359370031633
3.169689106,0.48984576292155857,-1.243758823379776,3.085191017100588,2.404847667375085,0.5513503302811679,-0.2652040590211523
3.209689509,0.3984472364108482,-1.1609951061692412,3.106434599943093,2.2895841711395564,0.5853123656912307,-0.2591145048885872
3.249697358,0.314871033912956,-1.0689801963096908,3.1056439271820344,2.1839459958598697,0.5965708674626526,-0.24076067466447573
3.289686342,0.23893284432101536,-0.9684448672017942,3.1476588457325505,2.0854497396805347,0.6171799600189567,-0.19618805271960332
3.329698708,0.17112148848624062,-0.8600924413015864,3.2378536466437504,1.9964892232092046,0.6416474230595035,-0.1497738379034699
3.369688085,0.11028255538895125,-0.7446486644785668,3.3122607960349835,1.9309149335119082,0.65,-0.10639281131472328
3.409691277,0.056350410242471546,-0.6226354164751983,3.3793724020828098,1.8905559128783314,0.6381158024712567,-0.06751802318957303
3.449685523,0.006847416614590647,-0.49352729101960086,3.480805845635904,1.8929287837058004,0.6125488192482729,-0.019121323520033567
3.489683374,-0.04119774394808739,-0.35914531015508555,3.5949039977803054,1.9204253262592643,0.5973066035925677,0.022038358041040238
3.529685932,-0.09051923479683342,-0.22177743665610775,3.6606120584348516,1.9491004897535553,0.5900637662184428,0.055240552414893625
3.569701941,-0.14410407289777022,-0.08393709972553191,3.7094301195411905,1.9753914124386922,0.5033129477823723,0.06808571011567327
3.609699185,-0.20279652165121362,0.053696714839032954,3.74448776695593,2.006346024554146,0.4472072790257152,0.0803310010879384
3.649701673,-0.26668728397971014,0.19009941022784801,3.7793273771122893,2.04587652445438,0.4135414420117956,0.09307368256277976
3.689688555,-0.336042488862944,0.324500842600694,3.7858814516519828,2.0891591727003127,0.37146236429072704,0.10406281619232471
3.7296837590000003,-0.41110273706386535,0.45603570848766356,3.788202492683395,2.138236356672896,0.330999144511639,0.11876223800435654
3.769684528,-0.4924214914022866,0.5835668982118,3.7788430463201808,2.195199880822781,0.29913231198500645,0.13186149291344146
3.809684751,-0.5803021141063975,0.7059056627893158,3.764842666303731,2.2595949602749537,0.28589485455908636,0.14468918128212202
3.849685493,-0.6745886081634973,0.8217438430958635,3.7187946406158745,2.335908127603353,0.24886924802028265,0.15727219447144578
3.889691778,-0.7753317559544862,0.9297878245750002,3.681940283372234,2.41982497479528,0.22545179137255908,0.16535595370761585
3.929686175,-0.8550341983646822,1.0046686263319649,3.628778531233596,2.48519020985417,0.21286410596175276,0.17212666532915896
3.9696884050000003,-0.9947364144896844,1.1177463640100682,3.563987946410417,2.595608125371087,0.22086599397118223,0.17573197209189187
4.009686989,-1.1116781577238501,1.1954698372081405,3.4847886320482773,2.6888736968381384,0.19901271582676197,0.17680053636576581
4.049689267,-1.2326410104955883,1.26153008108109,3.418836906254441,2.783318596267536,0.19648112299077847,0.18546305897051266
4.089689395,-1.3565690471366705,1.3151299952808702,3.356140331782369,2.8758274512240587,0.20143092830726034,0.18181102920521375
4.129686627,-1.4823295922012822,1.3562595933268307,3.2909655435704908,2.9690713100966826,0.22792847644807473,0.18369158926595475
4.169695159,-1.6088721800278933,1.3846422329328028,3.229657072539539,3.0548238486480384,0.22355921585835545,0.18836975866722033
4.209688016,-1.7351845788917508,1.4007266382456078,3.164638322307538,-3.1350625090229323,0.23298514466539763,0.19123231312422484
4.249685321,-1.8603385125400185,1.4042803607128018,3.1118083001140486,-3.045008650920057,0.2566488368977559,0.19440599677987086
4.289686444,-1.9834416974099285,1.3954733011304552,3.077044169294441,-2.9599122685276646,0.28425408517998996,0.19964927898793827
4.329689246,-2.103026006483827,1.3754695068772622,3.038281854625114,-2.877007476636383,0.29287770077877895,0.20359363980133421
4.369687614,-2.2195279857467454,1.3443494427654217,2.995068198740965,-2.797851533619817,0.31190470338894105,0.20933576961596018
4.409700243,-2.3326936774685816,1.3029095658646752,3.0237560097777005,-2.713838318332807,0.33959618069790637,0.2167069757967536
4.449697913,-2.441187450032417,1.2518542297523099,2.994374642154592,-2.6245578076996345,0.36330565762291167,0.22487680788071743
4.489685897,-2.5449253875013635,1.1912498942179164,3.0037047994134416,-2.530022276242909,0.38172718707474423,0.2316083488175023
4.529739494,-2.642323775855567,1.1215616731745208,3.0010984316340212,-2.4336576457244825,0.3871808347201929,0.2366310632422349
4.5697018830000005,-2.711314839895755,1.0635008386921327,2.995541751848852,-2.366924653641677,0.4269931765519638,0.23918159037904535
4.6097049850000005,-2.7961063339320633,0.9785871796247122,2.9912348021824764,-2.2673033407521848,0.4358256729089676,0.23457026450406798
4.649746247,-2.8913901206846697,0.8622730403381419,3.023451956974152,-2.1465800014145455,0.44879595362772307,0.23545509199656342
4.689684452,-2.957490936965772,0.7605732484879926,3.04605984371984,-2.046872635240565,0.48050156685467593,0.2451104452066765
4.7296978460000005,-3.013728255530518,0.6530060599541353,3.069170216782342,-1.9440019867560818,0.5216843694976676,0.2434480062538301
4.769688192,-3.0602345722146618,0.5396777526933306,3.0513225526788172,-1.8512304511247064,0.5065583727808276,0.2248930761078014
4.809686845,-3.096187187754697,0.42165734699425683,3.111135685575006,-1.760396052380537,0.5101117049029955,0.22353068921031205
4.849688771,-3.1215584324631553,0.3000995666341607,3.1513997969284073,-1.6653307262964585,0.5275072313815515,0.22077995714051202
4.889684781,-3.136526655479931,0.1753244798898166,3.161857227069508,-1.5736433604943318,0.5597324517081912,0.21717465020632004
4.929784992,-3.1401102064499775,0.048795684254493654,3.171826054148977,-1.4793019159954044,0.5375690831463529,0.21532564908627658
4.969697915,-3.1323629925289582,-0.07847924839442262,3.1993316497277102,-1.3834580231371074,0.5345312060726664,0.2121333082365596
5.009719758,-3.1193901107156443,-0.17404945786044204,3.2080229310325303,-1.314497439322024,0.5547523206570951,0.2097687873704798
5.049714739,-3.083373721878569,-0.3313049047049969,3.255264462825489,-1.2020683016993248,0.5455600272893696,0.2050589353260604
5.08968561,-3.042007272448435,-0.45430919132110664,3.271269211518329,-1.1143031990366485,0.5344109783894043,0.20055975735215462
5.129697111,-2.9898883643269554,-0.5739484771240849,3.2753579697246433,-1.0292105237487714,0.546249075215997,0.2043504302144719
5.169696617,-2.926678894210734,-0.6902777669296302,3.284987602050939,-0.9398098932844154,0.5443959742627242,0.19502544145338183
5.20968707,-2.853855651518358,-0.8004065990673926,3.320996075408236,-0.854608687034436,0.5098026471568106,0.18840020091313875
5.249700576,-2.7713120980007995,-0.9043643999274286,3.3233709409678807,-0.7717350729973046,0.5047085877186607,0.18901302600251071
5.289695199,-2.7033938917781057,-0.977550773086569,3.3253141708028466,-0.7143488320741032,0.509562093456222,0.18845191452936116
5.329704794,-2.58047461149558,-1.089581931834375,3.341940050599809,-0.6179941980298613,0.46661696235550415,0.18773910784125172
5.369687871,-2.4738859262295962,-1.1697251557212207,3.3479941735862626,-0.5380960932444426,0.44778821056584867,0.18729329740199124
5.409686926,-2.360969606890213,-1.2408521260365133,3.3347722188596722,-0.45657397808360867,0.4445519448156977,0.19496391777115438
5.449686478,-2.242755357472479,-1.3022344734551203,3.327498393048975,-0.37583914255007805,0.43640130086662304,0.1917911976551095
5.489682576,-2.1201487158513794,-1.3534087708677704,3.338722399320101,-0.2903047810888566,0.3925136992976761,0.19187275059527895
5.529686511,-1.994164210103639,-1.3932280004870479,3.302729051423734,-0.19946957952072858,0.3817066869443332,0.19373230357568744
5.569686778,-1.865658471454184,-1.4219527501003655,3.284554176285793,-0.11014737232007196,0.3803522271871945,0.1964787258852546
5.609686569,-1.7358665228609678,-1.4391768649765826,3.276535574663672,-0.022762713334420114,0.3575415351178029,0.19273504090009208
5.649686423,-1.6063846779154758,-1.4447303766646171,3.2380391824779946,0.06379964198902506,0.3454739753790057,0.19356420556642526
5.689685623,-1.4778525958268094,-1.4385820520826176,3.2071916423107565,0.15564695974541892,0.3396942608740598,0.19598179912525374
5.729691526,-1.3513353808389823,-1.4214924998338077,3.1834423442738644,0.24402529330975653,0.34405822546921894,0.19963026330558592
5.769698877,-1.2280766738203759,-1.3930192475256007,3.1522473464987413,0.3365800623002266,0.34091664245766434,0.19980119952535452
5.809684252,-1.1089079836342703,-1.3540207014204837,3.128227649411003,0.4312653773428688,0.3406570974617199,0.20204019235968948
5.849695537,-0.9949997919109466,-1.3042157183426808,3.0951854174600086,0.5266212534532306,0.3520223954333375,0.20602950114083562
5.889685848,-0.8871060202849358,-1.2445129944214561,3.0824846270820534,0.6195043249902257,0.3809784959820353,0.20871712937794173
5.929688905,-0.7852060462205065,-1.1755722105764563,3.0750198953411627,0.7053884134438959,0.3922817231460876,0.20350511404029806
5.969688169,-0.6901341231713434,-1.0976442858839122,3.069652234363764,0.79158022510758,0.41855496974633216,0.19831053240768806
6.009801697,-0.6021094293257493,-1.0111544812364004,3.095882381603688,0.8770181592476775,0.44565560366118195,0.19349075105708444
6.04981298,-0.5609822956066787,-0.9650975096187399,3.0847764635571724,0.9188591183216885,0.4862039595642767,0.19120884841733296
6.089685171,-0.44715051769425135,-0.816001797408622,3.161231624633126,1.038300624192777,0.5372505681456057,0.14632095550099736
6.129685264,-0.3791179914443627,-0.7078291033505943,3.221467818631822,1.1020950063554105,0.5814097969249092,0.10195790488459217
6.16968923,-0.31640748762813203,-0.5928715956744958,3.2987766849501354,1.1497314035986255,0.65,0.07153339300072291
6.209689131,-0.25751090939744375,-0.47175591985130666,3.3930544868489196,1.1731064857113043,0.6011088511550121,0.03296086049785135
6.249688634,-0.20021853979561638,-0.3458723098985254,3.5011532522569078,1.172143380548101,0.5911058115593995,-0.008129489717187936
6.289687913,-0.14191737899430343,-0.21641441593742955,3.591186376869445,1.1627981753280254,0.5818171036922106,-0.04440892186453278
6.32969809,-0.08163027021608796,-0.08447958553799392,3.6542968191505794,1.1529500138183981,0.5405166520142688,-0.07615113630707526
6.369687076,-0.018358013565898345,0.048819515260797246,3.7252287130930974,1.1351452204777819,0.4909421175600984,-0.09239761894917618
6.409687981,0.047938191592352825,0.18230157460659768,3.7509733397878424,1.1110648120920568,0.45127779696075976,-0.10652821342343878
6.449688498,0.11786376385624846,0.3150279418104971,3.7485686160231033,1.0792435645534195,0.4249166264288831,-0.12099365020217474
6.489688599,0.19224684606714598,0.4458939670454389,3.762165755627138,1.0340870455110378,0.36356035044240137,-0.13521949743872588
6.529687341,0.2719962951362713,0.5730084447890038,3.7519207312154674,0.9753592501085299,0.328640427371375,-0.15042824252877668
6.569690336,0.3581117802127902,0.6948454762300416,3.718061376225094,0.9067469680832524,0.3108708100160608,-0.1642089060425326
6.609687856,0.4510003668737122,0.8103427723654218,3.6904980606511137,0.8332606752798826,0.2959812729960925,-0.17450870682763975
6.649687849,0.5506339443491011,0.9176554074151162,3.6313813695128374,0.7555626276917125,0.25133121023398036,-0.18382740313004542
6.689685747,0.656009029819234,1.0162705729742079,3.590988292202795,0.6715056673921372,0.23773384023038321,-0.18779994664830896
6.729746337,0.7674525775366444,1.1048969888181304,3.53640706234409,0.5851255532166552,0.23118754301065683,-0.19122588495980855
6.7696877650000005,0.8841529887360079,1.1824167950310096,3.48302020889446,0.49504352911498484,0.23259408989970165,-0.20218122567935415
6.80969236,1.0050173230053945,1.2481659648888412,3.4259628273177722,0.4046550294117755,0.22339775211948537,-0.20449956055128432
6.849701239,1.1294138933084201,1.301629783678387,3.365593817147649,0.316546848210058,0.23054916718290636,-0.20713441830191312
6.889689888,1.2561029274889515,1.342855382299393,3.311878200107251,0.23167321466452406,0.24927929587949502,-0.20901683229899978
6.929686018,1.3839600897745188,1.372092885629952,3.272627055398711,0.14400798535404918,0.2746667814966854,-0.2180948808636164
6.969686474,1.5125115583581317,1.3885018052165186,3.2176969935897954,0.05253006782996179,0.29070098036032094,-0.2255213453705177
7.009690975,1.640676697708975,1.3924512101541022,3.210967399801971,-0.03549950626445774,0.3215696709497203,-0.2343027730179854
7.049692546,1.7672592496917092,1.3846191640503542,3.165485103802563,-0.1315590389047674,0.36335631417039294,-0.2451699363186031
7.089687646,1.891495199280513,1.3647432889983535,3.124272313204321,-0.22738050820897096,0.38045998824630406,-0.24818831233022215
7.129686494,2.0127651726725206,1.3330707545597487,3.1283681831915677,-0.3245271384159031,0.39428927322543017,-0.2525132567559897
