time (sec),x position (m),y position (m),forward velocity (m/s),"heading angle (rad), from x-axis, positive is CCW",throttle (unitless; -1 to 1),steering angle (unitless; -1 to 1)
1.011061551,1.7135294269691097,-1.3123521870327226,3.1231200351166573,-3.068992765623561,0.44078887914562864,-0.1927565090259142
1.051077148,1.5888394860383102,-1.3196310760896395,3.125149337719387,3.1248781357999604,0.39330325573629527,-0.19324616360097963
1.091133408,1.4645082697542227,-1.3161225396744813,3.1229546381255937,3.035284763723095,0.37781627788564265,-0.19331465012007612
1.131058667,1.3414691956481664,-1.3016068427712417,3.0741593870050146,2.947425498067584,0.392006729974458,-0.19350932797253578
1.171055502,1.2209049216563932,-1.2764587693947507,3.0856189165168364,2.857190417573412,0.3680014504193083,-0.19074747013264276
1.211059126,1.1036870515670836,-1.2407909893467763,3.0565329578065255,2.766460725730612,0.3520089496003695,-0.19237733077676827
1.251056293,0.9905668615944281,-1.1951473986953798,3.0535161120216747,2.67566798159411,0.36619949008681835,-0.19518561793506253
1.2910538,0.8828250523035647,-1.1398128747583047,3.0177395558554307,2.5853775993981354,0.370813410621567,-0.19737796954946327
1.331055849,0.7812724712600081,-1.0750059267609235,2.9919228153001063,2.493242502068737,0.3511558490810082,-0.2009210462048118
1.371056661,0.6869219640473474,-1.0021253381675985,2.9765959828446737,2.4046630539633234,0.34767911056496714,-0.2020994429548627
1.411057355,0.6004267454596344,-0.9212477273278326,2.960322862158047,2.314647260498817,0.3686945615270837,-0.20360563918840877
1.451092906,0.5218554904712968,-0.832884220415983,2.9764803196166296,2.226279995873685,0.3979699722147312,-0.19191987586688017
1.4911263670000001,0.45055712312540486,-0.7381271676077883,2.98310819782334,2.147159138380545,0.42856003002878346,-0.16957378484416855
1.531059549,0.3861581723136074,-0.6369972242562421,3.0026260578000863,2.0781998283881435,0.4597583508318689,-0.14619953965886484
1.571052496,0.3275337709989985,-0.5301865880487189,3.082912560144701,2.0202405266813885,0.4792260839584479,-0.1228850561498838
1.6110491439999999,0.2737443135931066,-0.4182967011686325,3.1363394916698373,1.9763872879012252,0.48718584864220454,-0.08650809583249564
1.651055887,0.22293454198600085,-0.301843078183299,3.1967701581133334,1.9493562714498787,0.50158421841829,-0.0417544021325247
1.691055836,0.17304961154486764,-0.18184483513430844,3.260324470266392,1.9382983499434312,0.4998227112057237,-0.0006812672687851644
1.731054182,0.1223278623811724,-0.059150639123586174,3.3429260345468377,1.9418922897543907,0.4889232825282732,0.029327282619316445
1.771050473,0.06990915814230474,0.06528767924537437,3.3856403730682336,1.954281806480119,0.4605149399764272,0.060306567695352885
1.8110586670000002,0.014201803878369727,0.19001154834528408,3.4303248571237552,1.9748450322766071,0.4371948706877636,0.08644433825559976
1.851052444,-0.04559345881289505,0.3144931052951874,3.47041016176912,2.0084733556200813,0.4135791451165617,0.10795842102447631
1.8910594120000002,-0.10991676324375374,0.4373682558005358,3.4741691448815963,2.0490656832859955,0.37670993847894807,0.12604884530912464
1.931053933,-0.17974293080388482,0.5579987531606244,3.4844838265722986,2.0981782006930056,0.34531561395970495,0.14435872015442155
1.971053737,-0.2556083315046546,0.6748407985573686,3.4814990937985693,2.1618225162593534,0.323868210942343,0.15896707254749354
2.011055303,-0.3378081628567882,0.7869182440141613,3.46947703178849,2.233200820714266,0.3243188776965647,0.17165610546848137
2.051050426,-0.4265881429837122,0.8932260961498913,3.456460348827755,2.3098943486939834,0.2940261429181969,0.18261507284344153
2.091052286,-0.5221909140956231,0.9924538142614169,3.4335748480721335,2.3946879972708706,0.28515383308853753,0.19033685791015884
2.131069856,-0.6243038677010914,1.0832557695274458,3.419095693817327,2.4868088295864315,0.2903988986859317,0.19594341756006825
2.171049646,-0.7322302349102447,1.1650137120827382,3.370935133546969,2.581642893989541,0.29388289610617085,0.20082756044226757
2.211058788,-0.8458384100861269,1.2363448319163275,3.337819998552305,2.6786982529131214,0.29416812538778925,0.2027487297801854
2.251109043,-0.9640071676120293,1.2963119589054213,3.292372867722362,2.7744060035403284,0.3031012702165866,0.20257239460629853
2.291087927,-1.0860827381008,1.3450764458051458,3.277562651535627,2.865484809398046,0.33598138780517095,0.20133605079360706
2.331053323,-1.210862217001499,1.3818422585616068,3.248484442471906,2.955429909636986,0.34827027215718337,0.19415496071987443
2.371053634,-1.3378985670714856,1.406672544357212,3.2225947259186998,3.0413029995170597,0.36293595577454973,0.19478056512612135
2.4110641,-1.4663305403550997,1.419930088925919,3.2190778081630587,3.1241144745021514,0.3801813518750616,0.19700874179111663
2.45111188,-1.5954824989688834,1.4212494276327041,3.231697372919477,-3.0744582452580542,0.40432395984394487,0.1995665237360983
2.491053566,-1.724456456841253,1.4110748604214858,3.237363421827613,-2.9869388485678954,0.4053658944482441,0.20027108054404033
2.531059664,-1.8521306829749211,1.3900044547311166,3.2431818111876907,-2.9010636882808076,0.4093222895993745,0.20237246575338838
2.571104868,-1.9775848695803153,1.3573221326650589,3.2417000850067406,-2.8182391101103508,0.41868458980464734,0.20384781896521675
2.611060831,-2.100117067837607,1.313794360847729,3.255354247605831,-2.739006448533618,0.4084777031597989,0.2041315042889951
2.651074548,-2.2184204341236433,1.2599809757494373,3.249282771460539,-2.656991095528628,0.4006098629856813,0.20434424682832483
2.691114954,-2.332055204677477,1.196037495491616,3.2720264516592663,-2.5695358530547145,0.4059674130251796,0.20586811609257188
2.731063438,-2.4403475771678744,1.122685259427606,3.274031087486184,-2.480748546874113,0.41658579861522516,0.20842327753914375
2.771056547,-2.5417942581480677,1.0404636622080765,3.257565657208232,-2.3927253575880023,0.395663687800664,0.2094711138627372
2.81106487,-2.6361035653049294,0.9499529822034393,3.2696089809481155,-2.302726750200796,0.3846916869749336,0.20951062544569135
2.851074498,-2.721839745425622,0.8520850938779233,3.2107571587365404,-2.2115325389342484,0.39212051430415107,0.2092306326468918
2.891057705,-2.7990036423525746,0.7467969584926681,3.2527219621398804,-2.1183234359449115,0.38397674411107463,0.20934412465790278
2.931056098,-2.86605923042396,0.636022298801346,3.2190572693460706,-2.02642019452703,0.36596123995631935,0.20761528266143509
2.971052009,-2.9220856741437067,0.5195759688146494,3.202326016147813,-1.934847539614278,0.38395024710780273,0.2060189012501042
3.011077533,-2.966895971270732,0.39903035387251684,3.189905063769057,-1.848369574342329,0.3755264678209844,0.2039159903802332
3.051047715,-3.0016043706705555,0.2755193957252468,3.198101063389157,-1.766816572913752,0.3577575949349947,0.20352202353926757
3.091062898,-3.024907217161918,0.15016995272768557,3.225564003531847,-1.6840136774330656,0.3509955279269195,0.20219390786403252
3.131064072,-3.037182747952911,0.0230607629197332,3.2359765575881068,-1.5971185565087123,0.3532313824276038,0.2030667214450054
3.171052863,-3.037557902713873,-0.10476759442831898,3.26045344410164,-1.5028867037148486,0.3395522036149359,0.20359523565102575
3.2110602,-3.02767301646038,-0.23102313137746083,3.1827988177818884,-1.4105946149919337,0.3030332749801623,0.20728524875502144
3.251095947,-3.006847294163844,-0.35439134259816235,3.108542119604209,-1.3160587787471343,0.28479021054094533,0.21075930517173608
3.291059025,-2.9754681104993352,-0.4743150909358374,3.0870521174355963,-1.2220146844112199,0.2741521672213182,0.2124085577054583
3.331053926,-2.93380765656001,-0.5900105146734302,3.0625791001800273,-1.129505973006005,0.2836325078421517,0.21650103388119968
3.371097053,-2.881758723421556,-0.6999668475417502,3.035647283062237,-1.038008264232619,0.2953321392086744,0.21724536506349862
3.411064953,-2.820182176889153,-0.8037036632420175,3.017241145163363,-0.9464796511339487,0.3001604425800714,0.218773224476205
3.4510926790000003,-2.7493638342259756,-0.9001094560484536,2.9845715549473257,-0.8533225147166421,0.3170894285307251,0.22433213007745284
3.491055317,-2.67043563922499,-0.9888335941315453,2.983204639317644,-0.7672102478786744,0.31549027586075085,0.2272533001070993
3.531084593,-2.5837432766835553,-1.068759800288816,2.9492033481637363,-0.6769974975665811,0.32390448328289945,0.23061658110798613
3.571072805,-2.4905920190273467,-1.1400523448140056,2.9342351433734035,-0.5861714926037994,0.35094712298587244,0.23334369681539086
3.6110638440000002,-2.390963537056228,-1.2023636144998757,2.9451097663420707,-0.4935490270195507,0.37995555370989637,0.2376437952832859
3.65105419,-2.2859639974884978,-1.2553575423407373,2.9455401927777527,-0.4001810893628322,0.3823615163035116,0.2322534980678669
3.69105476,-2.1761411594380435,-1.2984333731535969,2.9715009724601336,-0.3076546442209741,0.40073338965833044,0.23861869524568693
3.731056057,-2.0622088261665867,-1.3309355330596453,2.9586544335886504,-0.21051929253234514,0.4259253559909599,0.24372356870950299
3.771052868,-1.9452840503072675,-1.3523832658137558,2.9756959467934587,-0.11397286019565935,0.43565074601555526,0.25114210661086867
3.811059025,-1.826319486195752,-1.3626039692390512,2.985932139369405,-0.018252226786855036,0.43586539284766807,0.24805401381037284
3.85112078,-1.7063729652058526,-1.3609839937942603,3.016711739846805,0.07799320082078678,0.4591923535603179,0.243079992748268
3.891058512,-1.5856128248930996,-1.3482785273923017,3.0502938505077513,0.16913646748937172,0.4722040448797735,0.24013994905931152
3.93107352,-1.4658097937278693,-1.3241356866731246,3.0647261703691386,0.259246250680274,0.4720549704485034,0.2365317104525134
3.9710509270000003,-1.3471602654268848,-1.288620531680844,3.1128287014378238,0.3528188765778302,0.4743510057692242,0.23267191352232858
4.011072822,-1.2314867439904122,-1.2424400354592517,3.126579987257591,0.44710095009162504,0.48536125701682103,0.2300391703453973
4.051109476,-1.1193070543924908,-1.1850769622105375,3.1611454873184752,0.5433535402839873,0.4760224333788231,0.22370004651790193
4.09106365,-1.0119277402224969,-1.1181145231439489,3.1707019299062162,0.6326196243430938,0.4563667727918024,0.22154345178862864
4.131055647,-0.9104474457548593,-1.0415530436136267,3.188808721593072,0.7227523506704424,0.45988071068732395,0.21930508580319474
4.17105766,-0.815366738586978,-0.956191344682941,3.199333656429813,0.8102452640806923,0.4667002824380265,0.21612320149038164
4.211067249,-0.7271874812848066,-0.8621055508485401,3.2275492726522828,0.898425243147411,0.47303369636201453,0.19341912469066738
4.251049755,-0.6460832606399951,-0.7607312359081784,3.2565634358583617,0.977168589801461,0.4852314516261395,0.1701742824484398
4.291053131,-0.5725727261074421,-0.6518086350345037,3.3028434183870323,1.0499640369813634,0.5001365849807511,0.1474449714754487
4.331058119,-0.5055566503253289,-0.5366783896317796,3.3437297867226774,1.1061442569825473,0.49943960325350456,0.11830533919344473
4.371057057,-0.44399295688964696,-0.416157663994903,3.40414158844902,1.1367499222020871,0.5096955814442458,0.0706676484408063
4.411071037,-0.38555574619622074,-0.2914988383801803,3.4714172051410648,1.143636336234417,0.519476670348887,0.02488795126067997
4.45111758,-0.327446498861798,-0.1635286213400899,3.533105199003893,1.1390126360478643,0.5373531386292727,-0.015160277710597195
4.491055568,-0.2677209119269204,-0.03358404477573983,3.5879789154712953,1.1257166315919875,0.5017888103136372,-0.04265548527962166
4.531056442,-0.20436171390457367,0.09649722168024888,3.6158157988215054,1.0943577554794441,0.48056054305784207,-0.066789846156371
4.57117568,-0.13608897727366107,0.22567309650706455,3.6608918672125355,1.048432986006652,0.46801494724077725,-0.08732335984358044
4.611059447,-0.0617834123507006,0.35291587926208656,3.69526335855953,0.9973328935389879,0.46472603263018153,-0.10490735161733461
4.651052953,0.019091678628493494,0.4768655886218947,3.7114048020498553,0.939093088217441,0.42250468726305646,-0.11233869627606145
4.691063897,0.10670401694374657,0.595774507080906,3.6870928295925274,0.8694729280585433,0.40125042856784954,-0.12248884226966725
4.731096181,0.20142548890151438,0.7084889669167876,3.6637365153338313,0.7976914645183635,0.39291274568816825,-0.13107681236672003
4.7711152850000005,0.3025539863084712,0.8139158550140915,3.639567268197147,0.7206134607186166,0.37178330824519423,-0.1312400834592892
4.811057223,0.4101725282857714,0.9114020011183379,3.625441781205993,0.6412678016104862,0.36158575314319047,-0.13431417240010154
4.851056681,0.5238460619397631,1.00011597190753,3.584079766781061,0.562635059625453,0.3609059007279237,-0.13736743755893438
4.891063461,0.6429333932572843,1.0795100689399222,3.5580368687384336,0.48563999632569305,0.3709157402997919,-0.13897873297145646
4.93105394,0.7667371796836302,1.1490703384771088,3.5341073792810684,0.40748435929397697,0.349772138467095,-0.13375187749171577
4.9711156,0.8939809907823446,1.2079081582352036,3.484275561735741,0.32441149296782706,0.34160902879931465,-0.13554390324871213
5.011066935,1.024182562568427,1.2557658984075406,3.459439559513576,0.24525625403634407,0.33886146772765036,-0.13876597990190653
5.051105248,1.1562177108691645,1.2917778336570802,3.4092983492678295,0.1709182340606301,0.3468347556625045,-0.14206928437246952
5.091056932,1.2893782371770486,1.3167726019927835,3.366261439581111,0.09409405546413238,0.32329695345149595,-0.14255036832949702
5.131055274,1.4226776781092536,1.3309335081067333,3.327152839790971,0.016827839801846444,0.3115584862349066,-0.14431916973779965
5.171107362,1.5553132618290233,1.3340252983698349,3.3045062139644656,-0.060800076152178036,0.3194921934421314,-0.14852716830842516
5.211059002,1.6859754296662248,1.3264889929034913,3.266959473916428,-0.1380929810841139,0.33583308492203745,-0.1522367178773786
5.2510589450000005,1.8142991641804462,1.3081205477964046,3.220820596704117,-0.21428262994300978,0.3041817729229851,-0.15389937734494824
5.291058336,1.9392306469753813,1.2798589880922124,3.1826275418475363,-0.2919382162664288,0.2934863781484694,-0.16032193146844098
5.331056549,2.05984212755732,1.2417436001464102,3.1498507345157782,-0.37493796285996295,0.30170136472021314,-0.16763802392483856
5.3710922100000005,2.176108611415993,1.1942055051509197,3.1269583568193067,-0.4574902685652681,0.32696176698928325,-0.17562125735151043
5.411055638,2.285960655727112,1.1369988763481127,3.099648190772978,-0.5473193923991598,0.30228872547727714,-0.1839798282730976
5.45108364,2.3890586102802214,1.0712024174395907,3.0564885762681797,-0.6418867391081202,0.3121859493850044,-0.18990175996566735
5.491055702,2.485118714088572,0.9971233398159196,3.019505672642206,-0.7309748567559964,0.33252060912153625,-0.19613420190766215
5.53111224,2.5726208933503254,0.9153024386702298,2.997362308092468,-0.8235606333564263,0.322380330510191,-0.1996984683053664
5.571124805,2.6517539378889783,0.826589517298335,2.9546044547486225,-0.914545329546141,0.3341712671593184,-0.2003903101286678
5.61105757,2.721867082513914,0.7318756970077418,2.9508738430907853,-1.0064256289793727,0.3564200293813104,-0.20309217460813248
5.6511111320000005,2.781996319286527,0.6318428061281349,2.9240102870984663,-1.1023195264505359,0.37261878413858285,-0.20657618792330046
5.69106129,2.832670942486518,0.5267816024117689,2.9140811143116014,-1.198133639948255,0.38601717047468115,-0.208371107993492
5.731061314,2.8723036404601494,0.41780134693095416,2.8978263447949204,-1.2968785888655956,0.3975119968269756,-0.20993332139819676
5.771075323,2.901413821797438,0.3054053186949992,2.913980849591747,-1.3938463047474423,0.43080547402713265,-0.20978112154916806
5.811066147,2.9196238340392053,0.190368997373153,2.9175895469457562,-1.4886587947585217,0.42935050552554394,-0.20728547174986486
5.851050338,2.9270634974752245,0.07360897308866576,2.9276816181083074,-1.5793107581119779,0.4372884875089647,-0.20635004777876742
5.891080475,2.9237202976905716,-0.04372506794822792,2.9492066226977065,-1.6702850728266994,0.44585331045288135,-0.20598232205071762
5.931056704,2.909497718671243,-0.16071113668385326,2.953308378814124,-1.759103253383378,0.4605168547197369,-0.20596977410559325
5.971047615,2.884592606411148,-0.27675719905811935,2.980679657566664,-1.8492884182117524,0.4537676731297759,-0.20625526686401074
6.011065126,2.8491326518062583,-0.3901909845580824,2.9724813272215833,-1.9427249629434098,0.45464368869967986,-0.2066187211241154
6.051048528,2.8033028349915057,-0.5003534712137325,2.986664012881148,-2.0350992026901857,0.47426918484723307,-0.20735164620498514
6.091055751,2.7474986552745335,-0.6066352329201137,3.0130084139454527,-2.129828772385731,0.4623706411084492,-0.2026583734732635
6.131065383,2.6817856673303844,-0.7072892662306095,3.0113509152999858,-2.2234409979987855,0.46118215399703644,-0.20221778396221046
6.171047346,2.6066722999967493,-0.8015658016183796,3.021608583675924,-2.318061831612996,0.4637730284261923,-0.202316230361212
6.211061893,2.522949100358517,-0.8885344982927253,3.026464670329641,-2.410778640361768,0.47427794490112946,-0.2013603788828154
6.251047427,2.4314055743283745,-0.968409648386355,3.0449947296061635,-2.4979595858071533,0.4627941067385573,-0.19479635646557172
6.291055172,2.3326875018694673,-1.0399043246402375,3.047878953333338,-2.58462285811519,0.45549559913094595,-0.19363896856315954
6.331083688,2.2278004050176867,-1.1026867844161343,3.0678381767806413,-2.67101009512341,0.4625201817151604,-0.1932826555391664
6.37113333,2.1174076609774484,-1.1570290918468549,3.0809593168053735,-2.754733991106248,0.4640795440684355,-0.18929169006856053
6.411072141,2.002514837865059,-1.2019357134922126,3.078377329970762,-2.841968841958028,0.44439629969700983,-0.18993509851377907
6.451111247,1.8843007748045089,-1.2363630750773777,3.0853575254929626,-2.932444804011827,0.42970639039144903,-0.19141370363602114
6.491057274,1.7634305038944917,-1.2606593475178647,3.0834228987512606,-3.0217757459170924,0.4297032225845374,-0.19413145391485895
6.531068962,1.6412406976724445,-1.2736411429153793,3.0680915314096118,-3.114384533478918,0.42165769452873914,-0.19192587134998804
6.571110765,1.5188325547460242,-1.276008166379652,3.0325740857641112,3.0762637498823673,0.3995530632017656,-0.19151791744264404
6.611056512,1.396973601741581,-1.267589006134494,3.0508703453502237,2.9867325753659304,0.3922558103642481,-0.19221176310258087
6.65105494,1.2774000873051752,-1.2479398885527286,3.0182570369851884,2.895101103815287,0.4020407957921028,-0.1921229255542705
6.691057532,1.1612955280677146,-1.217975160472375,2.9728315920283674,2.8024606335276934,0.2955540782262655,-0.217504103294342
6.731076782,1.0514911996639826,-1.1776865915599997,2.9053275120902557,2.698732189359475,0.24083074110962993,-0.24846582236396175
6.771139208,0.9492735366080902,-1.1274139115476183,2.8127001254703274,2.5878052669407055,0.2507995772521108,-0.282346589869932
6.811059883,0.8548495243060684,-1.0678344115681389,2.768933371056082,2.4763868655716426,0.31350915664070556,-0.315071973045451
6.851105986,0.7688776771260193,-0.9994249088272733,2.7419653206759915,2.3712969927913568,0.36401529530380067,-0.25115452258564475
6.891054888,0.6901481990258989,-0.9225245414940588,2.7658522496283164,2.275204547752648,0.4155948472269503,-0.22172090662277627
6.931058443,0.6195905666597327,-0.8374399255857977,2.7809488002582157,2.1889911769277486,0.4487979194896196,-0.19158023635132818
6.971090681,0.5555395178384439,-0.7452701730573358,2.8228767361098295,2.1156191818712613,0.47580449663719065,-0.16310274826297755
7.011110685,0.4977360227207179,-0.6462596366094762,2.8907911617327975,2.0488632253439487,0.5060180220005447,-0.13902993554691137
7.051130797,0.44546484703138683,-0.5411758889690876,2.9615846794851075,1.9882779774831072,0.5347284538467295,-0.10512872302713867
7.091057045,0.3970216424278259,-0.4303100151995558,3.055313374136202,1.9431895163954012,0.553554053190684,-0.07539477324808994
7.131089586,0.35113021461974997,-0.3144001090679894,3.136352969271456,1.915853348205345,0.5368681282402971,-0.047448354028300804
