time (sec),x position (m),y position (m),forward velocity (m/s),"heading angle (rad), from x-axis, positive is CCW",throttle (unitless; -1 to 1),steering angle (unitless; -1 to 1)
0.138141817,0.48223561146388566,-0.4819653362014113,0.11792696111686105,2.291525147632036,0.16806774055637347,0.06104000910894201
0.33813157600000004,0.3737831237821594,-0.3293638575923585,1.179025562258909,2.2375223626597616,0.65,-0.1575985116364872
0.538132462,0.2220971798714569,-0.027996394668672125,2.1795729485497453,2.042150414308499,0.65,-0.05073162406600823
0.738141523,-0.04176229657619928,0.3648716912234884,3.18074131943361,2.130726998279983,0.65,0.06966581524403259
0.9381310740000001,-0.5023640690924774,0.9126561687004079,3.4097416707072337,2.4395410220598346,0.4093874627960875,0.13991298940776659
1.138132522,-1.0172033980710826,1.3031340867917112,3.4012590635642095,2.750547432120375,0.2659612237819929,0.18267765199649788
1.338130328,-1.672784089538857,1.3969165100886065,3.154911583954051,3.1771548733614656,0.27173982411852055,0.199484616697634
1.538133034,-2.2519502988111646,1.2720235684412666,3.0242566567646176,3.6837158764717244,0.37025368207581116,0.21333363097822786
1.738140618,-2.753851234355108,0.893442951188686,3.1003218001986785,4.070650338071216,0.47677989904575785,0.2329668352977845
1.9382145990000001,-2.9645261400468748,0.2831829261602482,3.1722990056137363,4.565408221449862,0.5540730082017868,0.2135733792113166
2.138191318,-2.945424607320944,-0.4104102308243948,3.320084984817978,5.0682215983019745,0.5212300175791053,0.19728037383806668
2.3381360620000002,-2.6466726436461068,-0.9318664433243741,3.355104859144265,5.482626938092502,0.4724612140041988,0.18869122398144264
2.538232876,-2.077496106713004,-1.4010106822616015,3.4007069945201254,5.872501959833965,0.3890253869173766,0.18886925295297066
2.7382137230000003,-1.4602050071226642,-1.5389529968296964,3.215874725585647,6.277195715976212,0.31610392180274643,0.19974883135148522
2.938134416,-0.8070270714683063,-1.416962578953053,3.0547163484913566,6.768286015339718,0.3463233393608316,0.21303807928711183
3.138149172,-0.387608944096922,-1.008597500420052,3.054421211241451,7.1864825427904595,0.48677235761318655,0.20346994474772773
3.338131094,-0.06836501984338242,-0.43084987449987333,3.540844257829457,7.410751016158412,0.6117102136575264,-0.0017791925782735581
3.538164974,0.20886457935242006,0.19112788562432387,3.8283196695805595,7.386638428760717,0.4211563663089721,-0.11078968930039719
3.738142583,0.6268001725489916,0.8777723941966198,3.740885943017494,7.1488969093841925,0.21861820865558046,-0.1935739156765195
3.938129361,1.2365826501676247,1.3590099941768004,3.4124872508624473,6.628583669431761,0.16475071943130373,-0.22417497021465327
4.138134304,1.9073759162080424,1.4418195766606157,3.100474234086267,6.219051496077427,0.3250935081258815,-0.25584291333401055
4.338133908,2.3673488402179994,1.2193477169711604,3.0710065225408143,5.758254232103529,0.49720720151170067,-0.27615369791844413
4.538224463,2.858701441364602,0.8314251801478433,3.2000310892354134,5.24943062298558,0.5694978775896723,-0.2607787065952005
4.738214843,3.0631863416067415,0.2146123268898137,3.3054832583411997,4.696118890468123,0.5786054397357335,-0.2340494700471037
4.938145306,2.9810975923965954,-0.4391435699707362,3.365851830793667,4.209794139864062,0.5024383890685035,-0.2074429531251362
5.138135086,2.593646889030327,-0.9433741763858172,3.3687323562301312,3.858958832430196,0.40196158171562074,-0.21796318492770814
5.338134261,2.0556847197424197,-1.2860953975144689,3.3204351669901837,3.5028750302401512,0.3374248258904145,-0.24234332568437197
5.538131895,1.3537837897929974,-1.4411648497540515,3.1786215602835894,2.9962596572713225,0.36271305109938573,-0.26553812666606375
5.738134502,0.7836658882356036,-1.1296103852672603,3.1419386015973907,2.508653248846486,0.498643748992282,-0.26660544339479497
5.938225891,0.3599838238218752,-0.6750570165451767,3.370488479148616,2.0548489235332457,0.6347585141401171,-0.1398576839478969
6.138130291,0.026306081151222082,-0.0503185871812966,3.8196202137481574,2.0734057821537744,0.4955551240097038,0.02918658116633791
6.338134196,-0.3392705123729821,0.6126859159381665,3.9045164305808977,2.257194103269389,0.307862672914266,0.10606220700895305
6.538239385,-0.901407212636011,1.1603169370877335,3.671110516865412,2.551726615402281,0.21161859070710973,0.15126854044687033
6.738131469,-1.526244928723111,1.4337454006062895,3.3239305908715693,3.046421417181762,0.1936966999578782,0.171897223598644
6.938131554,-2.117074278932947,1.3490570710341245,3.0522264799545162,3.5523979784104682,0.29297684610414365,0.18720898330025437
7.138132969,-2.627778253834537,1.0934790254166473,3.0174960733499954,3.9967608746450933,0.4449055141054501,0.21849011059116655
7.338131262,-3.026800174060189,0.4850370340491104,3.1479870306751074,4.461928463283105,0.5307961635525408,0.2110755525811875
7.538130603,-3.068145236929871,-0.08441675607311766,3.2664871932990978,4.929316142644725,0.5650411152396847,0.1903453629107442
7.738139429,-2.8131456614709247,-0.693648148825185,3.3992166609068586,5.349119842495124,0.5209060186729834,0.17079167919727256
7.938146716,-2.3666135436922784,-1.2278989466009491,3.3921036901636517,5.747610344040094,0.44254240863481276,0.16497837108416724
8.13822256,-1.7425647296221105,-1.4407615359958168,3.26148185943752,6.1687092304383455,0.35319361419401557,0.1764065170821601
8.338144077,-1.1531715150221102,-1.4004492080237785,3.19727027338235,6.589974541276743,0.3190345132674789,0.18918671320831804
8.538131809,-0.5584594318316162,-1.150067033331209,3.071763764467292,7.074934348029752,0.40190564635494397,0.19927434567007776
8.738164684000001,-0.18688782949000896,-0.6829573876131538,3.284429557356351,7.374470158683547,0.6181230904109226,0.07849218378146244
8.938236004,0.10770111583006942,0.028158807238725714,3.6716592325533695,7.471991797376745,0.49752162907086817,-0.07610283762627443
9.138141433,0.35809459713782155,0.6756396989021489,3.83046323272083,7.318685769476479,0.30249580154393435,-0.16631250032473666
9.338151364,0.8948695080450106,1.2320178461908533,3.4556594673650314,6.8784117934955935,0.20547975935914464,-0.2084815988863774
9.538131318,1.526399530700859,1.5212501995813432,3.2581055652471678,6.469904026555914,0.26287739981965075,-0.24141686153197625
9.738220537,2.0871044637176808,1.4991897956802362,3.06922660320757,5.958000414074149,0.4295796736208862,-0.27464378047596544
9.938139974,2.609435439728603,1.1497730037956906,3.1967627958463303,5.489941443629232,0.5915690393575475,-0.27199709941103306
10.138220608,2.943665867507284,0.6488079265563642,3.2661745481435758,4.9642991533278416,0.5887049384494546,-0.24648869839592866
10.338132476,2.9890519646919875,0.0018238727160365138,3.3223872916770523,4.48607575355976,0.5654891013612813,-0.21209868467346127
10.538209382,2.770270286036457,-0.6184589831793728,3.376669732554922,3.9914696983802127,0.470695569103496,-0.19111119703953158
10.738143754,2.3076090969910488,-1.1176595220910077,3.373644436510072,3.7091464548152833,0.3349112512744852,-0.22454248171664531
10.93814759,1.6673300786096648,-1.3112849090622045,3.229856790183271,3.232134877144185,0.2977176720011912,-0.2600166664480917
11.138137748,0.9669445928181645,-1.2233323317633067,3.1149956166467727,2.7546964398370295,0.4198224591686062,-0.263619012957899
11.338143289,0.5604028827476882,-0.8775628712753122,3.2204920037447877,2.278861646564917,0.5787277629591071,-0.22298395187588388
11.538132791,0.15604869451186204,-0.3333783846688439,3.573786368053718,2.000585292318809,0.6048050571464479,-0.03465369756125759
11.738133352,-0.11757120354433878,0.3617878883495385,3.842176442796804,2.1055906641344597,0.4201920366404675,0.07112788456261598
11.938232427,-0.6288844824385826,0.9725660106192511,3.796832293342048,2.4020173294807132,0.2426347657308873,0.1318831652059683
12.138143696,-1.2207796919203218,1.363220509248213,3.505107790713804,2.8073416219527303,0.1751964208779998,0.17562198228521392
12.338210777,-1.8254207672612477,1.4753095127537266,3.1725734043435097,3.2785821627408116,0.25001983230221697,0.18067827535311812
12.538188668,-2.440267298051249,1.2891264579643384,2.989192191881465,3.7703590762790262,0.4004192120530895,0.19952163014569058
12.738132211,-2.9112477387831115,0.8979725980797603,3.0735901133658383,4.215968092088344,0.48586520198013866,0.22154281262602832
12.938185109,-3.06609065445603,0.2966552201683603,3.1921552888242397,4.646061287431111,0.5540648412891315,0.20876469535751918
13.138147903,-3.012682808754304,-0.37930352856293353,3.3392152542190745,5.170324996625699,0.5718446971459392,0.18936122038067885
13.338137173,-2.682019686418387,-0.9596869443597814,3.3690208302472824,5.52671879222929,0.49206751380856606,0.17231237273909375
13.538128706,-2.1308695489931186,-1.3414949443540733,3.3998631358069873,5.900297023751341,0.3957708885536624,0.1677627695483747
13.738141942,-1.5077320977380355,-1.4437363685093987,3.2502541819526094,6.358242140987321,0.3410530028536556,0.1876436674230538
13.93813164,-0.9117539905321398,-1.2859139921726257,3.0838552139993505,6.816351743819437,0.38962912528781596,0.21526438415792942
14.138134145,-0.4088961735026968,-0.9124425429434333,3.1376580606027344,7.215955569122224,0.5255305242175353,0.16316728877247916
14.3381341,-0.0906641604731187,-0.37865758087676044,3.513293067469479,7.425418938729327,0.6315850419560393,-0.010995781193811865
14.538134943,0.18787367688722215,0.3408389596851679,3.825687226369406,7.386532619358158,0.3956959876202151,-0.1154518847459734
14.738133635,0.5962281022297439,0.9570683038320531,3.723223568626821,7.074455585679049,0.22248875909289845,-0.19821925690111092
14.938133463,1.1071949974314503,1.3936958502531285,3.3158825745358524,6.655348447392349,0.1988317106509881,-0.21957952763352426
15.138134973,1.7575109609038693,1.5436569632498198,3.107542755697198,6.231574066388812,0.3520073894331,-0.25399545166433596
15.338181971000001,2.3746924305983623,1.337720909785877,3.1281163995345316,5.705571895077613,0.5114527063147237,-0.2717084603315016
15.538133062,2.860986392724115,0.8408703851040956,3.27878612355143,5.207769834048415,0.5693328851796131,-0.2578894269078085
15.738132585,3.000736079096104,0.22474305121927357,3.33500404198987,4.710307245077207,0.5605826036393433,-0.22809324280946067
15.938133431,2.893458551571534,-0.3953357121425347,3.4040664644357537,4.268904161711265,0.4771003576208927,-0.2095382461427452
16.13813557,2.5091734291529426,-0.8858718283271937,3.3385745805907274,3.8268768437818346,0.37930888559397935,-0.22100041662570277
16.338135869,2.024992340687364,-1.2453030294452128,3.292462499889639,3.4875144911295988,0.32050366232105315,-0.24379609910659056
16.538135122,1.3403703421285422,-1.3282643263034373,3.1152108429898955,2.983920304991714,0.36290748110211307,-0.2636375122942957
16.738131583,0.751704836053824,-1.139356850628931,3.1093318680585353,2.523842869052377,0.5168910023139046,-0.2666198696203862
16.938141309,0.31281511923952743,-0.6644135771994973,3.3916070876949305,2.0556606514345774,0.6260311418774058,-0.1493507399248649
17.13813433,-0.014928371225452281,-0.056462373947832635,3.7953544100496894,2.0491526873870556,0.4966802672566771,0.023654819566219707
17.33814254,-0.4287738716537281,0.5560022687272537,3.8171719459716735,2.2343797384667052,0.30622928454358167,0.10195871944250597
17.538131708,-1.0024111733700802,1.139587142839836,3.6738680819632754,2.54215777912152,0.21744206834904706,0.1531464003180697
17.738137428,-1.6226036376247357,1.4489011624776011,3.309081741289234,3.0515343969998368,0.19322689601334553,0.17602342432603404
17.938143127,-2.2183575680645213,1.3857777657269963,3.078164343680739,3.5542391215670164,0.29252193041625696,0.19084861558100025
18.138130926,-2.7430545125980608,0.9909400178940856,3.0495721484274245,3.976928281892951,0.44113338130506063,0.2247349055259327
18.338131253,-3.021383356766865,0.5269893826789457,3.1346401210218624,4.458612525271565,0.5353525471216593,0.21231564093519176
18.538132555,-3.1575794770168035,-0.06280389516781341,3.271551494553272,4.95724870338308,0.5679373313391216,0.19217432318677558
18.73812902,-2.8624090955801433,-0.6907578247800503,3.377407565142606,5.36379049281394,0.5527587698946679,0.18685519878447632
18.938133272,-2.3926558420294066,-1.24721893271207,3.3650843003550794,5.7656687577499985,0.46773757811431915,0.15926220979783418
19.138149872,-1.834821725457162,-1.4545557849713198,3.3869132993037736,6.130654155930445,0.35796376234561406,0.18057534910907957
19.338131571,-1.1948974463787039,-1.488384870957013,3.216037653984822,6.623491840494584,0.31150744117838,0.1946722882595795
19.538128758,-0.6604593813842005,-1.1656140655103868,3.069037451409429,7.01369329949165,0.40908712516789575,0.21090708933751143
19.738148424,-0.22041572164642623,-0.6868203696227317,3.267895786949466,7.3975556656352826,0.593217716067894,0.08950032226579936
19.938131871,0.06101754606864059,-0.014385337932562164,3.73287949306062,7.453705383718232,0.5318800580480307,-0.06689095938053849
20.138227388,0.3774443918458743,0.6741426762183532,3.7727266417452094,7.303366373117682,0.32099893235343246,-0.16045108262556015
20.338131959000002,0.8945920570913533,1.1771467881406328,3.483392155353554,6.915778207592239,0.18693839087377043,-0.20658135383743176
20.538148598,1.5371499523870114,1.5065974455627191,3.1849035051172394,6.420349130300896,0.2296941713286228,-0.23745337752298415
20.738146838,2.1222223811831573,1.4595067786575489,3.052811098467672,5.9201779893334106,0.43601566143914416,-0.2718957873744067
20.938130979,2.678639667996218,1.0852491764161325,3.19532424392662,5.427345810020476,0.5492123643443522,-0.2652745567797571
21.138134029,2.988281048345028,0.5293185546044261,3.2908586554622072,4.973555151524167,0.618533819526708,-0.23983425486804985
21.338130971,3.0316535270933636,-0.13947884312846875,3.3806254980218613,4.502934823224547,0.539579066962283,-0.20594016781099278
21.538135142,2.8152176072215576,-0.7242361225165856,3.405826626141625,4.0628458368257405,0.4279713826914969,-0.206380353676527
21.738141758,2.2789251916257287,-1.24713457343539,3.3960203770499784,3.702544487390447,0.32950887088749203,-0.22861452677572128
21.938133864,1.6474833795788717,-1.4182385660027237,3.250081370124098,3.2250507690730537,0.32697028937402794,-0.25422909019796414
22.138133196,1.0126573238594354,-1.3605372157653581,3.0388887566972063,2.7571976653665984,0.23486974748581077,-0.25707947550231147
22.338132107,0.5220240918831356,-0.9949509353726227,2.9329217608732723,2.2153806375545186,0.5624864170857612,-0.23894836394372293
22.538131824,0.17600203108793924,-0.428016236426946,3.5003567798371042,2.0570712339774517,0.65,-0.03270385777950493
22.738132887,-0.10862689049760099,0.2140658102239012,3.753439254665331,2.1144500699254616,0.42215312544815364,0.07042375498335408
22.938131706,-0.5016590327596,0.8030053227935655,3.7351418402791805,2.386284107751423,0.26879799488594924,0.13370323153517358
23.138130298,-1.1509588052693143,1.2990631223380738,3.4568855062347312,2.827579769778435,0.20905613690171657,0.16269094123102368
23.338130896,-1.8117773611744852,1.3663783828317484,3.1740868704376344,-3.036276789800718,0.25465705280891954,0.17310623746992435
