time (sec),x position (m),y position (m),forward velocity (m/s),"heading angle (rad), from x-axis, positive is CCW",throttle (unitless; -1 to 1),steering angle (unitless; -1 to 1)
0.129506639,-2.529604464029993,1.403723377491051,0.022067790310830376,-2.556666756589499,0.106374267390006,0.2738966226324083
0.32935468700000003,-2.4120485983538575,1.3843508436337897,0.03392335930245505,-2.587239564493986,0.75,0.16755192765120613
0.529355321,-2.605759932043617,1.3484237950473954,1.457278245276498,-2.43089829624735,0.75,0.31174674699465543
0.7293706240000001,-2.814100092543416,0.9040779262897762,2.766907289402521,-1.8431630196542876,0.75,0.2883053916826386
0.9293625110000001,-2.7751409395317324,0.2522539823895745,3.147316428259405,-1.2974775208117755,0.5188036953216181,0.21869562664347642
1.129372217,-2.5401434728136882,-0.20638831582001635,3.311337684675537,-0.9313549525665725,0.4783372270402821,0.21427974366099165
1.32936386,-2.0306698317774043,-0.6243893527594645,3.2058289478672752,-0.423995960955086,0.4184427356730301,0.21131870428567104
1.529566515,-1.5429670904348545,-0.7780578517211298,3.200971222547446,0.0268931155973426,0.41002754736363894,0.20123578408746287
1.729384306,-0.84756053474161,-0.6565630373953466,3.146760766782299,0.5024653352711079,0.37124824743363505,0.20226166593836992
1.929369832,-0.34219426462511937,-0.21588833422246673,3.0731336936893534,0.9130668173913404,0.3863146868579786,0.16101570120569508
2.129418697,-0.09905814695129757,0.3692503790213647,3.32640453597703,1.2658051540495945,0.49138890007117775,-0.025181828360840854
2.329356346,0.2346119600188797,1.0118594737041575,3.4693230298251025,0.9661401470653009,0.3999972509025386,-0.14731842430644787
2.529410109,0.6182683359988317,1.5257901365583648,3.491719416164087,0.6372409550686733,0.35079463643924075,-0.18803072743275082
2.729436853,1.1944246112681636,1.833285658603235,3.4126344424463033,0.22970014143046033,0.38748310286270743,-0.19421791675028732
2.929445603,1.898704454597964,1.8291491513338363,3.367693663359248,-0.24239552349382318,0.40025823170034985,-0.2035954267349726
3.12935317,2.535863545395097,1.5626004112226903,3.350649343695666,-0.6435212992517982,0.44716875503246467,-0.2157949173275723
3.329437015,3.002369956235477,1.0664840163427836,3.3792457996414185,-1.1208636840395176,0.4491843376199001,-0.20047749668068776
3.529349093,3.234751062625001,0.39300972843187465,3.4630774790280916,-1.5087964700161023,0.45733614353137664,-0.2126386743830534
3.7295131,3.0767584001312325,-0.2564728520142754,3.4536426290602833,-1.9517790110416624,0.45954033093994373,-0.21163040129895228
3.929350754,2.690848030899718,-0.8467312859186197,3.4656584895898113,-2.3438228768848735,0.42351130401990594,-0.2063762974663137
4.129361459,2.1702055448651825,-1.1860770132732863,3.4887556075918,-2.8178694106665905,0.4010057002895258,-0.19945056986493026
4.329382086,1.4880432544502105,-1.3036127791370764,3.427857133339476,-3.279627207272644,0.36603930927049144,-0.20966431170915686
4.529423738,0.8935532827217693,-1.066613240516668,3.233451488892288,-3.6247869194649787,0.32654172908377505,-0.21087074443560277
4.729441642,0.3932251922153348,-0.6987156841402234,3.2722388137297447,-4.1344536278916495,0.44050547559562336,-0.14785029785818346
4.929439201,0.017411277635767865,-0.025902257368691187,3.658613120415999,-4.208687573312032,0.509641555411652,0.008996031547126917
5.129350182,-0.37688325788102783,0.5146965735851016,3.751576367242947,-4.053175855904465,0.31784404390832033,0.093668758301508
5.329357003,-0.8578204814358285,1.0540443746955779,3.6349660884390076,-3.71697982748988,0.2112835997094682,0.1595693927062675
5.529357753,-1.4632612693956655,1.3966795434268253,3.2952059794947575,-3.275486071685261,0.24146900997883108,0.15734979657769338
5.729357693,-2.068392888671226,1.3157949336597925,3.129046512444711,-2.8039788179166467,0.3170938560046826,0.16908996902055148
5.9293723830000005,-2.6286542761154528,1.0409856884230262,3.1225466969665265,-2.4016355803428406,0.3555883076751166,0.1963676682081105
6.12943161,-3.0491441123885075,0.4866819569691784,3.0754270696287884,-1.8904821161466037,0.4113838179077478,0.19769910986869685
6.329363465,-3.104486945279164,-0.10923893024292151,3.1856819145803414,-1.4930039000980604,0.42501961255906967,0.19940748725007904
6.529353794,-2.936614450457955,-0.6543578630415032,3.2061218068325115,-1.0338113310574188,0.43195851590581463,0.20363408914447564
6.729357265,-2.500622656652467,-1.1674725415628278,3.248032813878403,-0.5913178165740515,0.4944332631201253,0.21079037184884303
6.929404708,-1.8787800357699758,-1.3648662716474587,3.3288445888597478,-0.11667494014228429,0.4596823464301068,0.20596212322702898
7.12940652,-1.2773873171081824,-1.3022963275366548,3.3056885116131034,0.26186780013395544,0.4277202054969475,0.1993925041282677
7.329367447,-0.6924061905798224,-0.9857095125487788,3.2744139907189447,0.8121455648490713,0.4010452922909509,0.18586630898612505
7.529358704,-0.3008950203972476,-0.4590461785347725,3.347236121513858,1.1939849855492932,0.47384062458063914,0.08623589743007413
7.729373737,-0.08544287840918269,0.1422956198028109,3.635043662474597,1.1986660495446853,0.4957397107947215,-0.10125964797510674
7.929380804,0.30863435972710007,0.7938997856177411,3.572128486028044,0.8677141231967634,0.3663000313449383,-0.16693673289788774
8.129368962,0.8505876971872498,1.3195008727519841,3.5730764722364063,0.5173448478691826,0.34894495184963753,-0.18373239352637383
8.32936647,1.4528817730145143,1.45925467165391,3.3780238797663866,0.08212192295777127,0.36042098412469337,-0.1858406922688227
8.529364339,2.0991167965438797,1.4272561836037483,3.298368627977966,-0.3932838390086538,0.37603153683980944,-0.20571780648867022
8.72936753,2.7124229271051132,1.0221156536994078,3.278473289134873,-0.8313172076089321,0.41428386207156026,-0.2102709080448547
8.929358683,3.1015589942969064,0.46754072879381264,3.3110178880423975,-1.3459728587764634,0.4294624422231828,-0.22202521532798447
9.129360702,3.085449454243048,-0.2202900138975539,3.343261173108532,-1.7818020556282066,0.44594274292763403,-0.21717904886274633
9.329372532,2.8796435558193707,-0.7725154375541924,3.424185671412123,-2.1793644623234716,0.47348699675374056,-0.21768970613685149
9.529405013,2.45026524422723,-1.2917575199764577,3.3924980864321728,-2.5825903174555305,0.4255687590144366,-0.2108381671051274
9.729360848,1.7668459634633211,-1.5033606145906637,3.4122052050839775,-3.0627872792849695,0.39000841126324237,-0.20677898552891474
9.929363787,1.077266101574373,-1.501579008412481,3.301096485017065,-3.5387803283015593,0.3736790837679443,-0.20934734294091187
10.129365735,0.5490809485793099,-1.1045444334071541,3.1658369306421896,-3.9252683906020716,0.37803291055987415,-0.20875806847147693
10.329416182,0.17141454525825317,-0.5505351813047143,3.4675162418838026,-4.298803258793347,0.5314855054652271,-0.05880380658476364
10.529353318,-0.14928527820685486,0.06676698629976287,3.7630021975410393,-4.164780683572708,0.39675866598343246,0.06227540375917109
10.729375147,-0.6288295965748115,0.6439292741750663,3.8114932136853286,-3.932060374098891,0.24053183776116435,0.13326144661792133
10.929367152,-1.1930978468935387,1.1186276189370532,3.445006156357401,-3.4825741754895,0.2086616258624583,0.1552395877299526
11.129362673,-1.8286902561057434,1.1945099464846185,3.1949448472772004,-3.0065164903725585,0.2652305484945009,0.15684259387109742
11.329352185,-2.4163147477459983,1.1092202118833192,3.0420053093165773,-2.553219942066818,0.3386390816463015,0.1726560640402694
11.529356405,-2.894043524597368,0.613023363279471,3.0509106493268945,-2.181768434394763,0.3981104669985439,0.1946205716986139
11.72935769,-3.0820039337910243,0.026092899196436963,3.0978531674746135,-1.6696178182265087,0.39221866747955186,0.192488792025417
11.929361364,-3.024710969247074,-0.5391974328701167,3.089008366828023,-1.2430959137266402,0.40150958924465563,0.20046033230089863
12.129396791,-2.7003000223684936,-1.055552224973658,3.150799778315076,-0.770095335919642,0.4635738331795652,0.20625095892925221
12.329358326,-2.1872903273052353,-1.4255582668736988,3.298296491206455,-0.3207675495524404,0.47386760473198664,0.2129211928941893
12.529361201,-1.5463724857834409,-1.5359120822030694,3.301547602089432,0.10392144444973608,0.4679293915964267,0.2021185439760069
12.729384579,-0.8748923857221059,-1.3004212097114694,3.342252288804074,0.5965391793992488,0.42258915310034295,0.18666804124888925
12.929364139,-0.44691900015580605,-0.829347627920725,3.3305500145929177,0.9943088390325425,0.42713406618765987,0.15835220859838722
13.129363227,-0.18753383077744928,-0.1463261193385517,3.4696162091023997,1.2372635238916143,0.5112864762714566,-0.02608423817485348
13.329359268,0.07845591864425788,0.4547426132838979,3.6503659622221205,1.0795465801342532,0.40625470439857314,-0.15551203662499524
13.529367647,0.5324698404909016,1.0144157384363643,3.6125233545486,0.7095191089602287,0.3525990026925072,-0.17766630675673062
13.729359119,1.149132855653666,1.37757799123547,3.4330198116375272,0.27059531491238137,0.34459494094226145,-0.20259097994307765
13.929354789,1.8643995836389584,1.5380984836465639,3.376492679852583,-0.18080956838906484,0.3711564146389434,-0.19948902224862647
14.129359725,2.4423817888388566,1.2394393970013948,3.3045340142608866,-0.6395353984378116,0.4179914442802371,-0.21077060054560107
14.329351525,2.8842215689240613,0.7255436184736913,3.3065913312787574,-1.0568088927941577,0.44298422595824855,-0.21522525257649436
14.529372396,3.0757468811575017,0.14215964501235265,3.336365937583215,-1.5392053346331054,0.4327957543495524,-0.2235722111789435
14.729367183,2.9764083660249057,-0.5783714611653316,3.3468248129473404,-1.9440560519763828,0.4505865248310728,-0.20971675936173995
14.929366049,2.667283066687439,-1.0808671702958907,3.424870155703903,-2.4263893642956402,0.4316900800683596,-0.20172412834101278
15.129358264,2.1068795048068165,-1.4825093350655778,3.3777434810280167,-2.8620973615956506,0.41747585214329475,-0.21569929559472234
15.329366571,1.4676137813515362,-1.5282296404433156,3.299305797338438,-3.325928389510966,0.378214511754391,-0.20980832922200165
15.529423132,0.7996855953444213,-1.3769248260218383,3.291822810677355,-3.7326129070354765,0.37092557958518035,-0.20783839190317707
15.729365933,0.3193945199683478,-0.8901121702181822,3.273780455453558,-4.15207977898995,0.44425040732792065,-0.17676538439199457
15.929414701,0.014151511967214408,-0.16080299691492833,3.63292258372304,-4.311402581793135,0.4809499679678741,0.01902232353027333
16.129363518,-0.3420820188562808,0.44068125426972954,3.749431780143975,-4.072247058499244,0.31694545370701815,0.10560326457669028
16.329376685,-0.892283175169573,0.9416870995876779,3.5771374249087824,-3.7069441118626427,0.2198371501218202,0.15979536011189938
16.529372319,-1.466479778247901,1.2897062055830086,3.2907346271044764,-3.2306423741970334,0.2302994758693078,0.16081867185273066
16.729399538,-2.079377040106725,1.2129226089068683,3.0534088785417266,-2.8199915832752795,0.3129614149804621,0.1685475521053599
16.929361319,-2.62168815810665,0.8895769231452358,3.0654939435714468,-2.3741720545629286,0.3873677095134158,0.17536683975936368
17.129357232,-2.985787354584757,0.4103504727581385,3.0305888202469373,-1.9387616124403395,0.3918223279197625,0.19406734361757824
17.329358184,-3.0685424060799424,-0.1814075559164514,3.120737394936211,-1.4264866221981927,0.4202878197343916,0.19581697673640497
17.529361993,-2.845430666847237,-0.7916525677724265,3.0889593248429605,-0.9916459364855594,0.45589095656028966,0.20080501637020015
17.729353585,-2.4772199616679966,-1.2437344769800478,3.2221490130184307,-0.5656766379173076,0.4505586120321227,0.2062307794761871
17.929430553,-1.8085085129563272,-1.4975140723029736,3.2602189373719517,-0.043900393870362174,0.46581638474024095,0.2099519818365155
18.129348843,-1.149136039471465,-1.4159681228398395,3.308841305442397,0.4715051070964833,0.44212435225254254,0.1994200383982196
18.329360503,-0.6396260386534881,-1.0355275482351658,3.278663233672851,0.7945145738631255,0.40517954583583166,0.1920920131917185
18.529356042,-0.3497657215465425,-0.5095237826206004,3.317571537816707,1.2546557164793934,0.505692550659866,0.07218861822574918
18.729360021,-0.038298294849723205,0.0887633798289391,3.5784523569879805,1.2214834371900543,0.4791267459010794,-0.09770668845160906
18.929375665,0.25998342984584133,0.8244476257117516,3.5941956319380113,0.8737338247983711,0.3749084205184936,-0.16608798374793332
19.129420786,0.8070018842243047,1.2476651550835884,3.542675136553005,0.4717167037336083,0.3690734392146022,-0.17904959450322375
19.329366191,1.4757999177481231,1.3867660581700492,3.3683563670263084,0.06502110838149795,0.3566344035512214,-0.18287208261618776
19.529355083,2.1650894818401856,1.323785379742613,3.3252161796232658,-0.46679327082739674,0.38838019657427697,-0.19728395828626824
19.729357179,2.6886618396819464,0.8926203540280043,3.281456821777125,-0.8510460467138408,0.4482670111529513,-0.20453901977641883
19.929358871,3.0743318880578263,0.33051442819251653,3.3175263576830907,-1.3186161092473012,0.41607730439967855,-0.21083921492710872
20.129350935,3.1258248391877275,-0.31838342885701504,3.3599864842709404,-1.7404970258123607,0.43894186915687267,-0.21202279645260286
20.329367752,2.812841891666729,-0.9063061475553303,3.3277868302665548,-2.2084416143185264,0.4530186256961652,-0.19670339763510808
20.529355318,2.3390059587954304,-1.3443440314704123,3.3845919497230432,-2.6774572630230127,0.428165328901438,-0.19512361669482547
20.729367472,1.7025319824748348,-1.5522909997694614,3.3643041812553336,-3.160512638920062,0.3997367087311641,-0.19823141094739236
20.929363842,1.0813798835840045,-1.4913072155815532,3.3446897420121813,-3.5247977821954373,0.364811574772949,-0.21729512240317608
21.129360535,0.49791670418245354,-1.1171668561352819,3.226746808889985,-3.9849237169421605,0.3860474840981579,-0.20299429431499755
21.329368639,0.15599771835571993,-0.5746083773518688,3.4649637466358145,-4.3252910342767255,0.5329554114506013,-0.054289920860016105
21.529355776,-0.1687976338608916,0.13949060327238796,3.72629409287678,-4.2740761290745946,0.39069077836104843,0.08531322631484096
21.729355898,-0.5953322453848814,0.7919368510366774,3.6627237039935068,-3.919265210376285,0.24085716678374594,0.15034540873468458
21.929361996,-1.1371359735446793,1.1372426221771847,3.434584755727066,-3.5242038424346442,0.2116963605463021,0.16902356400316002
22.129348223,-1.7781398377565183,1.282259487011116,3.157493187901265,-3.074044386560661,0.2706619041812933,0.17392266831874445
22.329361648,-2.325679348366125,1.1230517678909129,2.924506189908343,-2.593292745532175,0.07280170190243337,0.27409290673460385
22.529355933,-2.7438679624643054,0.8161401918504588,2.8444125942633507,-2.0279553110245665,0.5514733804510135,0.15769244783005706
