time (sec),x position (m),y position (m),forward velocity (m/s),"heading angle (rad), from x-axis, positive is CCW",throttle (unitless; -1 to 1),steering angle (unitless; -1 to 1)
1.123891418,1.4641038837707285,-1.2671736391867694,3.158688285678402,-3.1563659824236727,0.36183682689724567,-0.19546414021359176
1.323900127,0.7674755070381432,-1.0775508417043738,3.051971559417349,-3.6763860566230386,0.34562751058453783,-0.20131987138537916
1.523835315,0.3455605959269852,-0.7589703622069353,3.0171183769545395,-4.0816080216123325,0.5012809059243929,-0.1776347802709986
1.723899434,0.06898692308177168,-0.14503162819550955,3.4587869276843364,-4.233786435336361,0.5899507533721106,-0.006806352589734996
1.9238877030000001,-0.27137912441407785,0.5390785779610378,3.6510692587540294,-4.224008969219472,0.389694073438604,0.095616870583415
2.12392277,-0.7302976455459769,1.125367730707468,3.531681829178483,-3.8910677770578306,0.2469111014901089,0.17179021518222318
2.323897402,-1.2936325743536747,1.390627723216573,3.2660821704028775,-3.3788858746011625,0.27419935784739297,0.1911175556863233
2.523904057,-1.9758687342972712,1.4934811472696097,3.1795139619734463,-2.9802848150864243,0.35226702512084956,0.19319283846262575
2.723914732,-2.504038666456023,1.2742016350452963,3.1670538024439714,-2.53117942706098,0.4440699987339525,0.21135076688606774
2.9238251330000002,-2.9320967891510654,0.7720406438910589,3.2870702242796246,-1.96224226293718,0.48570498608759316,0.20511166536467632
3.123831189,-3.145910591986369,0.14244824307575701,3.3155229807233018,-1.5945763985205315,0.44349782103526675,0.20923955189993376
3.323913421,-3.044031554504963,-0.4797792708383396,3.2856630901988364,-1.1563449970322495,0.41255322098274466,0.20705622444385965
3.523825034,-2.632421038166967,-1.0314566461528012,3.180114631343758,-0.6725846340425196,0.3934291612372856,0.20935089816066121
3.72383299,-2.11774333646391,-1.331240641929144,3.175940067753934,-0.22942420174324907,0.4399001551416105,0.21345226719796231
3.923831736,-1.4625807428882331,-1.2916617034762796,3.2696112484974598,0.21972938777927142,0.46056832161746464,0.21020151075463436
4.123888654,-0.8881404558952047,-1.0657330136202343,3.2413399265239726,0.6797566157840869,0.4425149394312269,0.20058155985781487
4.323889752,-0.4495869632448461,-0.5689514149699486,3.407979570118799,1.0377174658560335,0.5399668454669778,0.11682518861085464
4.523829362,-0.13552844336144676,0.0848299176950803,3.668773713622653,1.1538728256547195,0.5294603748615953,-0.04765365164739304
4.723853195,0.19261364893117328,0.6985243775427887,3.817631880944559,0.9541927681046031,0.37462466207528705,-0.12203656904740848
4.923901681,0.7095845799446052,1.2008355405260351,3.6593516330444595,0.6444021454332164,0.3032077624566941,-0.16075925371062033
5.123830979,1.4417365663191433,1.6050835143579627,3.4042099659045344,0.19868657612926588,0.2662257025884697,-0.17600324873587356
5.323870027,1.9830817542033703,1.5953520453606986,3.093960493251185,-0.23549317915121876,0.29579083705381876,-0.20104160742861263
5.523846637,2.579730386497152,1.3261123593509423,2.925063298915817,-0.716871148039712,0.42488817843738985,-0.22659578313545692
5.723830989,2.8808250903909562,0.8141879778578438,3.0377713164448763,-1.1350544255237507,0.5612678496694548,-0.23865299809164212
5.923881412,3.025850036569243,0.25386094980634105,3.2443826722579985,-1.5797454417700376,0.5820628597557965,-0.22920255542225043
6.123919588,2.957801048446301,-0.4209323460802188,3.365355867414579,-2.1311466428520482,0.5392632570170872,-0.22071403343474638
6.323884852,2.4405111622022693,-0.931587097654621,3.307614204794794,-2.5497974659699194,0.4782953258778259,-0.21269570808091634
6.523837545,1.9206106129492901,-1.229639228225385,3.265614996073005,-2.8948039619096004,0.43165437014556446,-0.20627111381215735
6.723834777,1.2531262839260777,-1.296765894095381,3.140392832219408,-3.4352240806369387,0.3532594823742309,-0.21334414528075396
6.923837078,0.747791479087469,-1.0694452307876374,2.9755973488944094,-3.7928949889602026,0.36441269723950936,-0.22621329316457103
7.123876418,0.3696606963965137,-0.6115700566110456,3.1960497673037884,-4.1719802214937065,0.6201618599483822,-0.10707717206269234
7.323865305,-0.06136725907644669,0.006613956068448617,3.604866339297274,-4.175517943370423,0.5029060792520981,0.03911548239112988
7.523868443,-0.43189352667828257,0.6605965006754333,3.722956182973779,-3.963886332828317,0.32830665112247326,0.12564022920644663
7.72385912,-0.9738627145612428,1.0920132354798802,3.48902473613985,-3.6258179512747035,0.25716170853668946,0.16539780041036123
7.923846141,-1.64831323370151,1.3175900389306796,3.2805511857503475,-3.163163369498689,0.2856214033799147,0.18555572334378448
8.123871127,-2.2074546438154976,1.2540912440702559,3.1207353324100198,-2.7677274994991974,0.39172902400241855,0.18877150804370452
8.323830296,-2.6721172146306866,0.911636338707599,3.209586598003951,-2.2694147441902164,0.4587674469825166,0.20415931383576988
8.523875513,-3.027321378996642,0.2947357401129386,3.2034477445898215,-1.7547922681716261,0.441776389450672,0.20101647303433592
8.72384124,-3.0253597379033925,-0.35029794936671566,3.212691424512944,-1.2847093900411817,0.4128455280893044,0.19430858636514678
8.923835778,-2.759021653223306,-0.9514893308890161,3.229498151234033,-0.883919324282897,0.37114710816922747,0.19391067112166208
9.123836794,-2.2494969642598672,-1.3116911627448014,3.159723097681159,-0.4216367040387007,0.41947077299209673,0.20645255873292914
9.323825616,-1.6506744603053738,-1.4962054434406993,3.1497978715249704,0.04871912677356778,0.4671078961469232,0.20667426988801835
9.523830068,-1.0271714434411732,-1.3605935743387256,3.22194093413608,0.4995632284777644,0.4533014052547622,0.21568684126625798
9.72392246,-0.5575809291434819,-0.925191154732044,3.290431779713057,0.9519076020169172,0.45418439077448886,0.1903504832687893
9.923834117,-0.18283922193751947,-0.3506498907076421,3.5798130606780303,1.2218553139196995,0.5592908616648254,0.02186974665813923
10.123826697,0.17978042638086028,0.326819000028552,3.7701178182732153,1.0725187392707134,0.4469754870414658,-0.10132202764907697
10.323888901,0.5161471767954419,0.9925852911225007,3.725752533786136,0.7928662280201902,0.33784835866683033,-0.14900747686040144
10.523830674,1.0679326766286503,1.4402238343246543,3.403149548737011,0.317063236827338,0.27835873592505844,-0.15743814174154175
10.723832634,1.7087075356721446,1.5367428010274902,3.2146226474873973,-0.0378386203119624,0.2821977012563256,-0.17573377751117786
10.923880082,2.357650441346119,1.3881146172882672,2.9816040466024893,-0.4643054316422389,0.34275876031359753,-0.21477864277957892
11.123853304,2.805089563771364,1.0277477044153762,3.0039974530259173,-0.944065507318315,0.49087440955022804,-0.2420168732172032
11.32383392,3.054905407716916,0.43239833313584286,3.193293736799477,-1.4198407327237461,0.5921394658259872,-0.23571836617580566
11.523899368,3.05289544847826,-0.24563272244585282,3.3572108701164938,-1.8425638827553867,0.5895415035324898,-0.21650777553375194
11.72383635,2.7258740814424582,-0.7587356049507934,3.361634863633605,-2.308414683603615,0.5123761567712609,-0.21567593218523348
11.923878517,2.250659209081253,-1.2293967791752813,3.274750572765675,-2.7615611720899076,0.4631577617001858,-0.20187056026831893
12.123835715,1.5581752234038266,-1.382096022710661,3.2522297993017677,-3.170042702955713,0.42821018956797047,-0.20908306501574916
12.323836065,1.0115485659004422,-1.2443407903071517,2.9472111516661164,-3.652381886658285,0.21117175417597384,-0.28474389159714925
12.523834303,0.6250085025678865,-0.8241738927648307,2.8856690829672096,-4.089605323145006,0.5471019577471002,-0.18047141647721268
12.723834026,0.26950641628852395,-0.3586173492689097,3.4597564587880076,-4.282046654421469,0.6068811006908864,-0.006546699876203606
12.923891449,-0.11638446470835163,0.2985138459165611,3.699401517162186,-4.1212819033197565,0.4056403827209645,0.08875300195264245
13.123836998,-0.522336845919177,0.8355552736418785,3.6785893681366115,-3.8747950097329342,0.29440655461904497,0.15235792450614977
13.323829486,-1.1794149028952852,1.214687585592146,3.4366935123833824,-3.3598248373796364,0.26812998988264725,0.17031653207248185
13.523866038,-1.826490569161693,1.2485741401904242,3.215691565027864,-2.9570939549071706,0.3422917080298629,0.18864952954687844
13.723837235,-2.408006176610497,1.0548464973958251,2.7978952284909235,-2.4322110616041104,0.17361604387186502,0.26775696281022693
13.92383276,-2.7501884526363134,0.6589787728331382,3.076342374174744,-1.9824055552578923,0.6011038127004529,0.17390118818269565
14.123933947,-2.9209605100113687,-0.019193189622760384,3.2662688715998516,-1.6103601663527949,0.4292854458714388,0.19657920720274918
14.323891538,-2.7050109440040755,-0.6151838998806964,3.243862699395946,-1.084065627628316,0.3516047200244136,0.1936985895291957
14.523903662,-2.3378212554901796,-1.1493375540221826,3.1463674343664203,-0.6083385770810702,0.36736524745096616,0.20058643733545886
14.723867149,-1.8264138257267226,-1.4612729407531129,3.106106875025731,-0.24445592846303552,0.43178607323585383,0.21788297874329485
14.923829311,-1.221232341189768,-1.441814724668075,3.1824180633378307,0.2599953998256869,0.44308397700098695,0.20655619326897096
15.123887662,-0.5728576109585808,-1.1592700469443387,3.185785312993183,0.7716733752290134,0.46327217908869067,0.19776494198035885
15.323840424,-0.231644858526696,-0.6384440790417388,3.3166184732210864,1.1325198319655567,0.5389642615288521,0.12857036958373616
15.523904419,0.07284129368631956,0.03192281901593205,3.759257575877495,1.194141546495066,0.5104457370044764,-0.062369628219708276
15.723885912,0.37867484979025084,0.6978185582254598,3.7326955598622087,0.9743435359127087,0.37170786072126105,-0.14049147562029868
15.923892388,0.8758326880136765,1.22708898293964,3.5069030690904714,0.5692703834994832,0.3262880682091406,-0.16171885930952612
16.123833849,1.4654667931207968,1.5243018185389412,3.335808037425062,0.18828439967565486,0.2782321467905438,-0.17559521759932364
16.323846903,2.109141283890694,1.5296753306022397,3.0831401986213427,-0.23251934681921377,0.29858851406024844,-0.20048722091495702
16.523901774,2.6215766536781673,1.2713090793843618,2.995971023374554,-0.6981901669163431,0.44096000613868835,-0.23564506443446184
16.723831235,3.023462843868642,0.8307857466817907,3.0655659285699985,-1.1746393104496098,0.6102906974004313,-0.2347182192920177
16.923835076,3.0773937504663804,0.2237951776776089,3.2964000092529364,-1.6401435651685181,0.5792801577554985,-0.22941909418210077
17.123830563,2.9927225183107615,-0.4576426753057654,3.408037542994216,-2.069026379902491,0.5450523867770191,-0.2198010580110819
17.323833353,2.4940935555394095,-0.9512849890285472,3.372026009225879,-2.50207303206144,0.4872504259810576,-0.2123156482162707
17.523890427,1.9579281630764263,-1.282373238475771,3.2621034901590766,-2.9923291436055894,0.43261165660580614,-0.20205853329080975
17.723825846,1.3428930346682757,-1.3222405821492251,3.1777335864215908,-3.306725227315151,0.3472212257934103,-0.20939463170981618
17.923878359,0.7787242116420682,-1.1182074116258567,3.0143701476661917,-3.873193409501433,0.3878393719594518,-0.22110774003106246
18.12388096,0.38100654119568783,-0.6090907619340131,3.266853039621741,-4.19228904075663,0.5664388483713867,-0.11306574347968998
18.323886157,0.09870721028100099,0.025489021760376866,3.615483378440195,-4.208970303687884,0.49272457717204693,0.03788054636946467
18.523832988,-0.34879014670133357,0.6070841609167328,3.7046477899352843,-4.0146850215218794,0.3225269672548027,0.12788489919894783
18.723826262,-0.9605271082513585,1.0990630925786034,3.5252291973247494,-3.63900219200164,0.2565562699754393,0.16717875741608593
18.923829897,-1.5230718278354418,1.207699982971115,3.2772353798971356,-3.1582976392638575,0.2962589815452014,0.1742658820926578
19.123883031,-2.1962264220131273,1.1818157568910401,3.1429975479763974,-2.721131332935805,0.38792900200675456,0.19081156602444796
19.323895219,-2.7163945692870413,0.812616003003606,3.2188152902026395,-2.300672328788275,0.4429494645856824,0.20417904537882428
19.523831362,-2.976808786736276,0.2694346551721381,3.258869700674893,-1.776082528307121,0.4345044225401886,0.20095197257776254
19.723879975,-3.0239143270056665,-0.4107029936663112,3.254640431773243,-1.346447535951445,0.3794314780520649,0.2040315375400591
19.923897708,-2.8060168771379637,-0.9733128462003466,3.1450300686966033,-0.8637316802303937,0.3909376006290754,0.19718205119423468
20.123848111,-2.316114823729717,-1.3916586250146334,3.1408844594723893,-0.43775342027294234,0.4210870037399351,0.20641450833917666
20.323839903,-1.6788330904578703,-1.569189998712458,3.1676193443274814,-0.005599991225331807,0.475548397461952,0.20875490359019908
20.523833528,-1.0664631552271542,-1.3962432359325319,3.2794962991332604,0.4624856664971926,0.4653327580414008,0.18642319858669285
20.723834411,-0.5667208812745523,-0.9601701424863767,3.3456903810183998,0.9616423238889101,0.49052072870515456,0.17106767849008944
20.923887803,-0.23255313938916114,-0.3460155972615343,3.58889795746617,1.1593431057785415,0.5699705537700435,0.014305544396825269
21.123904458,0.04335728011252626,0.39546023906342276,3.8372612473663863,1.0945088637398404,0.4389058734964356,-0.10568998539369054
21.323878222,0.44798905508915166,0.9332637760269743,3.67596826715336,0.7815825079187315,0.31281974880621355,-0.14693968135953023
21.52391914,0.9936202692781699,1.4242083486346433,3.4826114443784015,0.39605934132594517,0.2884648865412758,-0.16364310426039202
21.723853803,1.646059079442486,1.5306224008570648,3.239176456841555,-0.024775942928302784,0.290514431429847,-0.18606829505989386
21.923827805,2.303232842500158,1.4583730898405884,3.0248003644825103,-0.44154236106729916,0.3411804224239466,-0.22051222930627906
22.12382603,2.7698744764252767,1.105503632499105,3.011090581611169,-0.9209107681365011,0.4877512031294545,-0.23702064524083982
22.323890974,3.0432074403478753,0.5038447962039628,3.2137766031450554,-1.3127706830125645,0.5825149393195198,-0.23670474804468236
22.523826621,3.054532998034013,-0.062081528984772094,3.369359389444747,-1.8013017349654452,0.5566400238789923,-0.22604243038396146
22.723827198,2.7126827169930157,-0.7312023577696899,3.3768048942931572,-2.2690087778570067,0.511797766033819,-0.2200248222854364
