time (sec),x position (m),y position (m),forward velocity (m/s),"heading angle (rad), from x-axis, positive is CCW",throttle (unitless; -1 to 1),steering angle (unitless; -1 to 1)
1.131058667,1.3427993669209057,-1.3013269911031187,3.051923952608245,-3.2978412048210464,0.392006729974458,-0.19350932797253578
1.331055849,0.7840491773102406,-1.093018094704889,3.0243216897768535,-3.8241896830721265,0.3511558490810082,-0.2009210462048118
1.531059549,0.3820124674780128,-0.6431389253523304,3.004742510645038,-4.218545531674554,0.4597583508318689,-0.14619953965886484
1.731054182,0.1060304423526143,-0.0006819775673630388,3.3274655161962183,-4.2938531076851,0.4889232825282732,0.029327282619316445
1.931053933,-0.203189131996691,0.5282069338545475,3.4339870830802277,-4.149694325909608,0.34531561395970495,0.14435872015442155
2.131069856,-0.6545461915780001,1.0943911809764715,3.434077709186299,-3.8174646969009145,0.2903988986859317,0.19594341756006825
2.331053323,-1.2184632870939318,1.3700218854721542,3.2300886312551995,-3.3288285134029394,0.34827027215718337,0.19415496071987443
2.531059664,-1.8721564768982557,1.3816531100317342,3.2663633108766867,-2.9067813078328215,0.4093222895993745,0.20237246575338838
2.731063438,-2.4317084778501026,1.1330830264193894,3.2772715034607396,-2.460995186550023,0.41658579861522516,0.20842327753914375
2.931056098,-2.8550783410482325,0.6665293960343692,3.2556176630821176,-1.9689392379966169,0.36596123995631935,0.20761528266143509
3.131064072,-3.0600417210205886,0.05490372583876653,3.276132310017277,-1.5985893541008918,0.3532313824276038,0.2030667214450054
3.331053926,-2.9108805697433073,-0.5743338862930498,3.0648594640490066,-1.0944979821153211,0.2836325078421517,0.21650103388119968
3.531084593,-2.593775223273961,-1.0947346662196609,2.9695880805981396,-0.7220599310449987,0.32390448328289945,0.23061658110798613
3.731056057,-2.0871151551833265,-1.3233811519978682,2.9308551532912333,-0.2587225226614594,0.4259253559909599,0.24372356870950299
3.93107352,-1.4864551503601227,-1.3198788215879902,3.0481453639781964,0.24722679362068295,0.4720549704485034,0.2365317104525134
4.131055647,-0.9343775119794565,-1.039047012782881,3.222808658237423,0.7126779274094763,0.45988071068732395,0.21930508580319474
4.331058119,-0.4785096516124495,-0.5303644276698148,3.335150174495267,1.1254686893352157,0.49943960325350456,0.11830533919344473
4.531056442,-0.21310712786159194,0.11893450571682067,3.6265754228305878,1.119676040016197,0.48056054305784207,-0.066789846156371
4.731096181,0.23596379136789467,0.7529869879053562,3.623829756675125,0.8057662279530925,0.39291274568816825,-0.13107681236672003
4.93105394,0.7173524111386227,1.109068418691624,3.5860557025109188,0.40072944554785833,0.349772138467095,-0.13375187749171577
5.131055274,1.4712829456657683,1.338526154469064,3.2506608517663445,0.037021404698342045,0.3115584862349066,-0.14431916973779965
5.331056549,2.085088679124064,1.211727529789171,3.1478559705420324,-0.35055112949721634,0.30170136472021314,-0.16763802392483856
5.53111224,2.578861353148308,0.8997614186685162,2.9751559564354837,-0.8433233403894429,0.322380330510191,-0.1996984683053664
5.731061314,2.854040053173925,0.431488309725515,2.9133898667542013,-1.2879519350481103,0.3975119968269756,-0.20993332139819676
5.931056704,2.933997205118674,-0.07916294543951334,2.9746300854791397,-1.6949522113759667,0.4605168547197369,-0.20596977410559325
6.131065383,2.704874955441998,-0.7037206454989899,3.0301960137385895,-2.1977078145417925,0.46118215399703644,-0.20221778396221046
6.331083688,2.2838788242193124,-1.0806603667958858,3.094116116074172,-2.6925950819713163,0.4625201817151604,-0.1932826555391664
6.531068962,1.556313246032826,-1.2456355166947268,3.0527339158497915,-3.184589240558914,0.42165769452873914,-0.19192587134998804
6.731076782,1.0891092675203329,-1.1457505213644503,2.9260965366084863,-3.566356488599734,0.24083074110962993,-0.24846582236396175
6.931058443,0.6351450081292647,-0.8119539648866532,2.745435550348962,-4.087023857496482,0.4487979194896196,-0.19158023635132818
7.131089586,0.33743933082150035,-0.3178894500506281,3.1499478302663255,-4.371894963796865,0.5368681282402971,-0.047448354028300804
7.331057345,0.13873188476091214,0.2730999064101876,3.4584060345889385,-4.3130957885786225,0.41813135346953395,0.10673998126201374
7.5310623230000004,-0.22395716110605374,0.9273430391377542,3.4669027662216667,-4.003357589846589,0.31376227149486874,0.1822621463022303
7.7310579960000005,-0.82407242326162,1.28014731869492,3.264719381440634,-3.5799448896902204,0.3259522675913479,0.19672409008306804
7.931053636,-1.393733807214008,1.502374925716209,3.259218744312928,-3.0772394527420124,0.4115920349775273,0.1929977518272123
8.131062755,-2.0158495722568768,1.2920025751975317,3.2295649150047816,-2.735410952336211,0.43493523922086946,0.1992227203373169
8.331053998,-2.5500223133723883,0.9439581978193614,3.3149798037026974,-2.2497486941836673,0.37425697373494116,0.21705366626173198
8.531126125,-2.9079709780944403,0.32787653357193985,3.2157265420076384,-1.7713138998261446,0.36378844344019634,0.19216364248691364
8.731060043,-2.838826178461659,-0.248563804037588,3.1159566434260575,-1.394748870228032,0.3155997178864239,0.20169028364928618
8.931054197,-2.5995501365688876,-0.8485024569732131,3.0087994318405555,-0.9416137931225851,0.30326242791328917,0.2116455646902068
9.13105862,-2.316378779486787,-1.2199422501932125,2.9321959582302677,-0.4447659565950707,0.36017167498190744,0.23866693397801014
9.331056541,-1.6231945807236763,-1.301733592319853,2.931954894965565,0.005275742109648932,0.462998362620365,0.24200752480127918
9.531055096,-1.0645057400756457,-1.1657820487149695,3.0481540051652765,0.4902049198487881,0.4704654944638829,0.2265972403518574
9.731060496,-0.6065202226906208,-0.7633146309736288,3.2062528111624315,0.9722480888717903,0.4708004393762448,0.18559744052986635
9.931055753,-0.2803549725186818,-0.20739231133468033,3.5089592364451945,1.1099106332967001,0.5471695009640262,0.004717520766418303
10.131058416,-0.03834499979828733,0.4474593113116109,3.653244105107467,0.9940960695100926,0.42868685115179567,-0.10550745102986012
10.331065975,0.5111445126682544,0.9944233368837938,3.5876809612281058,0.59345662653999,0.3592934045187939,-0.14883911224495835
10.531057646,1.143679117264155,1.2467746355972633,3.3569856516424794,0.17452829935903516,0.35107488551464144,-0.14982564724770012
10.731059336,1.8035288417804132,1.394413772709616,3.2160522319620557,-0.21156108625213874,0.31716263514329435,-0.15901460657221014
10.931056436,2.339722646103885,1.1967324068625826,3.071345264772263,-0.5619909992441806,0.32466177882066904,-0.18806776748101103
11.131066515,2.7888021215352468,0.7735505170037245,2.93511007156868,-1.0567536556543153,0.3887637633570765,-0.2106514104394879
11.331055809,2.985194499897872,0.1989447407863098,2.8943327853256724,-1.479551094443252,0.43795743956458627,-0.2198416357449519
11.531052441,2.895171785945624,-0.351877048707158,2.962700306612779,-1.9232512423382615,0.4747957236166941,-0.21466003400520767
11.731055804,2.5275690733002185,-0.8388003569341242,3.0116055524826844,-2.4220350529698096,0.46786212741696426,-0.20671280561677324
11.931052539,1.9292263156267977,-1.1688183532113419,3.1164480668551793,-2.8506823644850026,0.44715955487006187,-0.19205856601317237
12.13106493,1.342006525155546,-1.2282958651205262,3.1421077908049115,-3.338543655545246,0.4020671758619747,-0.1993150876171928
12.331060489,0.8620111853194148,-1.005986800376639,2.9361096226770105,-3.7551140128115534,0.3619807066700147,-0.1994509147509425
12.531054482,0.41820315748187153,-0.5571564763276549,2.9372340391934664,-4.201599448404363,0.4564982455331876,-0.15125511919679374
12.731058552,0.10887481183041922,0.0010424192977500617,3.3412169934838203,-4.32045701265877,0.4976651745392356,0.03262361769604992
12.931060959,-0.15589733360508348,0.6274006828122494,3.491224370543542,-4.150885865764712,0.353797789514493,0.14107688357872536
13.131058394,-0.5408090862987758,1.1279506840206768,3.434585366101707,-3.764010571760159,0.29588622037629403,0.1921658351704957
13.33105783,-1.1608725617145377,1.340567158212884,3.2697329329931497,-3.3236017765477723,0.36529705217489966,0.18599497002736953
13.531051294000001,-1.7345527249762662,1.4434595323028248,3.264250169533297,-2.8930774138717545,0.41841569881291774,0.19860007558428894
13.731059496,-2.3594170886988066,1.0826869523083014,3.294664078038621,-2.421916834599929,0.41200927544437976,0.20206573834417832
13.931062742,-2.817911024058059,0.6149408982665694,3.245323553028499,-1.9551596098094421,0.37496148339129126,0.19625104413181252
14.131059877,-2.98668128427934,0.03575065418660761,3.1868772945946815,-1.5766317798332308,0.33585721114352834,0.1960292022791268
14.331058416,-2.8681042210165884,-0.6208950781930154,3.0533325095417343,-1.136645157977537,0.3055476713192178,0.21153580141416112
14.531054346,-2.5089819761554493,-1.1063995956799941,2.913930515811863,-0.6292397076108357,0.3245409883150508,0.22720564616897618
14.731061347,-1.9855447077418753,-1.346756730842474,2.946957030141018,-0.2046724317992556,0.42813864739585306,0.241760682903967
14.93105392,-1.4450559631938358,-1.3187626720968209,3.0433395393116616,0.2977780839921814,0.46804980446368083,0.23457717271915376
15.131112696,-0.8555861647475472,-1.0434527582973347,3.140785885916974,0.6513730343411409,0.45157916446889534,0.2195909080287179
15.331114584,-0.45031403587727037,-0.5354970405531742,3.344569892235649,1.1264817700651186,0.5138250632656252,0.11509733964954078
15.531129957,-0.20830406153447667,0.11508179104928452,3.623916831515959,1.093714761768647,0.4849000040900303,-0.07486990482418905
15.731101614,0.22059195648473695,0.6937597260184238,3.6806174703862125,0.8202519995681323,0.3909377512849198,-0.13526899945318135
15.931059845,0.7375108104451118,1.1641138829187145,3.548645688985285,0.48177453893802563,0.3591829344872994,-0.1482997476907566
16.131054516,1.4560533039939048,1.373032063901131,3.364126716716373,0.10421655313943923,0.3207845002579138,-0.15620156713628103
16.331125418,2.032415711792283,1.2561242068169383,3.118425395909901,-0.33779974250686207,0.31970577912255754,-0.1794234029292097
16.531094496,2.582737174921919,0.9543143205375004,2.959422130794805,-0.7475693361828838,0.3352615959185014,-0.20720921957120655
16.731061575,2.8728905682037005,0.46680462059019306,2.909090014223068,-1.2329294201699217,0.4004109952599451,-0.22188422549226963
16.931060024,2.9546153499229924,-0.09225327856409225,2.985616138389019,-1.670390123795813,0.4643126153402079,-0.22204536419291318
17.131059074,2.712251064488824,-0.6139357923272534,2.9405429470007642,-2.166378717739724,0.47281534689719057,-0.2168341671895065
17.331100881,2.3214744403179224,-1.0250357073092227,3.0504724875482063,-2.629476186595713,0.47442050010524106,-0.2069063356738014
17.531090454,1.723903663927882,-1.220846624881624,3.0762350403807224,-3.1021935979855804,0.4311789188135073,-0.19785647127340383
17.731076939,1.18732541877735,-1.1585937521088516,3.0300032025461117,-3.5216978950726303,0.36506363693638055,-0.2041402799982522
17.931053712,0.6517249851511755,-0.8390498237306225,2.941358061806466,-3.9408993426799994,0.3835667697262366,-0.21475050417466082
18.131057843,0.3574161552549012,-0.3763924535857705,3.1248419493823865,-4.326457445803598,0.5058872158620685,-0.06398658180574493
18.331061001,0.021479346715752287,0.2585896862210928,3.474870093153752,-4.2758519377665,0.4244403939394346,0.08835265094608011
18.531050081,-0.34694531786884125,0.8662235821928533,3.4877837503887044,-3.9627886643303967,0.32940801071199355,0.16783163019675795
18.731058021,-0.8910584517744996,1.2206375417153712,3.348357682813277,-3.548371646192569,0.3142303502553971,0.18251351473574526
18.93105668,-1.5313466842799244,1.431451408678349,3.208331279865172,-3.0555344034633407,0.3881261883391986,0.1880579256724218
19.131055468,-2.1289317339261413,1.2601315766834715,3.2889803600497634,-2.736804168757261,0.42769833971515003,0.19812643228703083
19.331055262,-2.6442327602594156,0.8414681820235012,3.239560109149594,-2.2134787182466553,0.38269222054568514,0.19500851565404123
19.531074638,-2.963389158964379,0.23594658319638728,3.1707211304897065,-1.7354332612924535,0.36670941475329366,0.19066869010428697
19.731057286,-2.9650446017269445,-0.3789717823563806,3.0689745448669354,-1.3209019591376154,0.3462355165340875,0.19624646620634112
19.931059615,-2.7439739635321914,-0.9392323608910516,2.9723547930847776,-0.8783338605410173,0.3043852015687316,0.20930914324124486
20.131062324,-2.272926753924673,-1.2808729397979168,2.9474615633704206,-0.36317470664114804,0.3670989686331933,0.23523825728271788
20.331065253,-1.6764371944574696,-1.3762320662431657,3.0199359202938894,0.08985347698809218,0.4577911044555263,0.23249599099518764
20.531055345,-1.1283971904857597,-1.1696889246316606,3.107412829955157,0.5440193802812845,0.46497813682832745,0.22603861249111315
20.731100503,-0.6523027321838957,-0.7689974397194722,3.1745545115083433,0.9676955125020443,0.45377319867354143,0.20229817879918882
20.931054504,-0.31786492467086613,-0.2095561125508095,3.4250149782661055,1.2265699463917454,0.534692874704847,-0.012217265868792819
21.131055634,-0.020009649097159167,0.43338887614499605,3.6190916809923284,0.9854890824555272,0.42938910004966135,-0.1190429617373974
21.331099372,0.4277039243135307,0.9534060632067887,3.55059156285223,0.6465216405619465,0.39507650835292035,-0.14951057057526307
21.531071793,1.0377754321528825,1.3522614937123845,3.380274947332347,0.21092880134642544,0.345717295875767,-0.15435846418421978
21.731053824,1.6667979517901215,1.3633207126542475,3.261719196072205,-0.1309780309784393,0.31917352610128363,-0.1631274485033233
21.931054933,2.3142503716277263,1.1332863138067777,3.0023942029197492,-0.5890594689881707,0.32236089372218296,-0.1903468896395272
22.131059558,2.711605273226914,0.8008970249672741,3.0186091448632792,-1.0306810053144497,0.374871454428797,-0.20853297774346083
22.331051583,2.896296109063528,0.23344842715320072,2.9290600504237236,-1.454141481246005,0.4400103654866329,-0.21927273598280403
22.531057507,2.8293662024903354,-0.3283428662934199,2.9716106146550647,-1.9285425195549832,0.46181603540776356,-0.21154633524366015
