time (sec),x position (m),y position (m),forward velocity (m/s),"heading angle (rad), from x-axis, positive is CCW",throttle (unitless; -1 to 1),steering angle (unitless; -1 to 1)
1.134739925,2.308386019954999,-1.1147031869529236,3.2832581696901215,-3.005703236400017,0.47428477682941733,-0.26436266903652395
1.33473707,1.648132492268503,-1.0905937724278918,3.159691722349989,-3.4603792095453176,0.37650319259076964,-0.2573431803403921
1.5347302919999999,1.1011803684598245,-0.722909666630102,3.1954763728905675,-3.9909820830334284,0.4539081036460494,-0.18504149589996488
1.734730474,0.706224278674028,-0.1781242310964617,3.5275015467827773,-4.132001863107496,0.5859258266161382,-0.014621332467023013
1.934754957,0.18302441833643282,0.3721134866245528,3.8210336750293177,-4.048981710063657,0.40056357064208825,0.07489265082194738
2.134728051,-0.3369690169282341,0.8812984559697055,3.8526262688158113,-3.755522937103494,0.25278767758455495,0.13572597161677313
2.334755312,-1.0533696112246225,1.214194005892815,3.5525079904864643,-3.231635062738235,0.21689168442867057,0.1526084612407777
2.534735104,-1.6311177019219045,1.2340460905030064,3.311525876654627,-2.8347192462146706,0.2884026331514864,0.14984685302513145
2.734733117,-2.1816502565790676,0.917287158785408,3.207561113888252,-2.415455933431223,0.37494419503326804,0.17392939247268113
2.934740868,-2.5947671935124204,0.38529674148915666,3.1611918285813596,-1.905988557183858,0.4030221171864786,0.18258426249233445
3.134735302,-2.6640033180565723,-0.20329758351974356,3.161055404234358,-1.453998902186303,0.3933219446670198,0.18832633978282473
3.334740623,-2.5564979993286876,-0.7947502924868463,3.184748955303236,-1.002499639270624,0.4048897096070895,0.19994982279961623
3.534734658,-2.1034467319535977,-1.287270044550858,3.1587401408795452,-0.5857010614287932,0.4323541483395963,0.19918612038514324
3.7347352430000003,-1.5592894267110635,-1.5449169990444693,3.2419776811234593,-0.06132922921513009,0.4268375310508666,0.21014446504567533
3.934737747,-0.9153312667087468,-1.4811454004594673,3.2379475009639407,0.36410698981384526,0.4400073444546797,0.19515031533994381
4.134733986,-0.39978350167862164,-1.1152237521127295,3.214675383528309,0.8839557717002281,0.4147502370115298,0.18686280568552688
4.33473323,0.006699681730605655,-0.5974170649940284,3.308794723087311,1.19667764448414,0.5149327028500487,0.07938786625986474
4.534736131,0.23885807042994772,0.08146135052999415,3.6436955760269316,1.2533919009110448,0.46798912041214735,-0.08706951981035743
4.734741665,0.5738706694059759,0.770937276798134,3.598076326941806,0.9298365030850793,0.34083431008505055,-0.16201584092620994
4.934738408,1.0431281244639785,1.2743744743257484,3.505914012222797,0.5171775687711645,0.30875014541926615,-0.19328284993503891
5.134731736,1.642512939740319,1.549366128749765,3.319475067368146,0.093608093142476,0.32341779180743246,-0.21521072269692626
5.334729784,2.376227996701196,1.4859199301383494,3.216270054933405,-0.4137875521176814,0.3828518357766516,-0.21710344075138668
5.534809178,2.8473483860996076,1.0616978818417078,3.197061824556345,-0.926494892328616,0.4879929602673837,-0.2363486370740677
5.734735127,3.1855767210184136,0.6147424639656618,3.313744086210213,-1.237133093965425,0.48274090882888393,-0.22930263778481033
5.934727212,3.1613372095694494,-0.17448255978416838,3.3568557797410166,-1.7786326354873765,0.493740380892229,-0.22622805702041757
6.134736122,2.986743584760195,-0.7613432276532092,3.477234167851906,-2.179937834035309,0.48128128276612336,-0.20981281036369384
6.334740677,2.485233582553616,-1.2407127859056652,3.4618537329639,-2.5910851847249394,0.4398927874050237,-0.18975071824308887
6.534747095,1.8384645836242974,-1.4786294305290102,3.5053806749199725,-3.0317569705490635,0.38877883837104205,-0.19717734890538582
6.734728811,1.157965564411684,-1.4502461841274483,3.255110031131967,-3.5132511192206985,0.15364922442692222,-0.24320452368805176
6.934730182,0.6066779529021203,-1.1257035853349404,3.010071254159135,-4.04808500376638,0.4037316508915581,-0.21061235093357536
7.13474933,0.32216571102158675,-0.5522981683379761,3.3902265079720286,-4.274066061837339,0.606101168967475,-0.056047562898687654
7.334704649,0.018964251751007504,0.08239836804395646,3.689561148912808,-4.222607856077514,0.3961083215883861,0.06189634409001392
7.534733415,-0.46368128062286307,0.7598805895995104,3.720744016158215,-3.9141348841103665,0.24567360677576225,0.12767264672785153
7.734733352,-1.0042311595154036,1.1915687070388379,3.5186306590094256,-3.5673258660398655,0.19699921832803724,0.15311876634987556
7.934752978,-1.6014274202775183,1.3355517730312116,3.188826599242514,-3.114278872098115,0.2599988733568805,0.1665914495976145
8.134729509,-2.1918882701822118,1.2000607475243845,3.0896704452573283,-2.6664095146841307,0.3680131882205747,0.18186111875123454
8.334729173,-2.70763485488115,0.7939239441152548,3.0904245947422866,-2.1615532469118,0.42157099749651206,0.19532080032116672
8.53473369,-2.885976628227937,0.17078866835894382,3.1608981663427635,-1.7635229876896135,0.43005778598818256,0.19169938650499277
8.73474557,-2.837642712667323,-0.4087977781473899,3.2062032607885738,-1.3070658060555695,0.45002769755430366,0.18773299161580587
8.934732499,-2.523522098311682,-0.9221665723778324,3.188506240019686,-0.8154583488127453,0.43034824895042534,0.19367190369125284
9.134858932,-1.9959637905131657,-1.361045606546422,3.2132870407647447,-0.29926198628347633,0.43684277633225393,0.19498124927996038
9.334734023,-1.4208855885322853,-1.4043368015028677,3.2262688740238263,0.05398669217873088,0.4575230130442104,0.1991031563636031
9.53481246,-0.8188845605825842,-1.2125827906450926,3.254701596651266,0.6077188701803984,0.4098973842632111,0.1901013993079207
9.734734319,-0.294482709616707,-0.7334941698710513,3.2305257327035726,0.9917275703090507,0.4292978323237724,0.15884682672902223
9.93474856,-0.03846260767390553,-0.2298813530965319,3.505872361044136,1.2247287038391983,0.5592452144423443,-0.024943745988628408
10.134745645,0.23250584995705123,0.4695730064067742,3.6672622665578043,1.1539579276278265,0.40802364091231963,-0.13986623092216993
10.334738146,0.6034989815984991,1.0764412443284754,3.667101799649515,0.7679538081422846,0.32800500921427994,-0.17712159992168772
10.534731063,1.1831466437321583,1.4807358706264817,3.4812689416456206,0.33783436075568946,0.34412539676871917,-0.19823306184905748
10.734725722,1.8934384740648327,1.5743130900574696,3.313524478936061,-0.09745060745513022,0.36029248390516183,-0.21691722858828863
10.934728295,2.5556900267876603,1.3462455439271148,3.3003538973356554,-0.6764611473304879,0.4343710268489431,-0.2329796485991499
11.13473665,2.977806242247913,0.8862353951815328,3.335747098374387,-1.0613374360273455,0.5247621984586979,-0.23849184427699052
11.334725632,3.150272750945096,0.2315467473543938,3.359171234841012,-1.5220611022226431,0.47653348966706316,-0.22956105410902153
11.534732962,3.0717383281657678,-0.40978854816985616,3.4152913934476894,-1.9553901029078213,0.4916711173189852,-0.21669850400137738
11.734729329,2.7116285451974873,-0.9866649212270328,3.4581648312471365,-2.4051764344457354,0.46107647756972603,-0.2006467376490111
11.934734858,2.10782054886206,-1.3714200439816753,3.4323105485475685,-2.843446508880326,0.4071773751139884,-0.2006749658534446
12.134740762,1.467744536623745,-1.4422077072030097,3.402965445291567,-3.2995888874465935,0.36999440269196965,-0.209203111505902
12.334729728,0.7632964889039433,-1.2990658551145344,3.277003972522896,-3.7173996907734006,0.34176822463588613,-0.20758112258862718
12.534729749,0.3716373144743712,-0.8720692774330776,3.281812840426317,-4.100710427608077,0.45915920908514624,-0.16500192345496748
12.734729604,-0.031431669200531524,-0.17320295663892676,3.6293472653573677,-4.251084533835301,0.5206982655123811,-0.0013744997692265925
12.934730287,-0.30100003672131864,0.43438273172619596,3.773270336793365,-4.11890082435077,0.3131262731437362,0.08521601589699518
13.134774631,-0.9031116148005633,0.9904986583184863,3.740885342251246,-3.8232916487223205,0.18345639110367068,0.14538020252340056
13.334730797,-1.5475419994359598,1.2891052278034913,3.3079653067422985,-3.3125949210675225,0.17572608690666155,0.16621628331796318
13.534735499,-2.1165590189051016,1.3440046285680272,3.0143399634880015,-2.8440209258323583,0.2753764123594641,0.16638504808691795
13.734743683,-2.635839479103822,1.04236491015613,3.0142769784368166,-2.389927274871646,0.40343430913217376,0.19938827320899552
13.93475813,-3.0162266592137397,0.5725294456647427,3.1102427490115465,-1.9031565033183564,0.45534472454145025,0.20424613060662028
14.134731463,-3.06253184901713,-0.12586495190218305,3.203541669767369,-1.4840922404312809,0.4518713753213726,0.19894941494511414
14.334728751,-2.884716133989839,-0.6536796304336255,3.24307885734495,-1.010544065147441,0.45589014342260853,0.197187302705542
14.534742199,-2.410274891684198,-1.1265287906193677,3.284593631442397,-0.6008280060133679,0.4632882597967229,0.19556651116759155
14.734736526,-1.81334456823361,-1.4118092276730576,3.340837470843111,-0.09955184061162012,0.4425686289723892,0.19901392359934716
14.934762376,-1.1937057576473915,-1.3478098095775262,3.326670763459778,0.3498253807582636,0.4250342232644472,0.19146665603099716
15.134741974,-0.6397679609247763,-1.071498468676181,3.2845843466569047,0.7923672507115737,0.40513919438689433,0.17654134678913924
15.334729013,-0.20655303845098022,-0.42391293162171373,3.3292180830938163,1.2480493132559118,0.4707190252483564,0.08352560745694855
15.534741891,-0.04247456913056971,0.18343724282295973,3.6391040140485824,1.1790569245257971,0.5096415186630999,-0.1045627961654016
15.734736927,0.2842493376284292,0.8316983347577481,3.7079956037837216,0.9331726197657105,0.3583926588867737,-0.176314402827143
15.934734289,0.7847463100779664,1.4013699819995165,3.5722022331557364,0.5192863841380413,0.32000276664201727,-0.2026980939768778
16.134812233,1.4798380793071362,1.6436868050398457,3.511104409072757,0.12355336335648136,0.3604727368876043,-0.21376572131338548
16.334733672,2.06690339426848,1.5957566621381174,3.3473272249826045,-0.31450752467816756,0.4596309401802432,-0.23207707853318393
16.534730592,2.657124981470407,1.1963360265541942,3.3346309938071648,-0.7535036007430684,0.4464027059323791,-0.24716409556473357
16.734727512,3.0577791680395126,0.6259475573153097,3.3702124741565718,-1.2210539701292307,0.5052908720061761,-0.23968044933299962
16.9347413,3.152439977539569,0.03440783990482235,3.433638914342312,-1.6934745437418548,0.4916705032730846,-0.24075993099578152
17.134733956,2.932029198005247,-0.6445974442523963,3.40257504414464,-2.1274867238742092,0.4774232732970285,-0.22593212786243178
17.334731742,2.497364904790715,-1.1135257037147555,3.4825328297526807,-2.5608879703284932,0.4402830047012044,-0.2183906711073525
17.534774281,1.8136446488755058,-1.3817597197689728,3.395202811875219,-3.024147984781325,0.3753619149017809,-0.21354270438451706
17.734738331,1.1438113034349993,-1.3842392920648026,3.3490808847852067,-3.479121729480076,0.36370890813141266,-0.2171631427344114
17.93483326,0.6285815671652519,-1.0403794215134508,2.9632286612885426,-3.960129448568596,0.332430601038371,-0.2598682398143162
18.134736047,0.290418507041254,-0.5622165143468338,3.353178642765366,-4.172208885456687,0.5919192694544835,-0.07117018417928911
18.334732609,-0.040579646665188665,0.05574048048100704,3.6779984966902317,-4.233429191405774,0.4315115196204776,0.04755668260578367
18.534729831,-0.45957953571787064,0.6687925316852635,3.7364063698323844,-3.9255797011808107,0.25400149948829204,0.11287815262485446
18.734733932,-1.034404999819464,1.1167133675850085,3.4828407907282433,-3.5124580702414865,0.18054049122869362,0.15427295185858045
18.934794517,-1.7478333375638702,1.216100155296384,3.1561331726351174,-3.050048890970439,0.24334069281086962,0.1562281674370864
19.13472975,-2.299400654076583,1.1620448280310294,3.0461119904816734,-2.575608880358884,0.35642873697676936,0.17291192373536968
19.334824416,-2.690586241094782,0.7884817497496724,3.0618627769318967,-2.1260963713982193,0.440572914736328,0.19427806377462287
19.534747223,-2.963572545816489,0.10377069573490418,3.125298950551982,-1.6955199656418947,0.4364579111832501,0.1830629374528641
19.734731985,-2.8637929361764636,-0.4476542341788161,3.233428881501527,-1.1757733680132723,0.4343278613219659,0.1824901270365281
19.934735731,-2.548698373081949,-1.014955598699792,3.2178934177745226,-0.7522873807800645,0.4479461577996016,0.18417424641449212
20.134752779,-2.01580415302337,-1.3590250355559013,3.3253472578198426,-0.3070376372917853,0.4464702775406957,0.18294884539572845
20.334731529,-1.3721374742873913,-1.4042864671927708,3.2774078557598862,0.2008157943771122,0.4418072880410441,0.17659672957364844
20.534840186,-0.6923144949028247,-1.2216316698849674,3.303501216396588,0.6504141703327402,0.4162546781097506,0.16179191421381625
20.734734917,-0.24512726085415465,-0.6997587944848321,3.2951117861164088,1.090925433188661,0.4398202726995831,0.13118111347851774
20.934734391,-0.04767013735018678,-0.14917937354024388,3.4720452089521214,1.2927310225590132,0.532411694760558,-0.03574381537758677
21.134726975,0.17983654962632684,0.5770865594691247,3.697399517944378,1.112070405104573,0.4100316986020617,-0.1410366955790881
21.334819948,0.5975040936229165,1.2002619299458905,3.6051316795979793,0.7203003211410994,0.32880476225666255,-0.1894406820898579
21.534729438,1.191146214543259,1.5198592031434726,3.4531859645752294,0.31245576415929094,0.3502314775553065,-0.1966980946519215
21.734760263,1.8301457638262888,1.6062532516621622,3.317590503009009,-0.19100979573704413,0.38183164975292266,-0.20558481016595417
21.93473617,2.489901918236434,1.3991931534171047,3.3042279659818345,-0.6493498521041114,0.4354539253574342,-0.23116675366351336
22.13483736,2.892000538487452,0.9568372752803304,3.3488809252210117,-1.0480663551123224,0.5049051408409995,-0.23402453290051944
22.334734711,3.1520971513919935,0.31996383357333996,3.435234898077997,-1.566519105393688,0.487154592327749,-0.22261269874871997
22.534737357,3.0515724850851376,-0.3388992306639566,3.435811049442893,-1.9712537341388592,0.5072049098208037,-0.21626271497276645
22.734752177,2.6611182428719915,-0.9522154481427983,3.45612526087329,-2.3792304225857985,0.4579026840810554,-0.20450852592555507
