time (sec),x position (m),y position (m),forward velocity (m/s),"heading angle (rad), from x-axis, positive is CCW",throttle (unitless; -1 to 1),steering angle (unitless; -1 to 1)
1.1364855600000001,-0.2063384463771264,0.3807067016123539,3.6498416064199,1.1804807058741196,0.4632769299795736,-0.11125558113072384
1.336488433,0.13292886504621454,0.9850470899623459,3.6297129926748704,0.9525394728632501,0.2966214784798845,-0.1885270019736991
1.536492798,0.7543155512320585,1.4237033822117804,3.4216742698762257,0.505401649642958,0.26413937498297463,-0.20902844341328328
1.736488267,1.2805949390590767,1.687682794226654,3.2169118969647346,0.023780339162958464,0.3645585704636403,-0.23542965783201156
1.936479806,1.9340125320508526,1.4898590924082766,3.2005092167583804,-0.3995053759050217,0.44702098004564306,-0.24452729058329667
2.136488681,2.4640635023718684,1.1489186532889417,3.255798057246324,-0.8301262075513153,0.494844977665369,-0.2440183254540922
2.336578818,2.779855821361418,0.5446279231689074,3.296839717259066,-1.3379499500242702,0.49878901211008875,-0.24109496487344012
2.536478928,2.8228716205672737,-0.04909816380531583,3.308557348425566,-1.8167964735202702,0.4152174666075764,-0.23060166416368327
2.736495051,2.5549907006039367,-0.6098196991610342,3.253046237282766,-2.185457494552536,0.37040197014718435,-0.2339041365587977
2.9365608,2.0775508997659538,-1.101260060379654,3.1385055905182506,-2.6361392035695976,0.33565660472076114,-0.2407813857605045
3.136479907,1.4286191422982362,-1.2548064644595218,3.0536995901268678,-3.1308944503401284,0.3508067176865187,-0.2616584801492191
3.336483636,0.8774782229146292,-1.149209510504512,3.0330102880608036,-3.6000265124935535,0.4646127133253252,-0.265164728088682
3.53648232,0.41532232560528115,-0.7747667255959798,3.155084737949835,-4.1560617656438685,0.543754044737146,-0.22538614259262163
3.736492568,0.14242377106954446,-0.1460557211289785,3.4588359824254002,-4.325038792006219,0.5599752243876167,-0.0018064651879922868
3.9365383510000003,-0.18105876552980313,0.4692540698440472,3.7151755284248553,-4.182546752769649,0.3805254433978018,0.10205145049127086
4.136497519,-0.6390339017262138,1.0695051257538526,3.6221282402608423,-3.8511617683441317,0.2584372017101507,0.1539175132695882
4.3364809,-1.2262282977149865,1.3964634291938252,3.386988707862639,-3.33844960046309,0.2307110897275411,0.17833169315277128
4.536479038,-1.8835435990983203,1.524078259043194,3.239637123449354,-2.9619427672871064,0.29054925516783714,0.19678795573145602
4.736478881,-2.4636463088915566,1.3511207740295408,3.0725693981174933,-2.5795613370580774,0.352339486124124,0.21939726420102126
4.936479177,-2.8599000186780286,0.8675397194847354,2.996188488983133,-2.2080655661307076,0.41690599633314734,0.23376485746044945
5.136498311,-3.1089030595994376,0.3698101175070017,3.121334461787064,-1.6100703503770242,0.4927473583415067,0.22580390857143753
5.336487741,-3.0248221831129154,-0.29050896228827,3.1597666459553846,-1.119640129284921,0.5058528173310909,0.21033370220140063
5.536481303,-2.6868008909858427,-0.7557135731678429,3.2435881855658404,-0.7483321231702966,0.4662183752922148,0.19576553270025418
5.736534795,-2.0990443936772243,-1.1464902228659786,3.1984758569745106,-0.3291856594972603,0.40924936971695763,0.20164998839342932
5.936503377,-1.517403548434037,-1.2830040718891298,3.140898698563775,0.11414207103089788,0.34247399498056263,0.20931391105035232
6.136488968,-1.0305624602933117,-1.0944057353729377,3.038675692289546,0.5987408269652863,0.3636797562997273,0.21519298913215068
6.336582038,-0.5029683971402716,-0.6330734843583958,3.096988792051279,1.0489936851793675,0.46945458419161656,0.17921357690103454
6.536480165,-0.21502361372185824,-0.10946263930357675,3.480677699278443,1.1368274848167268,0.5485007743834945,-0.02921599075108749
6.736562711,0.0891578332371644,0.6082511289018558,3.6922643599729486,1.0869963371442877,0.3967716727389893,-0.139174223995632
6.936481795,0.5840273957227238,1.1322704849545802,3.6288797935324206,0.6763840630872883,0.2654141597259345,-0.19439297169118408
7.136486689,1.133281518361446,1.480873416609284,3.260524238737351,0.24560351296326777,0.26726156663640616,-0.22101945414785631
7.336500152,1.6987502052672376,1.4810490840251436,3.1483032110477573,-0.2137031493518166,0.3827579612506922,-0.2486040353679779
7.5364816359999995,2.368161696279072,1.2345014818613984,3.144037159840622,-0.6611834778971035,0.46741422505999736,-0.24755011562344328
7.736478901,2.7653212008811874,0.7246487173547279,3.273971903196544,-1.1057688029942583,0.4785687068915533,-0.24587891576085144
7.936503337,2.9105099167019772,0.19681178261849616,3.2957467391518476,-1.5366693437666892,0.4551262655692685,-0.23786106075422014
8.136491312,2.8099807359252607,-0.4365773805461691,3.266683315233185,-1.9757060687424535,0.39981945393480384,-0.22624093414990148
8.336491748,2.3893674406237198,-0.9647557203375768,3.1882393292947526,-2.4745751686181734,0.34578251991843045,-0.24150702953820924
8.536629696,1.8999181889737193,-1.305489747118286,3.1471053948197594,-2.8592549126429714,0.35091111313286943,-0.2548632731971615
8.736577082,1.2706419222615184,-1.3396553968195624,2.9984778747404865,-3.3580070093048495,0.40942637498628576,-0.25580910657599104
8.936479131,0.7304734672193428,-1.1043369742147613,3.0827489012159552,-3.8405436466674385,0.49882009720439496,-0.25675560771534706
9.136581835,0.36475252783868534,-0.5247620866726617,3.3280713220758833,-4.317063581432414,0.5837955835972315,-0.12279318187845738
9.336541681,0.012437893176861812,0.10129361203506687,3.761291077210362,-4.236515135157367,0.46490352918449285,0.049469349297916056
9.536478436,-0.3325684471927197,0.7281151507617605,3.7817919814798087,-4.102146965557706,0.30523671789223067,0.1319576569126356
9.736547634,-0.8743641883446555,1.2261764006497424,3.5666016185359086,-3.59900449476548,0.23208790766011855,0.17410898387928686
9.936479021,-1.479192951387132,1.4917345753518751,3.2250751107775892,-3.160308666308775,0.25179359434168624,0.17954919055487023
10.136479573,-2.1186500995539186,1.4439606890070558,3.111836371122545,-2.798934336204749,0.3146523192483551,0.20087920647194143
10.336477498,-2.639153899434723,1.0971956718524778,3.069065866315414,-2.2911987848374977,0.3960554644094532,0.21877141766152605
10.536482879,-2.920519878078993,0.549970653619308,2.971535688854568,-1.8073754812039564,0.43176996004242235,0.22386784786002642
10.736530334,-3.0676126800267363,0.018229997487893248,3.07851741448142,-1.4228954558481421,0.5091646881609899,0.21517375848640863
10.936480591,-2.788538517635551,-0.6158438383812616,3.2384248970740277,-0.9716503632053646,0.48290613871498483,0.2061679802476726
11.136571576,-2.4190925245062345,-1.071116054780484,3.223365437495402,-0.5350646616088469,0.4386454186275838,0.2043679813122588
11.336563581,-1.8398305419333518,-1.27898317466543,3.1976597082734437,-0.09469722989774018,0.3880547324957025,0.2144377340803967
11.53648734,-1.2025837984887449,-1.2777607987740753,3.1042149590510464,0.3360233722461719,0.34423342491917525,0.2103114966115332
11.736481924,-0.7409190552510921,-0.9171251959307459,3.0048503754071665,0.7868716246176373,0.394881442743848,0.21958618043704423
11.936482534,-0.2685092112064614,-0.4423021153470629,3.262208369302362,1.1336294518382006,0.6052286154509612,0.06333520954091425
12.136487064,-0.0201807069612468,0.22811476957897026,3.5693505067772278,1.131502931378995,0.47653911949127586,-0.09341482478859331
12.336486734,0.3116524270841707,0.8290682694332185,3.6235656723729806,0.8443840736253277,0.2991629306532198,-0.18261610609127352
12.536481653,0.8438343109154289,1.2703421222992648,3.3980175914126463,0.5271273602368601,0.26171203687216554,-0.21280695322317666
12.736479254,1.4819909755309708,1.4374066575824773,3.17817346003978,0.02353254618232674,0.3163533192031617,-0.2324671184022634
12.936482576,2.13396952198401,1.32473806477425,3.1839238789884816,-0.4243840815243866,0.42857964164921164,-0.251801457844754
13.136475286,2.5846168229250006,0.9959026507635078,3.165874148620265,-0.8695975035867585,0.4784211119880423,-0.2543930057458535
13.336479352,2.9143934245884577,0.3919070451042258,3.2314438879495273,-1.314952853678491,0.4622296834185535,-0.24928327074528442
13.536569848,2.9176675752475782,-0.22759564176949607,3.2613735867385474,-1.7127765847474816,0.43272712936245133,-0.2380676736859517
13.736482999,2.6740466785988737,-0.795187143766737,3.2222687171341287,-2.185472661182023,0.38261198930724294,-0.23961809011770038
13.936483411,2.1692585702452036,-1.2164382277532209,3.185926168415436,-2.6778762776622584,0.3563361704979433,-0.24276520801157378
14.136499307,1.6688291364281551,-1.343894517126391,3.0599581929184585,-3.0897251874434444,0.3916829212401273,-0.2592548123031875
14.336483839,0.9712040568411666,-1.2545513124533183,3.1242959539472674,-3.5535335706332756,0.45329769878788145,-0.2582990356089344
14.536500599,0.4794750986207569,-0.8347196094869913,3.201113759437463,-4.08995610065115,0.5448493006658425,-0.20843343924626206
14.736550225,0.1109424154399175,-0.30500978343774265,3.5788551515274065,-4.315959075240744,0.564616716960216,-0.021605118502364136
14.936491886,-0.14362480092432603,0.3764870997103013,3.778293824078518,-4.154747050582412,0.368643510532049,0.10062799375495146
15.136497666,-0.5625457389281593,0.998784641881127,3.6886481252435646,-3.8815164699368307,0.2521476745949646,0.1527676049035638
15.336497096,-1.1864342695563297,1.3501257787105134,3.431639528039532,-3.347180215189427,0.2445842991449312,0.1747951102721573
15.536481167,-1.8439392611202727,1.4362337356328614,3.174621143868032,-2.991695000192939,0.2774626328768338,0.18821663217239937
15.736572319,-2.4475219003262083,1.3086276288064596,3.0406787154668065,-2.530224470825645,0.3603547338356621,0.20095123065076295
15.93658433,-2.8568032209780108,0.8050457712039647,3.053018454894805,-2.0882448862706844,0.42856235124981273,0.22237478821458417
16.136479188,-3.0808605353421763,0.20287654630452256,3.1426286208104752,-1.652020764326993,0.4590116865737192,0.22191710324756805
16.336500533,-2.968816075947684,-0.37594616781668533,3.1508622754225684,-1.19712247281875,0.4868535190230946,0.20930104557260903
16.536493993,-2.6305326718174706,-0.9146631642166567,3.3136060355295616,-0.7587966088354707,0.45034052244255957,0.1966157635588129
16.736549951,-2.088078760245169,-1.3211854391484794,3.243394454326471,-0.3966366455944459,0.39975322715977535,0.19985253546114778
16.936480588,-1.4960496012428912,-1.372582189090559,3.1597224753846684,0.14126351069358475,0.35627544369026887,0.207837905736132
17.136544939,-0.9525226804223018,-1.2187468738765628,3.0590898444430534,0.5613961345109441,0.3664240646273088,0.21057139151968285
17.336480119,-0.4537553889009663,-0.8009559225385521,3.065497945244761,1.0545738151018829,0.49039416750803666,0.15567151686601463
17.536481021,-0.16188504401306253,-0.14143827645569498,3.4674440182621655,1.1751255948997534,0.58042834288152,-0.04004767638262714
17.736480149,0.1642466276606419,0.5452073858717086,3.662311413352593,1.0297245936776642,0.3738283923928216,-0.1361066469697878
17.936551595,0.565861456951036,1.0712013740151507,3.545368317456076,0.7226874894605592,0.24852708750673458,-0.20193011304563588
18.136496559,1.1837961374067363,1.3901917438006803,3.2858383351076985,0.34813838887872195,0.2585294536078767,-0.2246757426090149
18.33650862,1.7475537213304664,1.4255715906278545,3.115156014301197,-0.16063436571022788,0.3801702707246313,-0.2547730222296354
18.536491175,2.341960523402953,1.2228274594370618,3.1383978059567754,-0.6631726941514345,0.46604531041839825,-0.2564036873345726
18.736575692,2.7653276543699357,0.8132033967156359,3.206281021168173,-1.057848615943049,0.49857880623947853,-0.2549315035966279
18.936481661,2.8966586615704992,0.16387677537164505,3.259137460428844,-1.5506827074088725,0.46575068494176114,-0.24394408545103607
19.136524366,2.8333630439861412,-0.5230036890538404,3.2078144931851864,-1.9611674606881362,0.40509238587749424,-0.2424025995061396
19.336487593,2.4761538430215113,-1.0283914169466448,3.182996430161653,-2.45577320282311,0.37590664777658,-0.24564202681939964
19.536493203,1.8853505698786723,-1.298922568861074,3.1194868965482496,-2.8274821211287886,0.36006426126401264,-0.25315925136400713
19.736478307,1.2820541719530538,-1.304770611398513,3.0820242867297987,-3.362150923233046,0.41077064399157154,-0.2687583010194699
19.936478579,0.7448024331939385,-1.0962715962453202,2.8565241264865295,-3.9013453649669882,0.19493463690443397,-0.34660953921258497
20.136480517,0.4337362317665375,-0.6001393204907213,3.163911890772915,-4.304391648347396,0.65,-0.11466131595223066
20.336480028,0.1508109988603018,0.034087944482733,3.677417841566154,-4.218203948220743,0.5034558508437553,0.04276879803507794
20.536479591,-0.27199571349066104,0.6319133105832642,3.7706792755753447,-3.9616728071699523,0.33531996166047273,0.12331821483909376
20.736494047,-0.7680725963085733,1.190838171119953,3.633367230364413,-3.6156428821319055,0.24472767671822762,0.14979230352215053
20.936480173,-1.5455758285560806,1.4748009839959677,3.3375432032917534,-3.189598986059904,0.23151668205318507,0.184594191255922
21.136498232,-2.143960593827019,1.3454187988091015,3.1072248731245455,-2.8056807789257925,0.31525962775490773,0.201195283871474
21.336494782,-2.584162504994372,1.010337687820389,3.124439433737235,-2.3766383489305927,0.381717906380776,0.21380838348846756
21.536485062,-2.893443346681566,0.5271842375561617,3.0996374202927135,-1.868612014178503,0.4341846315659375,0.22980910807635377
21.736483324,-2.9937982174943314,-0.13060344206897356,3.0819357878200346,-1.4447251384468982,0.48656333711911914,0.21750962178933891
21.936479442,-2.8298392228540012,-0.7250240691078778,3.192020206680788,-1.0017021643897335,0.47680146147118607,0.2136435703877277
22.136479371,-2.412487039939051,-1.180416691768116,3.236055917520192,-0.5211371452632005,0.4357493829347959,0.20865343042515572
22.336481126,-1.7557011187232696,-1.3596756889538775,3.1845611261959696,-0.05537052978438753,0.3742427037942696,0.21198319206530733
22.5364802,-1.1298693072343624,-1.3390609226748074,3.120782784866825,0.34451170692108357,0.348720837838258,0.21961321349207233
22.736477445,-0.6921270730020523,-1.0558315967387006,3.059699346534525,0.821131376135516,0.40589719876606434,0.22032722625825238
