time (sec),x position (m),y position (m),forward velocity (m/s),"heading angle (rad), from x-axis, positive is CCW",throttle (unitless; -1 to 1),steering angle (unitless; -1 to 1)
1.135299298,1.1494136143299003,1.127070706469393,3.015817835313006,0.1685967323961486,0.34512113915958886,-0.2511379010759108
1.33529865,1.7704035301515901,1.035917723657492,2.9646185071355426,-0.32631061921480603,0.3780318866977476,-0.24652316549445952
1.5352958970000001,2.2442371612144605,0.776558052216977,2.9625557184570575,-0.7827387348733437,0.3633049267106672,-0.24370548819189103
1.7352960290000001,2.6722648125919264,0.253891553283297,2.9492242486807507,-1.2636905884281624,0.3583775406221674,-0.2533216297224284
1.935312046,2.6785395285743347,-0.2921206471062051,2.9034345073243553,-1.6643312980360112,0.3603878672388878,-0.2503612297642636
2.135299056,2.414420460705083,-0.8275627431443418,2.855219114893129,-2.1525669805531082,0.3379072003095585,-0.2536912068118315
2.3353225760000003,2.0138250503461657,-1.1712851926441192,2.8600526423437405,-2.643316286657613,0.34800060175797987,-0.25367161359335844
2.53529438,1.4268172066631282,-1.3412613229211365,2.8857003977670557,-3.1089497026178474,0.3769580237712011,-0.2690242963601679
2.735298465,0.886149668637982,-1.1624001619289617,2.858257071048209,-3.607690341016716,0.3129126499635611,-0.26217210894788834
2.93538787,0.49024243613681046,-0.8459019693475262,2.830861466045119,-4.105306613935576,0.47977905338128907,-0.24332332904696602
3.135298475,0.2512877869201787,-0.34032103655462603,3.224208396025744,-4.363696611116431,0.49092237453367854,-0.04016208402292331
3.335296945,-0.13950741717646375,0.28212388794616633,3.4643090451631458,-4.18069634917927,0.3491403524503881,0.10068144457830565
3.5352988080000003,-0.49891945096315427,0.8307823416112832,3.3984891842134877,-3.8859828518966237,0.28630686078179324,0.16571741320858974
3.735294177,-0.9796530119277653,1.1889965326490035,3.2218413754786734,-3.4768943236871133,0.2623281820542757,0.18857079161857576
3.9353165050000003,-1.6607125498603672,1.2592581562155805,3.0421121223626693,-3.005329220655257,0.3187916341255658,0.18442377127341
4.1352993829999996,-2.187156767010493,1.0825558866436191,2.9648250170691512,-2.498485981092481,0.3386015596650279,0.1963819360982307
4.335295026,-2.6568348507042923,0.6652928333527806,2.9343815648701645,-2.107832021559217,0.34250298939800455,0.20917184266222277
4.535362264,-2.7981005528335743,0.061761820413584,2.9262079619645465,-1.6725681899929565,0.3644220813695527,0.22989155824673743
4.735394699,-2.7397976458702606,-0.4546597023654059,2.9428692744697242,-1.2530092119986476,0.3921232162954069,0.22074777159049594
4.935297144,-2.4522546795455162,-0.9445596195006558,2.9045146393239434,-0.7413321766313471,0.382556881583129,0.22341002201682714
5.135411258,-1.9345981548265756,-1.2787073485129898,2.9106824684379453,-0.29410579845712476,0.3861447466446314,0.22132248439452598
5.335300645,-1.4211425397999597,-1.3101345486262812,2.9494792813953863,0.15194670981490166,0.3724634320221211,0.21963793029192322
5.535438258,-0.8302873405906874,-1.0798359586421795,2.9798384715067883,0.6648262648144491,0.3706653527698769,0.2097038927309787
5.735407316,-0.4012019065925875,-0.7026598732042942,2.9403162348037686,1.0283774386655407,0.3962254800980972,0.21942031396082268
5.93531084,-0.18681434237800848,-0.14054358638977735,3.255157880137141,1.194487007892443,0.44851793944140916,-0.0319821168072309
6.135430663,0.05658965146495196,0.470394851501334,3.372011087961426,1.099026134976375,0.3579267868488284,-0.1598110250496209
6.335402727,0.38362308781227383,0.9370681236264796,3.2481918020848233,0.729428812950808,0.303447683935316,-0.2053278858909716
6.535295991,1.0230856378476332,1.2656618486955096,3.1167420568062822,0.2678290065593495,0.31353205197468664,-0.22342738210430527
6.7353992510000005,1.5339227552531596,1.3790520174246843,2.9996098474658375,-0.17162984691784794,0.3579902827051742,-0.216364468075179
6.9353029930000005,2.1607770830245583,1.1502069139539914,3.0495928764260043,-0.6131658181375093,0.39804454547938245,-0.23875280230799503
7.135325592,2.5305662322994515,0.6624590622680413,2.997939811106324,-1.1143555789959894,0.36950748616898876,-0.2348886137022192
7.335307244,2.690090073519692,0.1375854658910635,2.9859905791124963,-1.5263778517710516,0.3663301716214378,-0.24533187162393094
7.535300343,2.591926334517001,-0.4575707748183063,2.9494059027502555,-1.9687729844892001,0.3776667800401847,-0.23885333949358584
7.735310968,2.2473503316531724,-0.894741153664176,2.8816962855181334,-2.492402333598081,0.34039118934501555,-0.2406804660470144
7.935394121,1.85216178833944,-1.1443266524767879,2.8751963689620266,-2.830161270417695,0.3542417166562292,-0.2530679236956535
8.135419169,1.1169603146455047,-1.188328488355158,2.8770425768709442,-3.360584487260231,0.39398695427259045,-0.25523096325642386
8.335307688,0.6339020279649713,-0.9090425280818831,2.8947447417276906,-3.8649382556337386,0.41880679567222434,-0.24733764014376788
8.535313998,0.286694614753249,-0.4496849448438113,3.096737239523825,-4.252676653914165,0.46941816357518584,-0.15591031540130545
8.735299651,0.05260384086524761,0.13483831573264357,3.41197360118801,-4.306270106981219,0.39006204109970166,0.04374189672312443
8.935297035,-0.33404094994922007,0.6775860872954904,3.4639732796424507,-4.026438368157632,0.29734502499585735,0.14987661896379684
9.135369356,-0.7601961842445191,1.183235942593442,3.286944295219124,-3.651650724052781,0.262206495274427,0.19605556129395182
9.335312819,-1.3958095918549582,1.3980531353872523,3.1205693025490526,-3.211095838071888,0.29207222240216874,0.2005244361756003
9.535396649,-1.9671940517653543,1.3212333393883011,3.006256160473159,-2.857955389768331,0.32327298481537164,0.20125871124796446
9.735301196,-2.518397018581328,1.0420073002434282,2.9411238068121106,-2.3618947824672674,0.3487595440234356,0.22782008071076199
9.935331416,-2.766570762797453,0.600338796493403,2.956426557528059,-1.879305099394408,0.394569477880935,0.22740969905382855
10.13530049,-2.882637270475908,0.009300193402187237,2.844187089609092,-1.45895217549507,0.39565460749880904,0.22114287620476672
10.335409673000001,-2.6496482142639963,-0.5955377163724467,2.9864617874548003,-0.9317291046306884,0.40154263764644904,0.2270638692270235
10.535404871,-2.284397909947304,-1.0033590696662946,2.93927171001051,-0.5758753502768809,0.38743948583842847,0.21419411774856623
10.735303372,-1.6755686464636361,-1.2214751486335174,2.967586954749901,-0.1272435697912153,0.36272540962099775,0.21679495647583547
10.935313374,-1.111829445864103,-1.130982616069273,2.9088435578499108,0.32691925487818274,0.3489242993656043,0.2169372691237264
11.135296562,-0.6025478609696301,-0.8862970681271692,2.8863114799851615,0.8285893614963101,0.3813984646376825,0.20873167963379263
11.335297107,-0.3385521242751938,-0.4088622675174786,2.988546296316628,1.1368890862184633,0.43666069958380377,0.09925753584011061
11.535298533,-0.10660460388830932,0.22824933681803555,3.314463449131476,1.149849068586836,0.43910887742312543,-0.10046369930650073
11.7353027,0.15696616303699262,0.7963244620587351,3.299708517123434,0.9295524514359182,0.31201390810354496,-0.19370209996761448
11.935299001,0.6925854217294878,1.220964937624596,3.176951224515624,0.5364353644115536,0.2973927551992871,-0.20761880928697338
12.135422081,1.2158858094707468,1.391691497097563,3.045156666643717,0.12070013015555613,0.3555096134944185,-0.23425742945609218
12.335294953,1.8677722485832813,1.3063363258089538,3.081677655526814,-0.37641348028314,0.3653082497306787,-0.23280664617749822
12.53532975,2.3959989763066543,0.9323351233062809,3.0800735806198913,-0.8382455338894461,0.36467412360470713,-0.24366451271740255
12.735396638,2.733858310743157,0.3884418205816543,2.9835235683708725,-1.231221469376196,0.3733189103801758,-0.2473108526743352
12.93529697,2.6731553769711485,-0.15299992357338685,2.968458626626743,-1.7537063908637371,0.34298067836359986,-0.2498252653855063
13.135401818,2.5358031361161255,-0.6809945884129669,2.9637810426203868,-2.20465377660406,0.34096941241916745,-0.25196990276891224
13.335372285,2.059756844327892,-1.1057873673430016,2.8904819102047705,-2.673802952000471,0.35563770308286063,-0.24597954005405198
13.535300609,1.5683294834585617,-1.2327281987213974,2.882962146624581,-3.1427266859781944,0.3621181315993714,-0.2570959650829942
13.735295409,0.9830238258229645,-1.0442684051372222,3.003126314298965,-3.6850627056685985,0.4046566917507082,-0.2557496516865264
13.935300608,0.4897069518131068,-0.7312269669033535,2.9568748855810045,-4.1144080140578065,0.43398788454655746,-0.21369542313948198
14.135297339,0.22450156822611914,-0.18458088222388735,3.2838661434362493,-4.333109305014165,0.4461852079972957,-0.05000479761089713
14.33544046,-0.03666079012884919,0.4241386676803716,3.426784350355228,-4.191188565183821,0.352146288663052,0.10210332526982956
14.535389733,-0.44115860836396115,0.9815539399860979,3.4078455617477097,-3.8895215812673527,0.2694543132751481,0.1735539380455964
14.735298319,-1.0387620196595728,1.3574858797760496,3.188254892095414,-3.3967362055425565,0.2667912409523388,0.20558234648563442
14.935301304,-1.6125227660850832,1.398403650322038,3.0395145860577952,-2.9709144336814184,0.32346659252885607,0.1982879256826404
15.135298472,-2.1473578927519608,1.2565677061654947,2.9865159167637843,-2.6402040993576534,0.34717238112391113,0.19737534076239344
15.335299296,-2.634040344931858,0.7972140264112513,2.971170341595356,-2.069468919920003,0.33589634690624626,0.22774589057346495
15.53531182,-2.7771222218396105,0.30437771433528127,2.944389404513752,-1.715450082425093,0.38345146686198744,0.22843060931555126
15.735303477,-2.7588244200563006,-0.3015457134679147,3.023186686864687,-1.1805354449737215,0.39196347167848733,0.22624586660063833
15.935296483,-2.464959895380328,-0.8782655436488298,2.964197293682842,-0.7937951053657072,0.3764341149566071,0.2279958473104854
16.13531222,-1.965159510736821,-1.1031079631253555,2.950899194776576,-0.2971306568062735,0.3887327910788194,0.2271510281437972
16.335302478,-1.4302174239639065,-1.2406747902878983,2.9199720081087683,0.08555084072737895,0.35121212955115066,0.22734367016904589
16.535304727,-0.8270228166552083,-1.0703953259516645,2.8688764175517765,0.5529172917927366,0.3580356971639041,0.2223269303440571
16.735371276,-0.39469916520551557,-0.6616445961934668,2.9250445749749554,0.9817159663530074,0.3851070247245263,0.22526923950779304
16.935368205,-0.13967025057034554,-0.10467266270813165,3.202210591102881,1.2278487944254515,0.45403221551500933,-0.015218950595420316
17.135301475,0.03712443108285462,0.5559435715163992,3.3200474763212564,1.0772280178612625,0.3471196087524003,-0.15352588912096107
17.335319481,0.42696163005688026,1.0347915309666111,3.2833497478839715,0.7412454394926435,0.2917894562008889,-0.21525301620073783
17.535298753,0.9885383113750438,1.338751055430604,3.092554847592619,0.28602896844854037,0.3048065598265698,-0.22853828820535751
17.735295871,1.5700345245782235,1.4629321330683114,3.049278234951297,-0.13526853137712505,0.3564625004408563,-0.24195754028600383
17.935379835,2.1288102915264084,1.1537254982517817,3.0482234689508383,-0.5603520446214055,0.37604291615410923,-0.2443737380924088
18.135297696,2.582097576921894,0.7674240773372273,3.113990276222503,-1.0532258843173317,0.35960668255590966,-0.2402384015988375
18.335330556,2.780771234055549,0.1712495770838509,3.033008164079979,-1.4931263650571778,0.3523888223312426,-0.24667377257676737
18.535321932,2.677007099959654,-0.4244106369994969,3.0004319268828454,-1.9713549927492784,0.3472456833017273,-0.25743728058618287
18.735313059,2.3595737403323347,-0.874251266765183,2.9384675295353415,-2.409877008864406,0.3378750877994488,-0.25662078003492933
18.935299398,1.8638913082817383,-1.174853341098453,2.91775112956178,-2.874498739332487,0.3628606267095967,-0.2639337248318391
19.135302975,1.2914329399591327,-1.1710821602886614,2.87030342113165,-3.3175646109511727,0.37232332656091316,-0.2528563356227569
19.335298868,0.7404084205417957,-0.9246242097514618,2.966290526764848,-3.830824494323041,0.4067597136508434,-0.25359476500584405
19.535306178,0.39558742824209364,-0.5347950252180363,3.096167554584468,-4.1863351312322035,0.45613059222897984,-0.1860623205875436
19.735294176,0.08627784496695833,0.1525572221696608,3.4206524837040577,-4.19481023554273,0.38461309380923797,0.033748342541802846
19.935352109,-0.22716985884938404,0.6873072721789337,3.4584935544206514,-3.997482838564663,0.2838332036542332,0.1336974675689599
20.135299421,-0.7069008247259994,1.1358318242155525,3.2071197221322394,-3.668106947370637,0.2804495305104713,0.179043370611172
20.335296521,-1.3315196912558958,1.3173317500195127,3.1153230951134065,-3.1989519032531866,0.2766452918722415,0.1877833926053951
20.535300619,-1.9820890315519437,1.2962153684117919,3.033412315672701,-2.749029550309406,0.31874220380142954,0.1968653847309012
20.735390713,-2.478129642638794,1.0524818712746074,2.9586818547896487,-2.3046058477748708,0.3353550948658613,0.21689972519267378
20.935296746,-2.7835731276768363,0.44654863935021416,2.9127698406809372,-1.955114274747261,0.36424330805999977,0.21633610878197573
21.135294565,-2.8086233681970154,-0.13704350591172632,2.903832881758233,-1.384949510644548,0.37985328247526895,0.2206218601323466
21.335299346,-2.626790896941422,-0.6582638786184688,2.9274732889980823,-0.9969556730142624,0.3902099214781876,0.22734558834560165
21.5352969,-2.270850711035059,-1.1071536539087032,2.9433882766753277,-0.5540336250666839,0.3697438121773255,0.22285611909815842
21.735295768,-1.7411026055936545,-1.2804726999295903,2.996466482286189,-0.07649138051658246,0.36530305334388735,0.22610053592423748
21.935335952,-1.123809978342629,-1.3002962129165818,2.923135307408007,0.32347976767973713,0.35700658084702885,0.23026201006606434
22.135314323,-0.6456597431159002,-0.9507668178578257,2.924275318592889,0.7916716608936898,0.3674252812410069,0.22899199442132867
22.335367035,-0.25571856128359044,-0.498479620521447,3.024994911212048,1.1636464473895551,0.4654973697914199,0.10307570559024154
22.535323221,-0.07690719690857879,-0.01467514590641239,3.2710021276749757,1.2179373343136992,0.41262091411654717,-0.09100631383908214
22.735302794,0.19469539453040624,0.7377558166472751,3.366834945864496,0.9568571892483633,0.3044638118989909,-0.1939485761022664
22.935299391,0.6311459442230014,1.1045953561737758,3.2306258411064515,0.525639832798805,0.28203787967907823,-0.22831839182861227
