time (sec),x position (m),y position (m),forward velocity (m/s),"heading angle (rad), from x-axis, positive is CCW",throttle (unitless; -1 to 1),steering angle (unitless; -1 to 1)
1.126808321,-1.4966401357224741,1.164797998072649,3.1634121643835136,3.3105628985967304,0.4579179068336698,0.2249396822992751
1.32681107,-2.1572470511393127,0.9425465889355419,3.1811739961932126,3.800035728510303,0.4544952803570351,0.21449620537316155
1.52680838,-2.5464680138028113,0.444538496654788,3.192873655316053,4.249701982904753,0.4323812086340023,0.2113549751222427
1.7268124720000002,-2.6779771898527667,-0.15777031966762534,3.16879046356261,4.696928631085545,0.3622701085555111,0.20839006817575031
1.926808153,-2.6532511496818163,-0.7513235557634342,3.0753001210416437,5.116156242862367,0.3042224709128338,0.21332363508073443
2.126885292,-2.306755466131059,-1.2437446435852868,2.924218829525774,5.671896760264215,0.342189655905636,0.22974828431129501
2.326810658,-1.752079186384724,-1.499926831827444,3.0100992790921497,6.134013645226822,0.4361524176532151,0.24646197995000946
2.526807615,-1.144402989636525,-1.4900647654593961,3.093530498225142,6.5611489006278925,0.48014875527267664,0.23824088599220675
2.726806663,-0.5475921573010194,-1.2051955357767392,3.2273323102538645,7.072402483314584,0.4988015282129656,0.22403475592191144
2.926812827,-0.1848946131629181,-0.609315455832726,3.4143682641049438,7.4364994138633405,0.5498085934124155,0.10106517911899356
3.126882368,0.12612651551915804,-0.029245623313943307,3.6836312486489806,7.418203540978443,0.49510015660264944,-0.0654920171090794
3.326878647,0.49182019969554747,0.6889588033456145,3.6700195947763277,7.119070970372397,0.3782259195997746,-0.1272111023350349
3.526813387,1.0969086864676856,1.0320195629894207,3.5209122963255726,6.775704320538097,0.2869518167397356,-0.14832463458565584
3.726810322,1.7523780534205495,1.2680805257131182,3.3211305679046954,6.3323521612672895,0.26677776131832687,-0.15893757455120877
3.926809773,2.3881778072251976,1.226387693716057,3.024700301231038,5.934316639574415,0.2841419217622247,-0.19053871382291543
4.126809772,2.846080175720091,0.8875369404236217,2.909029153853084,5.500051869586343,0.3611770930901086,-0.22266371794475276
4.326810831,3.1376963332174332,0.45150546225256094,2.986738754015269,4.9798589125521815,0.4901542533759648,-0.23864800232542205
4.526815307,3.155306258497449,-0.18593248678274432,3.0609354410543324,4.570798333032703,0.5315269177997926,-0.22722526338298552
4.726813637,2.927326100242757,-0.7633752331611051,3.166245350325484,4.055214551904832,0.5186583154096311,-0.21724727701083027
4.926868502,2.4477566914948,-1.2093142000655661,3.24152598830676,3.64063451940437,0.5092141218035076,-0.20422688218655677
5.126807935,1.827867300413226,-1.3973942126713514,3.259936047691173,3.219545610455236,0.4284061499972583,-0.1891419011109298
5.326814606,1.2112114510113572,-1.3291374415880333,3.109673169171792,2.8046294378793295,0.3637610353249825,-0.19708429911997355
5.5268478000000005,0.7082921871801275,-0.9815144212773155,2.9816011482000233,2.2782543086409346,0.38201352723429527,-0.21079343495379171
5.7268463910000005,0.3388459064107553,-0.4346285530549794,3.268000234194127,2.007073142571335,0.5458648930254515,-0.054764429682319406
5.926825967,0.09520286947764499,0.19844670176898427,3.6468129309472106,2.086039314802625,0.451627409963515,0.09113183649552638
6.1268117029999996,-0.3627950352267928,0.8273046852000387,3.6482216906163236,2.282438948050724,0.3263235979066672,0.16216276924422107
6.3268147070000005,-0.934468366922728,1.2359809986489778,3.487914045856212,2.7448339676002105,0.301839694915658,0.18996248560133647
6.526811446,-1.5338737406338203,1.3396634100602096,3.339285154788861,3.1544609585671153,0.36803660447509456,0.1934524297423671
6.726839154,-2.170661690403813,1.2711485947895196,3.3034087741888736,3.587792640364643,0.43416315038842124,0.20817017518470077
6.926819832,-2.6528992890899827,0.7969191348172037,3.2998640746690273,4.0689259686021275,0.4121785749362216,0.20739966777240454
7.126822961,-2.934380576973167,0.2415780832235725,3.2799095238859244,4.58017994442729,0.3987004480931814,0.19868910201938064
7.326814635,-3.0133437686160556,-0.33716592154956015,3.189005604342938,5.031806114173356,0.36277480615366453,0.2026206787574355
7.526814068,-2.7094835744218804,-0.9386951564286214,3.0619803306602065,5.403997307629182,0.3332983481373619,0.21659531756563974
7.726814321,-2.2891294632660983,-1.289246518887925,3.0749899390713225,5.905827921082794,0.3939553915821886,0.23099947688143205
7.926810025,-1.6640859307239748,-1.407934591867225,3.1449373240014182,6.306989243668544,0.47211556128895577,0.22557711697409705
8.126819174,-1.054377036915833,-1.293414788927891,3.2293001862266997,6.810212068775191,0.4761951270169581,0.22028894043598385
8.326883724,-0.5793923809239544,-0.8608308535045126,3.3622097447855515,7.231255430385328,0.49547986640629066,0.1812220740989142
8.526850802,-0.22331174168979617,-0.25281953120918,3.6009251349660705,7.438756792668066,0.5464536765137428,-0.0038450517681101835
8.72680799,0.12995998250987592,0.3715812906004277,3.830030797952698,7.2535395096425574,0.4298405593428396,-0.10553667873446639
8.926858848,0.6775836964990679,0.8996825698773014,3.6846532546524657,6.944925064680348,0.3456987507151272,-0.14138609597453142
9.126858521,1.2418222259774796,1.3005190891667278,3.409578863118104,6.558756021241798,0.29049649544507194,-0.15150946842982374
9.326897741,1.8713699149204885,1.3508223392770498,3.1844348082025253,6.128011806568491,0.27015906997181555,-0.17397052455864392
9.526828031,2.489421571380418,1.1329030261466508,3.022793548989245,5.708084349519853,0.3389130097436948,-0.20581533463359322
9.72683645,2.935436581419916,0.7065907844579347,2.913170165102565,5.257964125671321,0.43247802318671186,-0.23125370622556896
9.926809116,3.0367618061650643,0.2127284731910078,2.9788539135987966,4.775738968382743,0.5182923493444115,-0.23342687968014547
10.126809103,2.976010707410325,-0.34279303723777144,3.1478551120521137,4.367307484320443,0.5332057848563058,-0.22926809463084144
10.32688451,2.643670424654206,-0.9441587644835876,3.1353056291199772,3.8954386878982805,0.5057477045558473,-0.2112520845600254
10.526871331,2.062479353814246,-1.2475569662274122,3.2180885779098003,3.4181383257247817,0.46816763697281494,-0.20130297645727144
10.726867665,1.4515099936461595,-1.321906435696085,3.169412451141934,2.9948431790278676,0.3824608578233895,-0.1979982428607188
10.926818271,0.8874688540222849,-1.070204745310555,3.0054684355708257,2.492889583736069,0.3542622304401877,-0.2083824832345573
11.126811522,0.4556873380894172,-0.5981757107037299,3.047185473265714,2.0977118783409545,0.480117779151038,-0.1601941105968496
11.326845797,0.16178082880549208,-0.11772064216148721,3.4375255413900287,1.9679217787280365,0.5461946944860632,0.036247870411932795
11.526810213000001,-0.15564725234972035,0.5110284238220418,3.6250004347519473,2.200932919373682,0.3787199394318744,0.1295593823988996
11.726808474,-0.5679113828199248,1.0192633264079403,3.53162542622347,2.4736537521199256,0.2924108051899073,0.18153033181649864
11.926807074,-1.1957923998899889,1.3650801852166998,3.3226770008672806,2.967429228406564,0.31965925070236273,0.20031010981679306
12.126863643,-1.93144738705536,1.3876718850068614,3.2662632583310978,3.4280709557033107,0.40975992710438747,0.2016290208474458
12.326814146,-2.4987118128985233,1.0668781380091836,3.2538121545218748,3.867391054119947,0.43356174013199106,0.2085677769413788
12.526815573,-2.9299235308300564,0.5956573243782399,3.229914764355012,4.234413747094571,0.42167276983090884,0.21101064528817587
12.726820417,-3.0552374398985456,-0.0034280207165899423,3.276134812133836,4.713582480280714,0.39937431686765434,0.19951894542387302
12.926812358,-2.8950751288424277,-0.6877608944546707,3.1828598299387547,5.19375925614413,0.31656121996046965,0.2073183380276151
13.126838656,-2.5895981303340543,-1.187146161677695,3.081079847765048,5.632718076990132,0.35267528496492145,0.2236273450815412
13.326888002,-2.00940816703254,-1.47537000007645,3.0685117711045153,6.120241081156134,0.44351749174569605,0.23735700182315017
13.526812578,-1.4218060395414502,-1.347741509273821,3.180132944579633,6.543174889249728,0.473877679546776,0.22745160134296474
13.726814043000001,-0.7718482089478591,-1.0528665024067718,3.3128959556715816,7.021770442612577,0.48081387392528363,0.21728818754949533
13.926862845,-0.4284159754704752,-0.6035527487872668,3.455877601936595,7.446370275128657,0.5373329077604738,0.10210488514778493
14.126805874,-0.09869308028289785,0.061781582428673924,3.780837344812627,7.351509257609514,0.4961390965531615,-0.06167229854145993
14.326810079,0.3772125217733627,0.7022834721418839,3.7995093360859404,7.091022463486846,0.3842527418390498,-0.12911033476898492
14.526860753,0.8500599272128788,1.1590922474945111,3.586932734853756,6.730934490341286,0.3072577942929829,-0.1342334616404988
14.726856575,1.5870218887212584,1.3341546661624046,3.3683498938765406,6.350003085445032,0.2807140554938615,-0.15107618143920484
14.92687626,2.252755469270164,1.3102633523397413,3.0620456131359712,5.995693178214443,0.27175202998140024,-0.18828059086150853
15.126871664,2.7043767562550305,0.9931786084856415,2.908110344723466,5.4653687089415595,0.38100544919871554,-0.21249810087737347
15.326878794,3.0418769773174366,0.4993476443487439,2.8996539944167963,4.959780700632,0.48871891465652595,-0.23614823469760865
15.526884444,3.0997364584097853,-0.1318473392362291,3.107559123530704,4.551461056443316,0.5425270878642872,-0.22593240726076075
15.726816772,2.854529568052431,-0.6831390796980213,3.158442441709104,4.118524690405226,0.5154738509061968,-0.21766328507224228
15.926884356,2.4056688301156592,-1.1899778351059307,3.1949967913363166,3.614489471116549,0.4930262727845479,-0.200841578218678
16.126812759,1.7504127774061353,-1.3205483318432616,3.162212249245067,3.1938525160785076,0.4461352985697581,-0.1963686931933211
16.326858023,1.1692233867677353,-1.2121930488113868,2.9274222589538876,2.7456551431706573,0.22596219810921545,-0.2553277690424988
16.52681569,0.6402118717717179,-0.9119085471274714,2.8284373713405695,2.2238659248699713,0.44644365301870614,-0.2143784527994384
16.726842383,0.3441519090339162,-0.34539802902014366,3.2898042501076334,2.030898932355248,0.631476061490852,-0.027638594471420672
16.926808671,0.08790689402170038,0.2512933983712894,3.5924707429614746,2.068077832001134,0.4376350080237276,0.08522067959898351
17.126873729,-0.2943259067741846,0.8408054973990441,3.6511501767386254,2.3081744158111253,0.3190306255127735,0.15279745541889578
17.326912717,-0.8890751016987252,1.275746379823758,3.4859407166630936,2.813636975824324,0.3160544746243384,0.17485643423513686
17.526810368,-1.4738506569291943,1.3372780642897522,3.3234616994982393,3.1652541715631344,0.39083736169793154,0.1816790313203739
17.726811423,-2.1252885651306497,1.1874086056463928,3.061519785826595,3.719513713838763,-0.020606932857372664,0.2583729361167485
17.926902599,-2.556484248924314,0.8142180471477994,3.091867247428698,4.168798436282734,0.5792635084420429,0.16080764386261295
18.126848923,-2.8162724800377092,0.21098257473088433,3.333089330143608,4.576781864932351,0.4199156311304494,0.181901184604688
18.326816785,-2.8317870119711506,-0.4591215297216473,3.2605165880267792,5.046174140002568,0.3178274209207599,0.19269925474170235
18.52681062,-2.51422184934175,-1.0111899236525435,3.038133684635312,5.513578206794943,0.3123410954600113,0.19856563717421882
18.726806558,-1.9970923451241238,-1.387095779835523,2.9966009864127967,5.900309338280025,0.39336214483498705,0.22229093830006413
18.926856281,-1.4578541029260523,-1.5309497919697592,3.0995278986897623,6.3815688819345,0.465843198699373,0.22307087924310742
19.126810063,-0.8486767810731093,-1.2564320453002227,3.2050612046677025,6.798157894577172,0.47304295409162395,0.214472700956195
19.326882399,-0.39966214063556516,-0.8022362078538909,3.3027017203672555,7.239570186919963,0.5196595898602163,0.16278351819868397
19.526867762,-0.08700085683668933,-0.1553830307930269,3.638287246492128,7.447655170008226,0.5343029039616003,-0.007377949377182966
19.726805411,0.2103753561767002,0.43879192028816827,3.771828320568618,7.226553829733858,0.40538422337115315,-0.11814010272678908
19.926816347,0.6955820488301094,1.051607221921591,3.6400623977396487,6.984506501915704,0.3193244864795947,-0.15385121380149208
20.126845049,1.3146899779406034,1.4185634413286188,3.461985161240472,6.591670507317675,0.291394411595756,-0.16528417489407393
20.326817974,1.9615557799829673,1.4728982521814322,3.16792651648394,6.175704957898035,0.2784341663549909,-0.1873026976587009
20.52681398,2.512565821124678,1.2719699439681003,2.974596030554821,5.842689854805273,0.3201506336713024,-0.22030237661252208
20.726861454,2.981616169361641,0.9575913198701355,2.9528885232035313,5.2748894123205785,0.4529217155910491,-0.24515778919983466
20.926866833,3.1496635968323106,0.35986874269160907,2.989476241963243,4.809912857584505,0.5323622287172299,-0.24245111316753742
21.126806074,3.1231936349158604,-0.24243558430018206,3.10431857046954,4.289852344697553,0.5551840378141386,-0.23145753371430938
21.326896261,2.745564862219334,-0.743307000616369,3.1872254749978546,3.9096611533452776,0.5125625394643495,-0.22017849457986818
21.526886858,2.1556157289929314,-1.0966120414275322,3.3406023224609824,3.482724165720355,0.47197109880704613,-0.20504772100109728
21.726825878,1.547564099480331,-1.2172853039971951,3.153836416653191,3.0530197510917376,0.38687017225800274,-0.21448498831524998
21.926811223,0.9710181260463769,-1.0416698179693764,3.045503066638909,2.594561268274846,0.33529813411834053,-0.2177309458123004
22.126807042,0.5408518551971341,-0.6774246131404995,3.0421412784950506,2.1824343170784215,0.49473376639647404,-0.15181926769231666
22.326869537,0.1777750236424748,-0.13724327402389055,3.4769767808695318,2.0769659005817394,0.5728167175731648,0.023900959479082287
22.526808235,-0.08010879010923688,0.5134462060338353,3.6564397376989324,2.221919471318643,0.3802983489262314,0.11613697766406049
22.726866186,-0.6238940978622199,1.0162823461528359,3.5443279423248213,2.596468503454161,0.2861968621831705,0.17246364084696514
