time (sec),x position (m),y position (m),forward velocity (m/s),"heading angle (rad), from x-axis, positive is CCW",throttle (unitless; -1 to 1),steering angle (unitless; -1 to 1)
1.012578307,0.804582853909323,-1.3784906827762382,3.35366360077237,2.233487620552637,0.7067805013709508,-0.1658710278761907
1.05256398,0.7606972622307246,-1.3176078912585054,3.3984906798764016,2.221690669588282,0.6689046914478718,-0.12215486459789396
1.092571901,0.6466318155045319,-1.1737220358613716,3.5607088710535013,2.158480811287666,0.6591690037326171,-0.07446548101523753
1.132569007,0.5392295874456492,-1.045123983204734,3.6345694838234985,2.1818358012478583,0.6490884968476233,-0.03324979856636909
1.172572224,0.4738766686526938,-0.9042696123783236,3.7897022653195425,2.17916970949206,0.6201184417487677,-0.007764585823710456
1.212567557,0.38767799824471316,-0.8329789704896269,3.888654364414043,2.16373501177126,0.5521630908619442,0.024557388813263737
1.252570248,0.25406489189239284,-0.6487585541617865,3.9020508397955216,2.139692500740129,0.5312264369352945,0.04665630526077248
1.292579219,0.17903505757893198,-0.5569573584178386,3.9777068717608164,2.1942789817551915,0.4968764428479173,0.0650376598558181
1.332624847,0.08252506539259298,-0.37731782583383977,4.02834825566594,2.2951277821683784,0.44765915973624476,0.07569535810888157
1.372571221,-0.033934092039665305,-0.2593482030622294,4.05612895308128,2.2378491227362396,0.38798615928029306,0.09148408555871823
1.412590114,-0.1076973420578306,-0.11690689444856808,3.9767610724637437,2.3875169212822707,0.3525262084172572,0.10549212553018354
1.452570797,-0.20010366827623985,-0.08413296545401523,4.029107599446819,2.398484938156484,0.3122931567920662,0.11945129523775527
1.492569509,-0.32001703547652655,0.045740794894903736,4.050234575985218,2.4997745662225346,0.2698386310483466,0.12846617358571247
1.532563965,-0.46312823822170834,0.09202530403954592,3.9504554851043,2.558356365600565,0.24765425560833706,0.13531952731657548
1.572573603,-0.6034232559055621,0.15922139986495443,3.899201397242741,2.6365738258632736,0.2408802308937669,0.14389353840346736
1.612583595,-0.680297468075544,0.30083908851006824,3.9092373902697406,2.630269310265187,0.2121555420498306,0.14031277809503845
1.652568466,-0.9400320925681263,0.3983409257003202,3.7301780900004013,2.8482446875579326,0.19160346800811268,0.14640540831740523
1.692567084,-1.0898818781744384,0.44131382934900887,3.7276803579213396,2.9632285078863774,0.18647712075868791,0.14623164803990946
1.732587142,-1.250583217058925,0.42569302383134344,3.652785425014619,2.999653093787814,0.20183703604248301,0.1510786606649854
1.772588452,-1.302123271686194,0.5020544142370045,3.561042834831772,3.083765753620205,0.2005020581502926,0.11931999085287762
1.8125663840000001,-1.4744899814039074,0.5299446856240358,3.4368690280361016,3.205225467237128,0.1949953651628453,0.12147531186540673
1.85257844,-1.5558883501604464,0.4893851972948832,3.3940030796044782,3.1995083467774963,0.20462599349601907,0.13303003257958368
1.8925754160000001,-1.7207351604548713,0.5040769809300346,3.3474694961678106,3.365199258914653,0.23273401419017414,0.14028986391826984
1.93256923,-1.9556190287800492,0.5112648691165453,3.312628699172343,3.467645792802708,0.2235060295881113,0.13865765079536066
1.972568069,-2.044419707893914,0.43956158703836246,3.2235764566451635,3.4814838716396883,0.22131218801614522,0.15201960181573496
2.012573691,-2.0780769782433777,0.37911794242627805,3.1223934064326277,3.5903250434416507,0.23408813797424918,0.15582123622043234
2.052647095,-2.274117587928538,0.3433967106817693,3.1359622527807134,3.6622324933934065,0.2587299294291085,0.16606868018526832
2.092582486,-2.2950279648000884,0.231333366515515,3.1415882565304996,3.726773947043505,0.23579845653085038,0.1594016314744759
2.13256888,-2.384209669894623,0.2565341271909562,3.0620240973799935,3.8807813713976436,0.23644866368696418,0.17498334048469455
2.172586082,-2.5137586444842177,0.20652595458132622,3.073931734105615,3.8587868774577543,0.25492997587858846,0.18432068051576703
2.212565383,-2.591072816097544,0.06854923892566528,3.020299081337822,3.9859518189222465,0.2798181696833676,0.19299311548838746
2.252568309,-2.643903212539969,-0.04297795739268686,2.942913157264066,4.088678625920133,0.2629654153454152,0.19361437087836608
2.292587268,-2.73029541716323,-0.09760190529235287,2.922229076854987,4.217383755836649,0.27467660554702233,0.20578953253609653
2.332657845,-2.770892643653255,-0.2921917329700692,2.9257745161881594,4.337399214186099,0.28924939860526727,0.21100598878216112
2.372573998,-2.8397254835207573,-0.32412423199568585,2.8882579872060288,4.435585687586116,0.29526074909498307,0.2117791494260297
2.412577528,-2.861480960544966,-0.4359251331359058,2.86524099364451,4.481379784680903,0.3028782615708317,0.21423220945344246
2.4526452560000003,-2.8508901859107176,-0.5654229834433944,2.796601660100914,4.555960406852237,0.3197036833901241,0.20870765432454616
2.492574589,-2.899960107476036,-0.7051720353905953,2.874414427651157,4.688304658877711,0.34903666651800797,0.2109232378674086
2.532575049,-2.873408824697578,-0.8497976393111867,2.8638019778534245,4.8772741719041335,0.351542729249975,0.20948191870615276
2.572569386,-2.9009502258252065,-0.9037620876689465,2.783219115809835,4.928706666584084,0.35655506295582556,0.2153622903918984
2.61256697,-2.938725145126377,-1.0262305078815008,2.867663043517084,4.930750557549872,0.3761135103830327,0.22011765763513189
2.652567291,-2.8536169432391087,-1.0865193192875064,2.8474810049875194,5.065664719288681,0.4137201562726737,0.21812288862099002
2.692574797,-2.7603667532343192,-1.2104567277494136,2.7770017437852275,5.162327704696874,0.4165453744144919,0.22656114628871163
2.732581188,-2.7103062412410504,-1.3710302711890494,2.874002765737503,5.226658150576142,0.4140741356880668,0.22939198983664957
2.772567891,-2.6079468942041246,-1.3960886981365406,2.9184421918422894,5.3668396806642,0.43642355332420285,0.23896922989171748
2.8125907640000003,-2.6355355371053593,-1.5339290652030946,2.914729595458648,5.494575439481272,0.457731724868817,0.2341643034903816
2.852660789,-2.523248282231347,-1.5703877186051551,2.9645830080372737,5.58493557789088,0.4641506905374055,0.23291252543103047
2.892585075,-2.340221510022386,-1.6701440101499734,3.006779808702337,5.682583579803522,0.46873692786594834,0.2317445006945738
2.932615898,-2.2738638115030994,-1.696022756786861,2.969070700304774,5.726092275958958,0.49196177211119113,0.22918489585974236
2.972574838,-2.1666549976461433,-1.7891148287138632,3.0787648778604098,5.853250214345238,0.4886205104248636,0.22842236631518095
3.012586664,-2.0748606121060567,-1.8438069179483094,3.0465972780020225,5.943791140823035,0.4875026833882763,0.2253636311362349
3.052648934,-1.9836224498671122,-1.8722805984880921,3.1237820410970314,6.058810123150729,0.5054091367281621,0.22196935791066102
3.092584505,-1.8527513435442495,-1.941382232305655,3.1239947491662385,6.211249772694167,0.5025636512582401,0.22066174590220847
3.132569775,-1.7121012085030443,-1.9201485116059915,3.151131448746856,6.232182147261467,0.4950793746293232,0.2174562499599024
3.172637844,-1.5719308649517052,-1.8529365324927904,3.1864380595474087,6.366853342694741,0.5078764858420458,0.22221152008112935
3.212632735,-1.4845344063890182,-1.933720675179274,3.2327002725422145,6.430730813028606,0.5118504661753102,0.2106466469778178
3.252567906,-1.3365446778935393,-1.9288546447090402,3.253978701979991,6.540436174332376,0.49537017463091226,0.21215597646205772
3.292580953,-1.2487045864429887,-1.8657726751682555,3.2431108921209515,6.584681744546436,0.4936500502675019,0.2000442391335444
3.332567365,-1.0045898105078923,-1.7749003969645494,3.3312531752090773,6.720487117970544,0.489829302045833,0.19588787304839508
3.372576674,-0.9937433777934246,-1.7810374551882084,3.327201171648664,6.83550966048472,0.5092218960941608,0.19172545357951112
3.412569141,-0.8013438103784803,-1.6831293965795062,3.252325817721255,6.907642217866819,0.47596976955641707,0.19468453823463877
3.452580876,-0.7467164175401122,-1.582017526375739,3.3065853923892283,7.007285651411658,0.46648782271298866,0.18514583808744908
3.492616918,-0.6425928379468678,-1.559058854613569,3.347866702806161,7.058498633419744,0.4746769932563027,0.18363541378993217
3.5325594650000003,-0.5320875902513911,-1.4726674932465793,3.3526798757519987,7.1770925408781165,0.45717240101124335,0.1834825399989782
3.572567886,-0.4483018778123109,-1.3226951774124498,3.349387016679348,7.288032529065109,0.4526046550365782,0.18677185621912015
3.612566144,-0.3324196459402592,-1.2460197197638385,3.3277087517740065,7.327111001416142,0.4451886139309654,0.1778185340483061
3.652573025,-0.31837420293235374,-1.1196307469485738,3.366420740160884,7.436871049238664,0.4467981150318625,0.1710563538311508
3.692572876,-0.2062695031902224,-1.027750884606121,3.3551509760263616,7.451530430465318,0.47092179072864293,0.11894032752686029
3.732585604,-0.22056066518475737,-0.8244425973923127,3.430052587200331,7.531012772232527,0.5035493632819816,0.06784914360157258
3.772567794,-0.21000939544633412,-0.6683091668141596,3.5287932310794816,7.557962216837921,0.5398562251103922,0.02591575292488609
3.812630068,-0.13510446387040245,-0.5745880591351358,3.577604372623505,7.592493872216354,0.5150982624863212,-0.017903615684105027
3.8526069620000003,-0.1304997526693992,-0.4114756561973304,3.5283517955956096,7.58122001811508,0.5097063142304935,-0.05338665190812162
3.892573071,-0.0600256549833922,-0.32495603406661805,3.648000570298968,7.5363500992093675,0.4878678410175157,-0.08117070565371941
3.93258569,0.03176814441217547,-0.14436468340757047,3.6762742366407464,7.478807724483709,0.451744563442529,-0.10028784136328561
3.972582169,0.07071840250922486,-0.05721826255411989,3.7258225735251433,7.4450496843999,0.44312147006214675,-0.12148215712222929
4.012565686,0.11169528898604233,0.06801845685930531,3.69458129672351,7.367931260604951,0.4099555708568659,-0.13643357603777403
4.052562673,0.19433196218038198,0.212474949876519,3.6922893482657178,7.312604458568127,0.391029761369901,-0.1487726781311555
4.092580913,0.2639271901303163,0.3702334614599725,3.7242684295475517,7.294139889388785,0.3586375255751783,-0.15863094938466285
4.132569912,0.3359647542721612,0.42352241305219407,3.690495318456033,7.1558581917321025,0.3431376131452941,-0.16662268449079867
4.172573051,0.47440463892030943,0.6150288841507326,3.668134935018711,7.07301623484067,0.3415092857203966,-0.17103841299989714
4.212582075,0.5212954125432779,0.7225455317730453,3.6507206377401005,6.999973225851185,0.3407690491607621,-0.17396895266894863
4.2525707090000004,0.665039487895504,0.7977335074536658,3.5896323864649236,6.949798075169412,0.32283679656841185,-0.17242821681264056
4.292570256,0.7478689255422055,0.831092877694351,3.6194000926790366,6.888857241866667,0.32208574066821855,-0.1747586581986342
4.332567196,0.8528469340206809,0.9900110401941052,3.597282197676988,6.773764209708066,0.318070408895545,-0.17748286723851217
4.372656009,1.009347105629739,1.0540493695114626,3.4557674704078902,6.6769753286013644,0.3515692650853289,-0.1850459547915549
4.412580471,1.1018755421155686,1.1140546508179665,3.471994884256496,6.578365025508246,0.32194407636298106,-0.1847191487777887
4.452664175,1.256475450226953,1.092252058737257,3.435642560021259,6.497089779370275,0.3189158118494801,-0.18882223978762505
4.49261121,1.410965738394785,1.1731378279695808,3.434708326357741,6.400598750808748,0.3336775524769655,-0.18554038420011842
4.532669618,1.5759872005312414,1.1935448559099173,3.418048795660865,6.2803781235457565,0.33400296014787256,-0.1880080839036139
4.572575421,1.6806396015095495,1.247998813467131,3.3303599258707726,6.220219073935638,0.3307742973041327,-0.19032448439390326
4.612663022,1.8078888082522302,1.1637722281318308,3.3038980964963724,6.143145394489873,0.3379037032642915,-0.1942681041838575
4.652567407,1.892402796777999,1.1890347733849043,3.3140530922788614,6.130166952308208,0.3532630359260168,-0.19670116917906466
4.692583564,2.1099336238572293,1.1421144650781545,3.3049620038601715,5.9351307585779125,0.3525819068391833,-0.19869386587678733
4.732571759,2.1287116860680726,1.1502774353109453,3.2660847872943073,5.956042043051466,0.3475365993455725,-0.1884690630346377
4.772574177,2.3103706935741752,1.0806686454685368,3.2699481205167538,5.755098199725662,0.3658670692061821,-0.20659539246938605
4.812569481,2.4024015522569484,1.0420613791315922,3.21085459033005,5.750338635893384,0.3953679945813152,-0.20415100099687525
4.852648999,2.590528423256685,0.9176737227975609,3.205990124967055,5.672812406930256,0.3771078893712409,-0.21345350950590894
4.892574657,2.6385357278404142,0.858428140848643,3.2039892373708483,5.5151107822273975,0.37405041739603984,-0.20901884542025373
4.93256692,2.7538789589750077,0.750163117280582,3.228123225188699,5.4568064206849325,0.4028500594138597,-0.2179433419579905
4.972577385,2.806387656650125,0.6490218067910982,3.2396204450649755,5.3428838389738,0.3993119803475956,-0.21011484957463505
5.012566916,2.9295444382613294,0.5774117434135798,3.203951462483791,5.246145342965343,0.39223219472342513,-0.2131203852234738
5.052653318,2.9403706763808053,0.40547778589233496,3.2025140278504987,5.153721734970625,0.39580364986218347,-0.21638000479607922
5.092615589,3.01657907630643,0.33578105463669256,3.227912820750444,5.033880031912291,0.4220122960051038,-0.22473393802783243
5.132572859,3.0293647578241227,0.18989917738004994,3.1983178820569176,4.995636319871509,0.41418720707104734,-0.21187068217365002
5.1725720410000005,3.076617776590407,0.1315705483188667,3.1843917066648433,4.929280237299591,0.4093765642086507,-0.21349765591089573
5.212575006,3.1163414013407307,-0.019028657719135554,3.161637489330544,4.849900678711332,0.4273923263227962,-0.21445213241055136
5.252579824,3.090363545676126,-0.17989598122180178,3.2255718207298267,4.7302970238307465,0.4543143070190059,-0.22337017707608076
5.292574395,3.1345948521291382,-0.27087315278558116,3.1819928972038216,4.629079756018687,0.4347168245279352,-0.218034977651328
5.332576104,3.0813351776032287,-0.44189589157472386,3.260238175751544,4.475462261069331,0.441059133309431,-0.21935595564638988
5.372564264,3.0520809483295395,-0.588072348128588,3.242562200416875,4.408170014046353,0.44539971231789,-0.21460357826422888
5.412620847,3.0568488995925973,-0.6693831450847666,3.275901746460232,4.460961609821831,0.4650437845212403,-0.2164706465363947
5.452572518,2.984490032071185,-0.7727545785029065,3.3338392369428096,4.277719037903919,0.428815740653664,-0.21266319679059412
5.492570283,2.8934033339627496,-0.9497687918798029,3.300778811900032,4.182370719590397,0.43621407644456356,-0.21393487960497595
5.532565407,2.870970763981582,-1.0790938126163832,3.292166714029925,4.027940990490261,0.45974294604275495,-0.2276736150739984
5.572570151,2.7986053599622647,-1.0771391986626506,3.2913938633387487,4.0060606390589895,0.4510269421661063,-0.21877516680514078
5.612583258,2.590253961430841,-1.2196987456930575,3.3250909890443654,3.890606517994017,0.4358479955974485,-0.20904502602061306
5.652567304,2.599897719230409,-1.3233548387721357,3.3009775968886763,3.805677040516036,0.449659659806368,-0.20510100551577973
5.692581962,2.5283313593600716,-1.4336527861475585,3.3881928456267807,3.722397363100584,0.463207687685389,-0.2106329010046558
5.732566568,2.405084456501685,-1.4399715930381098,3.335307310283738,3.6597713650625914,0.4364370037338365,-0.20391632028951864
5.772575379,2.2404024633683686,-1.4907962057946706,3.2972540223108977,3.5476680559042957,0.43791870672655187,-0.20364550940714968
5.812570421,2.1446150651899702,-1.5758128992095952,3.3490494306511014,3.4760114597752056,0.4455998258287389,-0.20335042644019524
5.852569638,2.0158466619224957,-1.6190728178967486,3.370351281778926,3.378069946949844,0.43499537478975775,-0.19379597488873493
5.892664069,1.8609552000003753,-1.6570797446071914,3.3593470850614287,3.291864984892356,0.42131399471681,-0.19592228289000468
5.932576651,1.7268483572595155,-1.6414853884600642,3.317174308645289,3.249800630820899,0.4150100736551629,-0.20552963475614666
5.972572099,1.571610663748182,-1.638175461193169,3.368617001293764,3.0718402383087744,0.4272393784694332,-0.20837255952016945
6.012568908,1.4964928472282746,-1.60449732674469,3.3071264090122265,3.023065315249182,0.40033739250900174,-0.20451982542205888
6.052570406,1.3639543760516013,-1.6899604763809455,3.329874922237013,2.952302195287487,0.39976932255501785,-0.21029064593806493
6.092572513,1.2237321123959388,-1.607924358605168,3.353427381496737,2.8451119632514468,0.39761995488308505,-0.20760626084870598
6.132562801,1.0732419078578,-1.5701333422951866,3.269193602537379,2.760898772917557,0.4096563793819732,-0.20663077884378941
6.172574963,0.9837847135511719,-1.5536585630784003,3.2772378693500475,2.664137173025984,0.3842313979610007,-0.20669524026200006
6.212572133,0.8081476530454359,-1.4677254736670753,3.305794493451097,2.6044301106103203,0.37975026985740973,-0.20575102342277793
6.252570863,0.6163388403578985,-1.398934112420807,3.295922795447058,2.471537001157353,0.38415268795300334,-0.19938151053714964
6.292570761,0.6511432880661812,-1.3290976615379442,3.245867791363233,2.3900456246725374,0.3931245102542269,-0.20797807230322984
6.332563183,0.5784545461965861,-1.2208538218888776,3.2117691292806843,2.3060155038896366,0.3963044794104301,-0.1953953371898485
6.37257043,0.44022897310450604,-1.1725158464691086,3.248230782652088,2.236116592162526,0.4061374637645191,-0.18832053464701556
6.412580275,0.3718146211741869,-1.0100690364299736,3.2731972823184576,2.1772064797352835,0.43237711369061793,-0.18878954692017813
6.452572041,0.3216256223895965,-0.9393604691005378,3.2627028317364477,2.0381711783529513,0.4585952292868582,-0.1464963461010469
6.492575405,0.25987635438995027,-0.7894452078155858,3.3663083455114444,1.9768695128132427,0.49417226731028974,-0.0997140682919618
6.532609661,0.17482021959729524,-0.7162849941610713,3.4946268542487613,2.0032990928603214,0.527688653711502,-0.05563664282137359
6.572565102,0.056717711393276284,-0.5179424466619014,3.567712711865714,1.9461056407618451,0.5269777823878337,-0.026925620105558403
6.612568998,0.05993772106723283,-0.3390137934360504,3.6484421043953956,1.993596077630843,0.49557049673113457,0.01645024384740233
6.652571689,0.022320651115248762,-0.25575559018682953,3.6706777827648254,2.018308618797002,0.4647526705321613,0.0448241179021309
6.692573188,-0.01599301819355635,-0.16917174515529104,3.7373526174652354,1.944871426200406,0.45229813940488395,0.06881965264799454
6.732566464,-0.1673216560487526,0.03788030614730178,3.7867247886694115,2.0650593712613956,0.39575357310569415,0.08459766268691363
6.772573479,-0.2035614905568496,0.1470770803701971,3.7294980370972333,2.0703872428016648,0.35600155260800304,0.10271555298394831
6.81258601,-0.3176994822618897,0.2666184875109423,3.7743275135987404,2.1575873381580943,0.32911975011061795,0.11619572262177655
6.852577625,-0.3963294581879902,0.3621180475750963,3.788037183956999,2.1510887697637124,0.3132467247456808,0.12635876591954423
6.892561809,-0.48265066202681717,0.5290680007748225,3.7105239088072133,2.2935911197162704,0.2719670402906033,0.13422838065225365
6.932567627,-0.5071978496717583,0.619903431222868,3.7399540123171744,2.299989539400851,0.24597141017295343,0.14157225931221462
6.972610197,-0.6830226198057894,0.7075023861943174,3.740105839236874,2.44540608674926,0.24396214036837438,0.14786501690734893
7.012555933,-0.8254706911507611,0.8912471401090956,3.6312382916545465,2.5528033494433653,0.226136275468994,0.14431140346427665
7.052555969,-0.8288002085030004,0.8953897936675261,3.563783421105227,2.6555449783583054,0.21443597358524585,0.1595540660034942
7.092593128,-1.0435026408819839,0.9717805310667387,3.5023375467330173,2.7396388202748456,0.2157517617770845,0.15607036390894036
7.132619702,-1.1327615066857233,1.0638361905375415,3.4854971328089426,2.8062068848190815,0.2276078174355004,0.15055991129381435
7.172650978,-1.3163538892268478,1.1086540583028814,3.4481894940599553,2.925990887563641,0.23333283307397706,0.1548902117021848
