time (sec),x position (m),y position (m),forward velocity (m/s),"heading angle (rad), from x-axis, positive is CCW",throttle (unitless; -1 to 1),steering angle (unitless; -1 to 1)
1.005965918,2.0786580088809443,-0.9958558121989199,2.938048406507322,-2.9046609483573245,0.4860320506254024,-0.24566318165244624
1.045984008,1.9430842776764754,-0.9919588574133777,2.9110323540262946,-3.0967715507044797,0.48143308777858057,-0.22726055103989992
1.085973102,1.8457167811278399,-1.0063584778343224,2.96204588701154,-3.157889426866939,0.4585496464171372,-0.22724691614699483
1.125994098,1.6649880908557966,-0.9481234567886642,2.985397726128897,-3.24937368415007,0.43365691183475125,-0.22853395824146736
1.165979411,1.6107988355263982,-1.0318276873566845,2.9455361091373184,-3.33062799941425,0.441278863433988,-0.23011994658603796
1.206002022,1.4822035412809025,-1.0062356504498446,2.8892690960553065,-3.383819431664859,0.40097721319158114,-0.23080478346192015
1.245973088,1.3531053517586316,-0.9506646902324508,2.886545255584463,-3.5606842868052206,0.39023711960670077,-0.22773303739879383
1.285976092,1.2852536485979968,-0.8583115715962081,2.869318434082669,-3.615709656613265,0.39185313968826785,-0.22450580937210948
1.326021506,1.1774996004958491,-0.8297375331908029,2.8443343907199505,-3.7415300892533465,0.39066532958033917,-0.219106324553732
1.365975085,1.0990467663359045,-0.7586637830611942,2.846839346624962,-3.767739354300602,0.3815116023257268,-0.21945208747449904
1.4059654560000001,0.9866603758946145,-0.7081554687707041,2.8658332380705094,-3.927381810943587,0.3695182067073678,-0.2202837791718822
1.446066041,0.9116171873770995,-0.575273336176044,2.779685905439685,-3.977713008742969,0.38135955080291656,-0.221580307536981
1.48597649,0.8558986599630057,-0.5946429815057462,2.8093359524202386,-4.111821888529013,0.4050465201160862,-0.1990695699506542
1.526064133,0.7866411323879517,-0.4710865551858835,2.8477147795158335,-4.193244131316321,0.4401086751707255,-0.16010667726824185
1.565968092,0.7098724844750265,-0.35181923878574567,2.8843864696260546,-4.188744800334074,0.4725471603281836,-0.12226279094583327
1.6060360870000001,0.6513264723086613,-0.2808340982323628,3.044310647626023,-4.293872486708955,0.4998855991707629,-0.08413022180192124
1.6459809010000002,0.6027437414816051,-0.0458537594377743,3.0892946370764025,-4.319026187023922,0.49541124029544525,-0.03855377994117899
1.6859737350000001,0.5520362409806898,-0.028376932678173514,3.1742600075821055,-4.2690294140094736,0.4893831377422788,0.0031199583064331843
1.725971569,0.5175661511799878,0.1088964484851754,3.191616734793795,-4.2538753067644945,0.4966459693528153,0.03930248677960638
1.765978326,0.48782716788313485,0.19836311673920023,3.273841302714536,-4.2612129975009845,0.47018891175391375,0.06113934104437211
1.805967262,0.3612520179673694,0.3313148308165166,3.3760951713556615,-4.248577350945994,0.4348615908605797,0.08737636040577164
1.84598129,0.3398122433899664,0.49009159059827684,3.386157894129278,-4.277091013758705,0.4155869837993655,0.11036666859598106
1.8859720910000002,0.27713081807155265,0.5947222740670717,3.4133602115136936,-4.168520992222213,0.3992480922020922,0.13114833707945098
1.925973017,0.24309102501721302,0.7030338193576829,3.4288139279383256,-4.0489200515138135,0.3731366279150567,0.14293099724763847
1.965970189,0.03720714831633154,0.8283814549063921,3.316977856966024,-4.034705635037447,0.3459535879290086,0.15835360412996444
2.005966274,-0.0023573386926187233,0.9272861810678387,3.408163887440953,-3.9721038895755103,0.3398440451488055,0.17164796271201638
2.045972694,-0.06582358189607221,1.0255628289144052,3.4052101552808667,-3.897693498154529,0.35411708860251684,0.18208593062185546
2.085972517,-0.1603075620224902,1.089072776144945,3.4068390396657384,-3.786582880111062,0.3330815522279984,0.1873489192663322
2.125972759,-0.30393470507186776,1.2014489092440201,3.3507346124650144,-3.7573388467151583,0.33719400250611553,0.19585290793687843
2.165973308,-0.4217733767716865,1.2811591918851837,3.3265105254319134,-3.624767233583249,0.3455140265760518,0.20142285200439788
2.205964809,-0.47581182851763903,1.2874895637228145,3.3629186933264688,-3.5479344608324066,0.369633706495266,0.2032410553962461
2.246048499,-0.646426107429078,1.3630793803385712,3.294305030927294,-3.4457201287450925,0.3656826876469066,0.19541898223955154
2.285978588,-0.767439899818326,1.29636460524919,3.2778244084199084,-3.329723950273448,0.3755698083090993,0.19405901446987656
2.326061004,-0.8863233209683239,1.4452861919090552,3.280328801214431,-3.2719283142637114,0.39532477372269204,0.19133973411896343
2.365989735,-1.0432811788939511,1.4844600272800004,3.2643534183227083,-3.137626565108628,0.4116863953046027,0.1794959968464815
2.405968455,-1.1786031506364207,1.453427529347707,3.1766544880933734,-3.0593121588510463,0.4174736227650662,0.1778697521407161
2.446037691,-1.2993091994282162,1.4350025580890269,3.276962208067784,-3.0687171421115687,0.42977262437626884,0.17795091093398765
2.485975212,-1.410619993155379,1.3625428764337686,3.2463795951885546,-2.9238697601757773,0.4503856891199334,0.17981590829993027
2.526064717,-1.5157557907378307,1.3963790835239396,3.215644033597545,-2.8887548856642535,0.28678549734720044,0.1857028827945261
2.565973686,-1.616805700340812,1.3295332932927104,3.1769213464323776,-2.7738289576062587,0.18818301205803267,0.19906707399363974
2.6059670500000003,-1.7741497725277007,1.2988973871664795,3.0881360755162603,-2.6536726737230034,0.11248854570606803,0.21832105503871063
2.646040326,-1.9141338341132619,1.278478516360909,2.994211951184873,-2.595939710002284,0.08306326380651101,0.24249700853709324
2.685982701,-1.9967132320296637,1.190696782731703,3.0077185654061918,-2.4215010242093475,0.2727064019918309,0.20642355992224626
2.7260576050000003,-2.0534653105285483,1.125962251441922,3.03338753880634,-2.32212548353107,0.3700207714139283,0.19467014347249548
2.765974577,-2.153229857796763,1.0155993783559807,3.0476439376878037,-2.2505349622763586,0.4687745245518718,0.17741756717149307
2.805966184,-2.2402960788291337,0.9204209430464088,3.09627653345516,-2.176535478391359,0.48530022148040586,0.16092107103731393
2.8459737030000003,-2.3229052742992278,0.8336203220509675,3.1410935992542472,-2.14599573766713,0.4591575846621932,0.15750857032366877
2.886015511,-2.3370087871852543,0.7593337386611232,3.1704859638828533,-2.069083958239915,0.435543044221079,0.15936004939718318
2.926027193,-2.4036140195538933,0.5415263698630385,3.185050077090776,-1.9682080509600306,0.4234812731820886,0.16520161807955136
2.965978548,-2.4874458698413817,0.48581399449949825,3.244566875886096,-1.8831681990239673,0.379765537252629,0.17404278707698434
3.006021318,-2.515863590458606,0.4033229038548369,3.209070189016348,-1.8317251612285288,0.3551410778045178,0.17838333695404984
3.045975591,-2.555394251561248,0.2190370545798698,3.142174816496366,-1.7646335739293801,0.3277565196933136,0.18309542234281487
3.0859798449999998,-2.62058703934101,0.10900269904439844,3.1832974507629594,-1.7228664451713225,0.31963634170828437,0.18665114119667806
3.126054079,-2.531242743500421,-0.06658432672812191,3.1570974319345892,-1.6080866769920577,0.28473179607017074,0.18531599045502464
3.165974097,-2.574110083116117,-0.166156687711007,3.116924621036493,-1.4992644956596233,0.26265718576872277,0.19013880557299004
3.206032498,-2.5603031528800018,-0.25851658601584815,3.077833697032714,-1.424372748247755,0.25921390139117256,0.19506301966460804
3.246026727,-2.517886841918253,-0.4692361444904179,3.031962638605076,-1.3527580817132343,0.257713209091682,0.19722354537860853
3.285978513,-2.5245903758525987,-0.5163220919204767,3.0679205381007226,-1.231078380340593,0.2384359736785343,0.19962598040091994
3.325967654,-2.487577924637031,-0.5914409244435009,2.8563375273992246,-1.1112678404861203,0.23494402792871052,0.20295089936172772
3.36597833,-2.395185966664548,-0.6909505137523131,2.8566727317940206,-1.0120850608860825,0.24828653294152278,0.2067103678238043
3.4059652,-2.3605305421070244,-0.7909882457241666,2.9241335362968868,-0.920065432777778,0.24836640197487686,0.21422375649250774
3.446041512,-2.2754448201076847,-0.9413807526794439,2.788272969029515,-0.8232647828397919,0.25075597280966655,0.2166749493834891
3.48597804,-2.2242183244349474,-1.0000900274431275,2.8435603566843914,-0.7582863202814261,0.2675478074318004,0.22067801739727738
3.526047714,-2.147069581756444,-1.0561641817964746,2.7738795591780363,-0.6825822743071643,0.29118066786095753,0.22605137966411026
3.565973848,-2.079854781468099,-1.1334406213556412,2.8150032020789335,-0.537910536168066,0.3012687951422489,0.2295500829850537
3.606041243,-1.9424597448048244,-1.1881704464191825,2.7908048247669894,-0.45728589271570375,0.3141684501640379,0.23397043469192572
3.645980494,-1.8060787734803443,-1.251363398029958,2.825638946633244,-0.4188419891303959,0.3434908660993249,0.23810483015076744
3.685971133,-1.7140740913533705,-1.234833741749497,2.826570412872071,-0.2550684369229716,0.3662065543584212,0.24336376063117676
3.726029173,-1.620451008103165,-1.2858544335305706,2.7842701745727765,-0.14937284036107587,0.3732587374539419,0.24548339927163312
3.765974214,-1.5063453079271203,-1.335341324515221,2.789139459856867,-0.0170422644547623,0.4016360385566164,0.24568049107639495
3.806010543,-1.418406829055827,-1.285762104489503,2.8164467567507314,0.07246585153744244,0.425288587871092,0.2439485460771627
3.84597771,-1.227775612894534,-1.2686176692412408,2.8175318810620475,0.12729324446954554,0.4290655706235916,0.2410784338878428
3.885977076,-1.179773599351063,-1.2773550063633952,2.898205350985948,0.24404567128768767,0.43251022665003386,0.23838174418538374
3.925972867,-1.09100379512152,-1.2938734313286806,2.9292432428617077,0.3331032291145705,0.45629049183967296,0.2362372627168279
3.966029041,-0.9381438952327246,-1.207363652120888,2.9442564454978783,0.41276363862579724,0.4600796896000202,0.22729852545102738
4.006018998,-0.8022298344033638,-1.171640355896953,3.000000466224613,0.526418107901819,0.4506234778523789,0.22409007298352265
4.045976618,-0.7647075851732449,-1.156308760352008,2.9841496709316826,0.5617609293349533,0.4488399829744617,0.22262227904523052
4.085980687,-0.6425207753556944,-1.0946432475977594,2.978550170799239,0.6824420864997737,0.4617316142666861,0.22207062747142928
4.126053031,-0.5907234846014091,-0.9069060515800859,3.0153882570639152,0.7639069822359607,0.44060149798288273,0.21708319087868533
4.165975763,-0.44829574675512146,-0.7942277642771814,3.0664936394059117,0.8568209564325084,0.43440454892140046,0.21605745297428197
4.205968614,-0.39866081954898974,-0.8083153655263511,3.094644083804437,0.9479229513125922,0.430419848215166,0.21568666935100575
4.24598042,-0.37846343255232295,-0.6690577765236693,3.12653894379739,1.0417252608993222,0.4447070659644284,0.2151175661247716
4.285980485,-0.24263364046116215,-0.5409799137641127,3.191824878321967,1.1624623628593171,0.44962217584635933,0.1649662247764487
4.325973612,-0.20947432252751133,-0.40732893529605807,3.2067542073200803,1.2308817558138445,0.469088825424354,0.11193452482472366
4.36598051,-0.13324988705379476,-0.3084826821867612,3.176052535213521,1.1805666232044343,0.4947689241382097,0.05802199784861327
4.406025534,-0.12086000020382644,-0.1595592408758466,3.25772843205799,1.2274054999174522,0.4898059843294246,0.014960005722508073
4.445976085,-0.09528842024820927,-0.07380928493650366,3.2933866682498643,1.2711259575838842,0.479619687251535,-0.03465455110077974
4.485986924,-0.03394603878185904,0.05584684559760595,3.3539175817014795,1.232624630250847,0.4707241925318015,-0.07494678150632053
4.526015221,0.009367641094035928,0.12391896860506263,3.3531232567439404,1.1971645160839,0.47033914160539664,-0.10394049044875973
4.565988282,0.04704093895284093,0.3162067948285475,3.422728837603279,1.1479322444838527,0.4379860753993634,-0.12301756672136424
4.605965232,0.19787255292155242,0.43451194266541526,3.377982279781627,1.0836179838417037,0.41166421851390406,-0.14040203922909458
4.645972741,0.1551717614508641,0.5287052068261394,3.4604125341221215,1.0083137954977368,0.3994815962376054,-0.15031030150809813
4.685981885,0.2545962943434466,0.6443527299859266,3.3974676754236186,0.9424191333633634,0.4020125588351268,-0.15587904840469935
4.72600603,0.34682980026527227,0.7479749618686762,3.438166977894417,0.8373856054096075,0.37346822469772106,-0.15694851757024075
4.76597707,0.46239066985122745,0.8705362318388125,3.3807285167146217,0.7976793015624567,0.36543186916737097,-0.15972190178166543
4.806085432,0.5078184619107394,0.9460288598022892,3.37174903547148,0.6594116651184763,0.38199128843298974,-0.16019742488380068
4.845982925,0.6535709126927172,1.0863438943344395,3.388053989897131,0.5743645600924231,0.39781885739855444,-0.16038676770786123
4.885978495,0.7575103405378519,1.0821006929306285,3.29126547744056,0.5147129939638642,0.3653030493670839,-0.1501604052850255
4.92602987,0.8935291743763363,1.2131251507704064,3.331929038942033,0.3944581018813454,0.3600122792234869,-0.15349851147766289
4.965982634,1.0038214716603475,1.2316606850604017,3.2958774352215823,0.39269224030634986,0.3705267549426939,-0.15882755158194908
5.00596914,1.0943475139001424,1.2824440537658688,3.2776560625959723,0.19431516565913431,0.3599804084958421,-0.1593663184139606
5.04600348,1.2696123752226791,1.3463245868690277,3.3109371906738,0.2056536380354251,0.3459386634937073,-0.16093859518641196
5.086031031,1.3192620415715226,1.3605691045743062,3.2033565485750244,0.10802004878727728,0.34356682752138484,-0.16373858078626666
5.126045662,1.46693086700967,1.3650566728234492,3.250385919160485,0.019675681588010818,0.3530743240844996,-0.16726502042381625
5.165984487,1.6137911691888613,1.3788697557598466,3.130601402360107,-0.055877023641047956,0.37645459765237105,-0.17121745754913176
5.206030702,1.7022063340076112,1.3114351413748122,3.182954583122317,-0.14537813960277493,0.3365628277229099,-0.1641617676573512
5.245971714,1.8926557221184064,1.382469139626077,3.139666641352785,-0.1803569888875045,0.3231332500474559,-0.17157861336395894
5.285973913,2.005831221518365,1.343867047074158,3.0915225103056017,-0.26262363115820336,0.33384254394883894,-0.17920261642598442
5.326014141,2.0937577590107193,1.260255580875571,3.064999033106607,-0.34150240655503644,0.31075451089382305,-0.19058961434141225
5.365991467,2.230891208661564,1.2336682664059238,3.033611059421052,-0.5162514016992119,0.30943439422447305,-0.1918004324577692
5.405998368,2.2751010758380588,1.1559212504560927,2.958299824836142,-0.5929222553094242,0.32402482102541,-0.1925493097060006
5.446020929,2.428474704838271,1.115312786108451,2.93511733269978,-0.6383631546473618,0.33639637631777375,-0.1883569185167035
5.485978022,2.4971041076785987,1.0195063581139039,2.9299544727474163,-0.7115653479426017,0.32814289273903446,-0.19216636945532284
5.525966697,2.6100855644649936,0.918288629286497,2.910373636341688,-0.8637954005911567,0.3416824748246193,-0.19570165396068231
5.565980033,2.6547706161981695,0.8238177570078022,2.9305679056269467,-0.896398117319656,0.3567347894150548,-0.19978194019787354
5.606067407,2.7525970958079617,0.7417544851425865,2.8713981367748893,-1.0197459553960506,0.36850318546163324,-0.20060812599427472
5.645980818,2.843059293993545,0.6506468677909015,2.874212027531796,-1.101227232846978,0.3605971108878778,-0.20640485942890338
5.68598568,2.8522044451505857,0.5331266186510135,2.891253793683697,-1.1697408385764485,0.3679143217194937,-0.21289941949240695
5.726030443,2.8705063674036215,0.4002265172906437,2.937042026006643,-1.260283792186064,0.39109437605379904,-0.21910253551864423
5.766040984,2.954572429048775,0.3590921437415174,2.8356138779477087,-1.3649884149695115,0.3963093583382891,-0.21795239682343204
5.8059679630000005,2.936869704276393,0.30623007354787735,2.8543567656822058,-1.410807180714584,0.3905505058233266,-0.22060988231775772
5.845973638,2.890635668955884,0.10748897535535525,2.8549883492753327,-1.566612836790258,0.40327945521168845,-0.2210737634492745
5.885974944,2.9426904829681546,-0.038609783853562646,2.869106938904287,-1.6049681504565008,0.4362676219157518,-0.2209751894120904
5.926067514,2.9042062691402695,-0.12305077754173087,2.8551274548147294,-1.7515398987544917,0.41996650361041205,-0.21602975961090207
5.965991439,2.9022864636064742,-0.26557239385668824,2.853426645779336,-1.8187853150904116,0.4207407886291796,-0.21838340582725
6.006031253,2.941644667432549,-0.3417973139912439,2.8555572995871596,-1.9152728441614653,0.43367206931191693,-0.22016110153637947
6.045977237,2.8563676288199598,-0.45408688155656846,2.832612426744371,-2.0569302768650624,0.44511247764053735,-0.21686088513601345
6.08597692,2.783699384236819,-0.5058738684130601,2.9008434887291394,-2.1101102380816634,0.43801853821022546,-0.217049447451822
6.125973605,2.7116515322350794,-0.6490518967455724,2.86024502267735,-2.219421321964684,0.43809101638086057,-0.21815689843226493
6.165984121,2.690268206962284,-0.6753753025002511,2.8958723402179625,-2.3062809648306555,0.4541013991630444,-0.2180434935869084
6.205971312,2.5043851776752746,-0.8166540414864828,2.8625202505275698,-2.3669158811438025,0.4545723995890366,-0.21067668028697015
6.245973848,2.4880319627993694,-0.9411653529680332,2.912366414344023,-2.519777968910251,0.4419037346696145,-0.21009182932841988
6.285979629,2.40202247309296,-0.9552686545719113,2.925929812325184,-2.5649551180849204,0.4448062394522215,-0.20899586914704038
6.326046913,2.2995177112535536,-1.0322589610665196,2.9377401451915053,-2.647184591997003,0.4698496096389452,-0.2065282372294457
6.365986425,2.1885877161451748,-1.064138670331322,2.9716708188947467,-2.7522094168115427,0.4403099170355432,-0.20574031576580842
6.4059690830000005,2.063859042626561,-1.1598884718767337,2.947119682554388,-2.838875950528466,0.43793823686710776,-0.20478219115723656
6.445973641,1.9085840341460159,-1.09676731612688,3.037515308727866,-2.8941389070646193,0.439984177757865,-0.20505771618369414
6.485978417,1.8329373334529877,-1.188431060499093,3.022581390163327,-3.0642819859161543,0.4308060795516799,-0.20430444801446193
6.525970729,1.7051755648279234,-1.201217064323858,2.964855558775627,-3.0861886565736953,0.41937156544450327,-0.20490723905372407
6.56597688,1.5897103555352678,-1.1664398484137015,2.94562540623951,-3.2320087427022792,0.39467617675522926,-0.20453875527867685
6.606040778,1.4901383718631316,-1.1564801676251544,2.964339217549777,-3.2678177922711775,0.40748825875768996,-0.20224738599034595
6.645999673,1.3981390652515624,-1.1112350206036778,2.9810085904658257,-3.373997165363001,0.3995347768590801,-0.19297844464452069
6.685990946,1.30093270849871,-1.1507360206493011,2.9696540260149122,-3.4359730040438903,0.3806271765667971,-0.1952801493750134
6.72603346,1.1155099819638743,-1.0988830643558773,2.945615906835048,-3.599188599050717,0.37859700716497335,-0.19860897410504444
6.7659853420000005,1.0057361427782647,-1.0046839061838693,2.907256977772,-3.654369378772766,0.39357315939869164,-0.20210356776726002
6.80597116,0.9213488812685804,-0.913364995964706,2.9288573302438703,-3.7560506237705185,0.4167204564360435,-0.20551528783670306
6.845975721,0.8468487943882628,-0.909898136093945,2.8994694612406318,-3.7688456025355337,0.4571932118720989,-0.20730237929558354
6.885979812,0.7495808583667138,-0.8154350515864464,2.897251601451834,-3.9359381418257913,0.3770659110405318,-0.2060210166978054
6.926059963,0.6985835922707228,-0.7525344724286533,2.939204357734554,-4.020805307955042,0.3933810465779611,-0.21323398941044597
6.965977342,0.5940748521520938,-0.5986785527428787,2.9182293559355674,-4.121629706376355,0.41304578827125077,-0.19046145880715729
7.006024906,0.53521581625119,-0.4955790125156817,2.989582693074076,-4.180277711178223,0.4241299041102207,-0.1633239888348196
7.04597843,0.4801189404075045,-0.4133405915768157,2.918854995641383,-4.309783590086785,0.43873352106020214,-0.13453334088227545
7.085975147,0.42138818384153903,-0.3562265127683768,2.9974041679760512,-4.324380724320212,0.4530035886583867,-0.10656156012263979
