time (sec),x position (m),y position (m),forward velocity (m/s),"heading angle (rad), from x-axis, positive is CCW",throttle (unitless; -1 to 1),steering angle (unitless; -1 to 1)
1.009688771,-0.15936100811820217,0.40651077069861963,3.4130025866393656,1.0345507700040075,0.6132061298770984,-0.1538804550545086
1.049704415,-0.1087052973309582,0.4571890001815598,3.5200019145957078,0.9428301861405622,0.531164489826551,-0.1647616076100954
1.08969008,-0.007489322328863892,0.6423960580869755,3.513973793421758,0.8841973003682099,0.47999562811292606,-0.17692265959504616
1.12969955,0.036414833622146404,0.6702991696363326,3.5269134699599523,0.8648694049139387,0.4334747452117904,-0.18636818719364434
1.16970275,0.18838664489352647,0.8391676483483322,3.480307294674253,0.7121208812509028,0.41471285493984134,-0.1945176832178347
1.20969069,0.258404379340436,0.8914559520245061,3.5078285430836162,0.6417300789035008,0.3679004453574307,-0.1983989426100339
1.24968541,0.40094964986227727,1.006048316158969,3.524652870812205,0.5495230584057461,0.3422009912806881,-0.20880529679552445
1.289687271,0.4993726584251265,1.0586199080627687,3.4430006696223745,0.49716301904853805,0.3203672042110002,-0.20827058151850375
1.329689994,0.64479087948612,1.1095280864077774,3.4130509567283216,0.4037104980575405,0.31494257809510295,-0.21522624955089362
1.369687278,0.7786572679134336,1.1523117011987507,3.4359145529165964,0.3607759932600098,0.3016001525032509,-0.2177764495103767
1.409689607,0.8633504686359625,1.1797027502830248,3.350574479728342,0.18465979331429086,0.2959583146221426,-0.22042603430953164
1.4496879470000001,0.9733892581365706,1.280016278806149,3.3054211855261273,0.10982384195761882,0.31073586307144047,-0.2235654978122327
1.48968539,1.1131836008541698,1.349527037891698,3.297296775735319,0.04432360552114427,0.3324170290342682,-0.23102788984237596
1.5296900070000001,1.2542873326872928,1.2915022491448849,3.212229134358705,-0.015932148656137922,0.34001133115659365,-0.2341086163221543
1.56968921,1.4167125258748408,1.3217747342935908,3.1825473927840235,-0.14530765007590096,0.36719173389484844,-0.23897593960056296
1.609694055,1.5318574568939856,1.2369468035647235,3.1955859969133007,-0.15310537533571908,0.3981021883853986,-0.2444826696367871
1.649699991,1.635154704711271,1.2092519576481005,3.233496964970422,-0.34970264154895964,0.4167955880372426,-0.24653331673807882
1.689706146,1.796355046832261,1.1799141302353442,3.1639540743810506,-0.3630954575025138,0.4338406268386783,-0.25071801964814067
1.729694571,1.9159232511968778,1.1900755030449546,3.2231504816500944,-0.5029427699692917,0.45740949982634643,-0.25412960154860054
1.769701068,1.9630194106175167,1.0260927462321665,3.2006442206949797,-0.5722881270593938,0.48439578700043506,-0.2598470684636928
1.809685945,2.0829324224865746,0.9475459054736965,3.151333535587026,-0.7060199779779939,0.49487060880750317,-0.25662861431257017
1.849689815,2.254107694395538,0.8978162596197793,3.1681684418777833,-0.7233737739688592,0.497360482866825,-0.25450383940788135
1.889742993,2.2608527349952836,0.8547116556876166,3.196412370349256,-0.867111887065102,0.5249326349599338,-0.251099674884055
1.929693285,2.3328806383821035,0.7274115497323059,3.2161280564226518,-0.9173842825763346,0.518750961179734,-0.24690200431764175
1.969688716,2.4021808353776137,0.6011530785741617,3.2900328350520756,-1.0671616583925885,0.5065826162017723,-0.24539218098541438
2.009687161,2.4358243457365956,0.48058950272585227,3.3008981938599136,-1.1842359250302337,0.5070160533506741,-0.2432016268921829
2.049693492,2.598168823931793,0.38824561877425295,3.2713485731659206,-1.2800176155023377,0.527168905914811,-0.24911551164980936
2.08968853,2.579798285083203,0.25762212649271193,3.2639544980206865,-1.4219414734803102,0.4886262168106452,-0.23768548629497785
2.129685886,2.671133759311135,0.13461496030319242,3.294536548734643,-1.4367864721691854,0.46794236889248664,-0.2352703871429807
2.169687061,2.631833548994562,0.03204497884512994,3.2100522639239917,-1.5297584836223619,0.470072962163677,-0.23521940707022007
2.209691717,2.6521373986228447,-0.14014891476502359,3.247817393111437,-1.6958489757513142,0.465091786222784,-0.2334072605883355
2.249702453,2.591036688549299,-0.2772462484012868,3.277738397661961,-1.7186581159777528,0.43056981034052955,-0.23348126767579527
2.289684067,2.6131487687648423,-0.37312930748675227,3.2676700364476488,-1.7604429030286033,0.41681970026338133,-0.23292639771984724
2.329685951,2.5338119301249713,-0.5353500673293523,3.2874043213071356,-1.8876421779401027,0.42203970139268976,-0.23515701756965432
2.369704597,2.542809039831983,-0.6312327262175513,3.241954360276268,-1.9785004873636587,0.43062058537923426,-0.23839007819628175
2.409685186,2.4629935478178817,-0.7840003531713218,3.2433327136485275,-2.091914264947545,0.38160611903745145,-0.23140993809586183
2.449686584,2.3627846278383657,-0.9002825863275168,3.1894653014767074,-2.139677095975264,0.3704394608093581,-0.23572001369148204
2.48978887,2.3581457856854993,-0.9492656168523359,3.2015037814067124,-2.1995961600012284,0.3596404343712222,-0.23953789800324327
2.5297858939999998,2.273215404451806,-1.0425527584079683,3.1821695931673513,-2.332954490034884,0.35701337818864054,-0.23799375109024704
2.569690256,2.207525600755711,-1.1827636431691777,3.120138051371593,-2.403580160097236,0.33240579434733747,-0.24207676975751893
2.60971136,2.055244893767932,-1.2827339503285444,3.125238669763032,-2.4180358142864917,0.3288426727653835,-0.2461176426254563
2.649703374,1.9794508092348204,-1.3103172389083517,3.124202757165925,-2.580516485906965,0.33344063254846934,-0.24977193189857974
2.68973296,1.7903175790705685,-1.3929147993767865,3.0977884264835263,-2.663801089473346,0.31571389626803936,-0.25911362068526766
2.729689238,1.7269015643422405,-1.4443675529374824,3.0837410016268567,-2.7895647011204483,0.3153467616445909,-0.2631482681447477
2.769688479,1.6540766902815798,-1.4790487736559663,3.0936425858966246,-2.8732301736599384,0.32903144785670885,-0.26465787932014356
2.8097993260000003,1.4537304120467596,-1.563985404168626,3.0050119325157847,-2.9800794818169654,0.34569140823405814,-0.2709591061823547
2.849688027,1.3618221204499537,-1.506430669296379,2.965017399055322,-3.111760516493718,0.3553869847184216,-0.27383347523552193
2.889698513,1.2879010092251195,-1.5327315597338114,2.9770889757549135,-3.163671534285452,0.38582573066557097,-0.2757992890121233
2.929691418,1.1644116731868515,-1.5417522620451112,3.0159849393867795,-3.254819383833317,0.4190401811892035,-0.27677642710343314
2.969687633,1.00634494734785,-1.5241724914577046,3.0164285153433537,-3.387609843191822,0.43411929622336437,-0.27289882354056655
3.009687771,0.9292870586264276,-1.4952258935207472,3.0093175651657966,-3.5349635057215254,0.46685847023377924,-0.2733244847855933
3.049685361,0.856227068777807,-1.4770759336382238,3.022973309787123,-3.565908505387157,0.49666774427509414,-0.27509278296414513
3.089742785,0.6877849505607239,-1.3492131277617798,3.023306942972079,-3.6398948982478965,0.5411671678360641,-0.2746164928995244
3.129689194,0.6149795288542436,-1.3000520318064694,3.0827163603282375,-3.746854643480744,0.5399931465137905,-0.26882359370031633
3.169689106,0.46792717019091173,-1.2399447846177436,3.0674388051659616,-3.8711427826379796,0.5513503302811679,-0.2652040590211523
3.209689509,0.42235823264489936,-1.1653715467073094,3.118467159204527,-3.994092827321277,0.5853123656912307,-0.2591145048885872
3.249697358,0.3208288741120233,-1.0585276560369774,3.0605301767809596,-4.109174854847285,0.5965708674626526,-0.24076067466447573
3.289686342,0.2572453151811666,-0.9473358014204752,3.1443618097336734,-4.161288321456707,0.6171799600189567,-0.19618805271960332
3.329698708,0.1392810986311999,-0.8399449870879911,3.2115488010208812,-4.364444782364936,0.6416474230595035,-0.1497738379034699
3.369688085,0.09773654892197141,-0.789325259990393,3.3228331087299843,-4.37785699817132,0.65,-0.10639281131472328
3.409691277,0.03574114240868284,-0.6516505915298744,3.395727778948468,-4.37393618712119,0.6381158024712567,-0.06751802318957303
3.449685523,0.03033180523858972,-0.5342027935610336,3.5436322889169114,-4.406677443859929,0.6125488192482729,-0.019121323520033567
3.489683374,-0.055487145889811317,-0.38867253660811124,3.600335415784276,-4.408261718134917,0.5973066035925677,0.022038358041040238
3.529685932,-0.09933533322049037,-0.17533767425842461,3.618389180553641,-4.326332080937672,0.5900637662184428,0.055240552414893625
3.569701941,-0.1596991073770304,-0.07025931710774305,3.72664669487666,-4.313382609422451,0.5033129477823723,0.06808571011567327
3.609699185,-0.234649331608773,0.061205230814084605,3.75824287619053,-4.269795298095684,0.4472072790257152,0.0803310010879384
3.649701673,-0.26299497558369966,0.1840348892950931,3.8002276260513552,-4.197705982349481,0.4135414420117956,0.09307368256277976
3.689688555,-0.33029550946361685,0.300047420356172,3.801640107843957,-4.22875649459402,0.37146236429072704,0.10406281619232471
3.7296837590000003,-0.40990450533606543,0.4414469259393437,3.7731168781645175,-4.175152930337413,0.330999144511639,0.11876223800435654
3.769684528,-0.47669513316375955,0.5580398340405578,3.79533889711547,-4.109280390097289,0.29913231198500645,0.13186149291344146
3.809684751,-0.5625984827314734,0.7245236975823033,3.77815339231264,-4.005990963950632,0.28589485455908636,0.14468918128212202
3.849685493,-0.6483653741718539,0.8488449160082143,3.7415916286940183,-3.9654447222197926,0.24886924802028265,0.15727219447144578
3.889691778,-0.7578150932728605,0.9080176560890896,3.6646219441317816,-3.8419665967520227,0.22545179137255908,0.16535595370761585
3.929686175,-0.8575613804916965,1.0177898385590618,3.67501631676776,-3.773778456824211,0.21286410596175276,0.17212666532915896
3.9696884050000003,-0.9821726536081296,1.085216293982318,3.5512492054479803,-3.6644340437512635,0.22086599397118223,0.17573197209189187
4.009686989,-1.0649387850754275,1.196129575967169,3.440766822957072,-3.6035686390620794,0.19901271582676197,0.17680053636576581
4.049689267,-1.1774953478950043,1.3123046532403118,3.4125482062433097,-3.4970681378394497,0.19648112299077847,0.18546305897051266
4.089689395,-1.421738056472129,1.360614874582553,3.3636350136640063,-3.4070452337606643,0.20143092830726034,0.18181102920521375
4.129686627,-1.5001487377823475,1.3957730623493663,3.2662674467159385,-3.3263561527747756,0.22792847644807473,0.18369158926595475
4.169695159,-1.6622236888371542,1.4008148951205157,3.2269233883327355,-3.2317232616207345,0.22355921585835545,0.18836975866722033
4.209688016,-1.7574605058706658,1.4065839677234417,3.1718469882958367,-3.189659742070828,0.23298514466539763,0.19123231312422484
4.249685321,-1.85008181602836,1.4309157454778592,3.109814666348685,-3.028319507354544,0.2566488368977559,0.19440599677987086
4.289686444,-1.9693999887402365,1.3779121789026778,3.0907678182555833,-2.9743141722985387,0.28425408517998996,0.19964927898793827
4.329689246,-2.1173083979917235,1.3952558108247042,3.0297631421183504,-2.85478621679844,0.29287770077877895,0.20359363980133421
4.369687614,-2.2200072737590912,1.3341823359912108,2.9590542341835175,-2.7472621560867077,0.31190470338894105,0.20933576961596018
4.409700243,-2.3424560857979646,1.3271195270847125,3.0163202511492355,-2.732962490809525,0.33959618069790637,0.2167069757967536
4.449697913,-2.363776036935359,1.256723058774166,2.999344162446216,-2.5977536833223436,0.36330565762291167,0.22487680788071743
4.489685897,-2.5192841211627433,1.178438947871913,3.0055230557022163,-2.5709211923491244,0.38172718707474423,0.2316083488175023
4.529739494,-2.628388373263042,1.1455331150997081,2.9822822047302786,-2.4164118173762748,0.3871808347201929,0.2366310632422349
4.5697018830000005,-2.7832118778894213,1.0097289382250159,2.9311166715285144,-2.330702460863901,0.4269931765519638,0.23918159037904535
4.6097049850000005,-2.8078544499634166,0.9872120745455902,3.0463507205683866,-2.2445370085634955,0.4358256729089676,0.23457026450406798
4.649746247,-2.87960754897301,0.9403121445357516,3.0210944195247533,-2.13336268072143,0.44879595362772307,0.23545509199656342
4.689684452,-2.908862543040762,0.7465678420598811,3.029958732415363,-2.0834954322938044,0.48050156685467593,0.2451104452066765
4.7296978460000005,-2.988901523072223,0.6207900072226624,3.030220845667743,-2.022128367066536,0.5216843694976676,0.2434480062538301
4.769688192,-3.1029089121117925,0.5588337745185289,3.018126655342803,-1.882211681883499,0.5065583727808276,0.2248930761078014
4.809686845,-3.1263932888604264,0.43935042445689465,3.1283797386678494,-1.7659823383856115,0.5101117049029955,0.22353068921031205
4.849688771,-3.105620290316105,0.27340413472666875,3.1398827651805736,-1.6865358870343237,0.5275072313815515,0.22077995714051202
4.889684781,-3.096119731925053,0.17741908301708748,3.201513848051217,-1.5787747999283852,0.5597324517081912,0.21717465020632004
4.929784992,-3.103165356346577,0.014360962281044505,3.1509590309355593,-1.4534816308025544,0.5375690831463529,0.21532564908627658
4.969697915,-3.1825449903396574,-0.11176455325155518,3.2291202112508963,-1.4302383797350255,0.5345312060726664,0.2121333082365596
5.009719758,-3.1104365374960175,-0.19270692690825586,3.230843162490214,-1.2960750089286537,0.5547523206570951,0.2097687873704798
5.049714739,-3.059846336708116,-0.3112223065007927,3.2358902120424746,-1.205590344757027,0.5455600272893696,0.2050589353260604
5.08968561,-3.0795221748686386,-0.5171465837333801,3.219418172347295,-1.1381176778904796,0.5344109783894043,0.20055975735215462
5.129697111,-2.9638008853034012,-0.582411228392882,3.2664642483392017,-0.997966676237424,0.546249075215997,0.2043504302144719
5.169696617,-2.94506746165704,-0.7082039855685965,3.3230821296914783,-0.927019590173803,0.5443959742627242,0.19502544145338183
5.20968707,-2.8652677905212136,-0.7516162422871121,3.3038474856872653,-0.8350586092252302,0.5098026471568106,0.18840020091313875
5.249700576,-2.730868250956982,-0.9270406661146244,3.328988781681765,-0.761024563149707,0.5047085877186607,0.18901302600251071
5.289695199,-2.6792297488323857,-0.9638197615415489,3.3085137404675224,-0.6660115181396973,0.509562093456222,0.18845191452936116
5.329704794,-2.54043586013432,-1.0939164256785552,3.2946560038257826,-0.6251085244369343,0.46661696235550415,0.18773910784125172
5.369687871,-2.450777473709455,-1.2045889159629346,3.354082500599511,-0.5510296870244425,0.44778821056584867,0.18729329740199124
5.409686926,-2.3772179285231423,-1.2522781244825112,3.3005033111201185,-0.4304948297459384,0.4445519448156977,0.19496391777115438
5.449686478,-2.2265473390427415,-1.2864159953716052,3.3065844397600515,-0.3819489245528541,0.43640130086662304,0.1917911976551095
5.489682576,-2.111168287928365,-1.319003768700957,3.380478069791557,-0.3458242323621883,0.3925136992976761,0.19187275059527895
5.529686511,-2.008930627299787,-1.4351025081080162,3.3423753165283023,-0.1848279790535954,0.3817066869443332,0.19373230357568744
5.569686778,-1.826225483701321,-1.4081173225918209,3.3033395460032136,-0.097642834891524,0.3803522271871945,0.1964787258852546
5.609686569,-1.736110854952963,-1.478996041533394,3.32198429842394,-0.026329044226868405,0.3575415351178029,0.19273504090009208
5.649686423,-1.5684411483937615,-1.4254773256992002,3.201654611348697,0.062807342139147,0.3454739753790057,0.19356420556642526
5.689685623,-1.5030633329894936,-1.423169370202244,3.199376164555316,0.16584880981183422,0.3396942608740598,0.19598179912525374
5.729691526,-1.4114578468668935,-1.4388485167512535,3.232627362430723,0.2789860417069531,0.34405822546921894,0.19963026330558592
5.769698877,-1.2138560804523264,-1.3512451023161915,3.1453707038207237,0.3731858456726977,0.34091664245766434,0.19980119952535452
5.809684252,-1.0663179920102077,-1.371737327800485,3.160374402467372,0.4577069830670195,0.3406570974617199,0.20204019235968948
5.849695537,-0.9914672139394505,-1.3173009819635817,3.1634553972819863,0.5198458951971652,0.3520223954333375,0.20602950114083562
5.889685848,-0.8867741857959469,-1.2332627733129629,3.0835903384509926,0.6627396888958611,0.3809784959820353,0.20871712937794173
5.929688905,-0.7910364848288197,-1.163476688804605,3.038742315732294,0.7286848808094676,0.3922817231460876,0.20350511404029806
5.969688169,-0.6938078251165931,-1.1260228121305667,3.0557247266861576,0.7799885076325586,0.41855496974633216,0.19831053240768806
6.009801697,-0.6225599163362401,-1.0059917639048945,3.0903438669577383,0.8369275222773354,0.44565560366118195,0.19349075105708444
6.04981298,-0.552600258359638,-0.9744753097177457,3.0443538467550737,0.963900497803397,0.4862039595642767,0.19120884841733296
6.089685171,-0.4583147220592728,-0.8119852138911322,3.127496376078339,1.008803018523679,0.5372505681456057,0.14632095550099736
6.129685264,-0.3592864754763291,-0.7061465800100932,3.231433068494786,1.0560166685758046,0.5814097969249092,0.10195790488459217
6.16968923,-0.3008854852559516,-0.5643238073927442,3.2968098217470705,1.1132524668781498,0.65,0.07153339300072291
6.209689131,-0.274007741037686,-0.4553722991046245,3.3510322336110168,1.201415791660671,0.6011088511550121,0.03296086049785135
6.249688634,-0.21348665613071205,-0.3464547514713113,3.47384065354294,1.1807434757089967,0.5911058115593995,-0.008129489717187936
6.289687913,-0.13838501414808152,-0.15931889631283172,3.59180641093288,1.1916099433233174,0.5818171036922106,-0.04440892186453278
6.32969809,-0.08007869226139147,-0.05202192122869781,3.641551153399437,1.1511082069549106,0.5405166520142688,-0.07615113630707526
6.369687076,-0.011094672747944023,0.04929535278864349,3.6484449084461517,1.10155081046969,0.4909421175600984,-0.09239761894917618
6.409687981,0.07491369906109108,0.22274712894959736,3.7469546272899033,1.1611127487049147,0.45127779696075976,-0.10652821342343878
6.449688498,0.10722396705637567,0.28937289259003396,3.7552652156367032,1.1261228664682292,0.4249166264288831,-0.12099365020217474
6.489688599,0.23300638042589442,0.4601393169996769,3.738164762895898,1.0209178709990792,0.36356035044240137,-0.13521949743872588
6.529687341,0.27978485944859094,0.6598883457635355,3.808944144396638,0.9883808131208897,0.328640427371375,-0.15042824252877668
6.569690336,0.3909561366901106,0.7022611234792194,3.717778402365962,0.9212113417774892,0.3108708100160608,-0.1642089060425326
6.609687856,0.388023518408968,0.8167708228515245,3.665883347742227,0.8840538125167189,0.2959812729960925,-0.17450870682763975
6.649687849,0.5734700976291145,0.8602583298692802,3.6407895424861407,0.7228041154243495,0.25133121023398036,-0.18382740313004542
6.689685747,0.6612293152915488,1.0003130776439906,3.5611682523252357,0.6445042506841031,0.23773384023038321,-0.18779994664830896
6.729746337,0.7341643462370486,1.1407557811605458,3.5297806599210264,0.6044127491349733,0.23118754301065683,-0.19122588495980855
6.7696877650000005,0.9051122864330141,1.1886189951887771,3.452493270601264,0.4795138781868914,0.23259408989970165,-0.20218122567935415
6.80969236,1.0189922336221653,1.2615499522707194,3.4448712351872386,0.43281706029356964,0.22339775211948537,-0.20449956055128432
6.849701239,1.12146240784197,1.2617122992243497,3.350061626920052,0.32154308210947513,0.23054916718290636,-0.20713441830191312
6.889689888,1.2533427884974842,1.335363549548598,3.3244972034228275,0.20831555820724976,0.24927929587949502,-0.20901683229899978
6.929686018,1.3642690167617235,1.387656258931465,3.314034629326349,0.12148439000515057,0.2746667814966854,-0.2180948808636164
6.969686474,1.492030850475599,1.3674806442020064,3.219216780628916,0.06632756258201702,0.29070098036032094,-0.2255213453705177
7.009690975,1.6834153303039487,1.3975154620615557,3.169836441505616,-0.0420435633069824,0.3215696709497203,-0.2343027730179854
7.049692546,1.7711097571895449,1.3903598336857574,3.1873652470510683,-0.09085267643733426,0.36335631417039294,-0.2451699363186031
7.089687646,1.905629939035216,1.4020671222554588,3.127987671342358,-0.20115558845639925,0.38045998824630406,-0.24818831233022215
7.129686494,1.9858276630584621,1.3261419415117013,3.132579727296681,-0.35812097427878153,0.39428927322543017,-0.2525132567559897
