time (sec),x position (m),y position (m),forward velocity (m/s),"heading angle (rad), from x-axis, positive is CCW",throttle (unitless; -1 to 1),steering angle (unitless; -1 to 1)
1.016500674,-0.3684609389643874,-0.09592328378994089,3.5320664817617935,1.1354423044146733,0.5316690720714127,-0.04392852085594564
1.056479693,-0.32500384661302617,0.05662335845989003,3.5660122800608867,1.1890294047324412,0.49381668458869565,-0.06824574973828199
1.096480183,-0.2557614720023271,0.17817419217529787,3.592972829543914,1.2043422133983963,0.46964116588296256,-0.08995963137296195
1.1364855600000001,-0.18726271625253266,0.3459305624127067,3.695945316547511,1.227409666961044,0.4632769299795736,-0.11125558113072384
1.176480986,-0.13875929293211076,0.4762416452037467,3.6946236876434537,1.141834460742801,0.40003506549065454,-0.12989844559227426
1.216480564,-0.09301819842513587,0.5820785250075325,3.7254642930849924,1.12353658831862,0.3678903769203578,-0.14889358584093185
1.2564784,-0.0013167021141256771,0.7346368202237858,3.735444150004856,1.0840962047105331,0.34510680458288207,-0.16667709802492428
1.296482721,0.07708961450141652,0.9308098188215007,3.710722903973043,0.9685556294181573,0.3403382741136558,-0.18180665858642484
1.336488433,0.13242065788837676,1.0461488051198977,3.623064391972578,0.8374451980389426,0.2966214784798845,-0.1885270019736991
1.376477884,0.2659759750367334,1.0830188267711942,3.568183079336912,0.7732798305386783,0.2703581363372664,-0.19506199971461696
1.41648473,0.3474387327028829,1.2366412382616614,3.5612331083704394,0.7355311310644924,0.27229863369360224,-0.19991557130113155
1.456479571,0.4291214891271422,1.3224714184800899,3.510836319098174,0.6683413754122608,0.2810992720772223,-0.20420258893593024
1.496541342,0.5643477342500578,1.4232894329296342,3.4131027944096823,0.5782395192177989,0.2632940278739309,-0.20534225187747665
1.536492798,0.6275278645789646,1.5296801780557752,3.416794662441125,0.460641036395763,0.26413937498297463,-0.20902844341328328
1.576500442,0.8030896664117527,1.5559798586481526,3.393400291654126,0.3945086355994686,0.27318066353841797,-0.21351254041623358
1.61649123,0.9446754255887412,1.569472515360258,3.30354064525832,0.3217055516836783,0.28860088991721566,-0.2314051428596218
1.656477464,1.070897176511778,1.6422729942893974,3.318570847182977,0.21248738353144306,0.29815099850398846,-0.23293543858034027
1.696495842,1.2377362292486465,1.6326537595111912,3.2940692176523445,0.15685783629010985,0.3202814418162373,-0.2338097382558316
1.736488267,1.361999431887475,1.6980946611657028,3.2317758508675287,0.04196090314537776,0.3645585704636403,-0.23542965783201156
1.776480397,1.4035758397414657,1.6350779262589337,3.269588938710291,-0.049141593928852326,0.36808640268636766,-0.23814079668175128
1.816481165,1.5474874158706666,1.6000885474425197,3.2105199258159534,-0.1581354733279582,0.39382973094798146,-0.2474407474957112
1.856478384,1.6014435530188114,1.586454733756606,3.129178090304683,-0.24376143350274124,0.4316605929156445,-0.24260254665219724
1.896480699,1.770655073533047,1.5895345370316982,3.235697216051728,-0.31174082499828637,0.44193732149492515,-0.24277467035046396
1.936479806,1.9441095346438992,1.580230400710786,3.1842439699772704,-0.44363945098674423,0.44702098004564306,-0.24452729058329667
1.976479944,2.034876610913256,1.48957888484546,3.1982114425931707,-0.5240746043823625,0.47352726809242157,-0.24715715844260325
2.016477756,2.1209436651799343,1.4373098663293977,3.2052706450716197,-0.59934980172763,0.49027824492839317,-0.24933214538722026
2.056486857,2.3234254346722585,1.2983358871842365,3.1926525435038298,-0.7403179120029786,0.4903238666290719,-0.24214173385000462
2.096479924,2.331305406732415,1.281687643730028,3.2361528537857813,-0.8627385422276406,0.49166498372205797,-0.2430591997676919
2.136488681,2.4596439372890515,1.1613007677019012,3.2382945619211903,-0.8685215280237402,0.494844977665369,-0.2440183254540922
2.176505077,2.432998754871642,1.1947801332815018,3.2660839264795305,-0.9292600740164896,0.5153707753414459,-0.24457024209746078
2.216478318,2.582018475492436,0.955164731160536,3.2506958084627104,-1.0255878657852908,0.499187442083432,-0.24001469288439525
2.256476651,2.6590917516126895,0.8314631095257984,3.263778202391883,-1.1674056365404935,0.486617098676263,-0.2407078066653699
2.296485406,2.6847578554108638,0.7056835746636123,3.311314203748223,-1.2141177447787121,0.49991758264277636,-0.26113119395652407
2.336578818,2.742556806056027,0.627984053698423,3.2915459978405495,-1.2981818416291135,0.49878901211008875,-0.24109496487344012
2.376509428,2.7504039305312156,0.48198838561590085,3.2628609827861594,-1.410194872433824,0.4640255662168056,-0.23842154241546235
2.41648207,2.7839250483087237,0.34051216389409317,3.3121035179515976,-1.5536927900344224,0.4431783001426271,-0.23778281431121454
2.45649798,2.8228218593828456,0.17451603190761933,3.338225635955896,-1.618516298207218,0.44997716509383,-0.2352409611051898
2.496489191,2.7933032290838997,0.01234053389047663,3.295923786713384,-1.752653981742648,0.4394696266112389,-0.23381277794092475
2.536478928,2.799193003439986,-0.004857858602396875,3.2889925813365495,-1.7625571204829558,0.4152174666075764,-0.23060166416368327
2.5765589220000003,2.722516942459435,-0.18495462676780838,3.2651481898054313,-1.8478509406776555,0.4124999065067036,-0.22931811562031806
2.616580708,2.6894154395544607,-0.2897818810422422,3.2259712875412903,-1.9597973625228922,0.4183415112837037,-0.22920452905426555
2.656483815,2.6903080915509725,-0.4289857542151365,3.2479098625496388,-2.067699169618152,0.39262814656306844,-0.22702936304521854
2.696479517,2.6353987410105764,-0.5878896076352788,3.237040680972883,-2.1129916687402353,0.37138680562518184,-0.22946099346190235
2.736495051,2.5493835522028427,-0.6527278561366491,3.2612735260049175,-2.169566331469046,0.37040197014718435,-0.2339041365587977
2.7764894250000003,2.450281359913327,-0.7509896848576043,3.190448397736434,-2.2386126580668786,0.37652885031447847,-0.2304402314980534
2.816494376,2.3219057709230184,-0.8166469093801698,3.219672281260628,-2.420635369417661,0.3461219096253157,-0.23545836913096452
2.856476133,2.1647808557281865,-0.9550057403634347,3.122959366060962,-2.487648189608751,0.3395603586999325,-0.2454801916105888
2.896481614,2.191585636060304,-1.006939037722556,3.196109663340716,-2.5947703423185655,0.33125004511674766,-0.2419054188501097
2.9365608,2.0393008350537443,-1.0881798489448153,3.132008632017987,-2.750447192988952,0.33565660472076114,-0.2407813857605045
2.976479675,2.0033159651064687,-1.1228891575412963,3.070568947553416,-2.726054176703748,0.3227107529117,-0.23884176425479878
3.016482814,1.8421234269691718,-1.1736789541074206,3.026886849095209,-2.785329737647811,0.32556005742033267,-0.2511791239290385
3.056582527,1.7900216283332249,-1.194808973813909,3.0621277172080816,-2.9041898580804104,0.3419544840431694,-0.2556179188230038
3.096574502,1.5541418529562718,-1.2115111714688829,3.055043231483721,-3.0252464956606087,0.34940488767633004,-0.2590273659073287
3.136479907,1.5033430254531983,-1.2670330084766517,3.0541314018491064,-3.084187641863942,0.3508067176865187,-0.2616584801492191
3.176492685,1.376672935098532,-1.2633653227494401,2.986663815129756,-3.186227558944005,0.36713838857108555,-0.26338256169831314
3.216498535,1.2308016625386,-1.278794375593359,3.0227948870517496,-3.291848542619594,0.4017163209707681,-0.2642008573383183
3.256530049,1.1653813102355757,-1.2296896359560445,3.007626565955587,-3.438160514812476,0.41160326065432784,-0.26114839488819785
3.296477475,1.0262344293670003,-1.1814954126534196,3.0221841653427357,-3.512241700887867,0.4356751033813469,-0.2708372220545958
3.336483636,0.882685438694097,-1.1645048049606184,3.0801833434485397,-3.651948703861337,0.4646127133253252,-0.265164728088682
3.376472293,0.8403664307323606,-1.0874748070661588,3.075234174764719,-3.674432078978402,0.5115500913120196,-0.26405049142727005
3.416474691,0.7131443230251973,-0.9959048258779555,3.010533851985719,-3.7759659738032587,0.49047664642599054,-0.2531830232816528
3.45647761,0.5806034181738653,-0.9728539047168729,3.0772459745263996,-3.9118222180314013,0.4968986061226577,-0.2511912810993964
3.496477789,0.5030822033635339,-0.8842798833441542,3.0871671442941655,-4.015007684226936,0.5282475927372389,-0.24685521189967602
3.53648232,0.43246080421848765,-0.7730528383526991,3.127362919061733,-4.10742179969838,0.543754044737146,-0.22538614259262163
3.576478318,0.3589403793653693,-0.585299870612655,3.1242338951864626,-4.174751001119808,0.5584992381017267,-0.18085363009506136
3.616562105,0.3165442451184267,-0.5612190497781119,3.210777848739735,-4.266401031821724,0.5849708290843647,-0.13418517283304926
3.656478278,0.17613967965727584,-0.43582810381142484,3.3112975714884425,-4.290923796868622,0.6176755799723547,-0.08783743205990367
3.6964791310000003,0.16876298631936934,-0.28478809646742387,3.450352810419805,-4.388338309446925,0.5784382212088857,-0.04898982208048501
3.736492568,0.10240445197090527,-0.14622282852654636,3.4928841540226276,-4.3320437129993525,0.5599752243876167,-0.0018064651879922868
3.776479374,0.0928614887189955,-0.0676329929708103,3.5562219538471544,-4.33469955700203,0.5492774827817525,0.03496204818799893
3.8165532300000002,-0.005800517787937217,0.11789011543390668,3.651330645983798,-4.292921553571834,0.524854316989384,0.0604953406117676
3.856488825,-0.06007461032140511,0.21689024084945868,3.6616681845101287,-4.241672785192076,0.4444970665386532,0.07270812866454814
3.896534275,-0.076473589499327,0.3679601380042984,3.7430675099700386,-4.187171159725065,0.40734208334047833,0.0868393505701063
3.9365383510000003,-0.14640061324047365,0.5392199060593831,3.6993714027928477,-4.200453534154988,0.3805254433978018,0.10205145049127086
3.976491898,-0.2935151310840113,0.6625748282102228,3.643128793672036,-4.116410331499327,0.37323796405270093,0.11515577104783718
4.016582024,-0.35954855015744414,0.7598844185243948,3.760240359197899,-4.06589700778902,0.31446806229736407,0.12468811817111661
4.056480147,-0.4287604909898744,0.918216949756518,3.703317608018698,-3.9888282157059516,0.2934146517273403,0.13721907475072834
4.096526715,-0.49510599143965806,1.0255686414698841,3.709869847952072,-3.9393013749790606,0.28419049697918014,0.14785210112959357
4.136497519,-0.696665789178297,1.074322678764948,3.6631079368391806,-3.8949252144537057,0.2584372017101507,0.1539175132695882
4.176530539,-0.7352506531685801,1.13483248648178,3.6338611014321414,-3.831883762231678,0.2311605543230084,0.15782177319798563
4.216477417,-0.8545852292260497,1.2492929870210743,3.541265776406174,-3.6905042330691042,0.2354208343084884,0.16986050332500244
4.256479923,-0.9935436564404007,1.2901765916462435,3.486472741663634,-3.610132344658355,0.23931602524088996,0.17480302896684363
4.296478347,-1.0501283671807,1.3685258752626097,3.4574103501630438,-3.5356047550695666,0.22567204983470596,0.1759204426831601
4.3364809,-1.280726825177962,1.497421906375945,3.3913116476595295,-3.409149679502991,0.2307110897275411,0.17833169315277128
4.376483274,-1.381301452868928,1.4743349007446198,3.3647175738039525,-3.3032241830482327,0.2448832377203919,0.1804700931691865
4.416483351,-1.5273738886511008,1.5151309603133347,3.270997424347595,-3.2549025909679306,0.26047454033775536,0.1866265386105481
4.456477935,-1.5621008768164597,1.5240821603474286,3.2871086853297204,-3.1819513469616103,0.2585033461137167,0.189483727321025
4.496524663,-1.7734518103141552,1.4947837084919189,3.1664845805965123,-3.1318053568423654,0.2675030131220229,0.1934705025525602
4.536479038,-1.863426678292541,1.5261254386139176,3.1493564270987213,-2.9822919052184167,0.29054925516783714,0.19678795573145602
4.576481414,-1.9614019068447075,1.51533019827755,3.064346799333046,-2.8863477452766726,0.3026617188804582,0.19982221218309107
4.616578508,-2.1598865911846623,1.4474821398990334,3.1342686602739827,-2.805187434084206,0.30980346255503155,0.20370608778089105
4.6565347,-2.344176379709174,1.417515981351999,3.025213617456867,-2.740133303823816,0.31848411723089676,0.20900854306849573
4.696579216,-2.317888197088072,1.448434902337249,3.066450009728915,-2.631130522605471,0.34981848795417103,0.21415540112735404
4.736478881,-2.532987807855265,1.401910665308876,3.0627572684301234,-2.6190990598891264,0.352339486124124,0.21939726420102126
4.776480186,-2.5351964008561825,1.2678552304123958,3.056502497728822,-2.471153744594428,0.3609821766949842,0.21805337133013739
4.81656115,-2.625772113785568,1.1729351827859336,3.045934271098673,-2.3682866870010666,0.3870348243346061,0.22968577368204307
4.856479624,-2.717041009870424,1.1425375341020427,3.011458973427883,-2.277621332040515,0.40901455832131445,0.2331649217930088
4.896480181,-2.7984099725676654,1.0216678071015404,3.0231780785204516,-2.249314008476766,0.40778292197618254,0.2308623514525118
4.936479177,-2.9120674480001507,1.0273344246654812,3.052132006677593,-2.1071774838131088,0.41690599633314734,0.23376485746044945
4.976479012,-2.96396356240723,0.8558953993072755,3.028084895753021,-2.017498710937377,0.4344402004757519,0.23518677862907386
5.016500135,-3.0187943928037377,0.7412807752127155,3.056422284460089,-1.9454775202109897,0.4610357515427646,0.23380587556823257
5.05649772,-3.0651391297777786,0.6528883400694326,3.157274263042984,-1.8386894181032136,0.4602005243818247,0.231351247678651
5.096482228,-3.021233230928518,0.5084225164858396,3.1407276514472415,-1.716598545968649,0.47651947162465635,0.2282292063616231
5.136498311,-3.0763197478839714,0.4182834061623661,3.039581889245472,-1.6339916456005334,0.4927473583415067,0.22580390857143753
5.1764848820000005,-3.1481330678098653,0.2988209058461276,3.1648028287512506,-1.5883689952386015,0.49754234378828815,0.22168483672123995
5.216483412,-3.065164745188495,0.18997181467263052,3.1478834818923684,-1.4747330424740348,0.49501093718789424,0.2189378035232119
5.256494281,-3.091356357569012,-0.033429125971540775,3.1886037452504024,-1.333490539480204,0.507203619890461,0.21852204127326022
5.296494655,-3.098711105260935,-0.1670020419294508,3.1487847555788937,-1.246989025579198,0.5203476931956924,0.2200359374896146
5.336487741,-2.9884479058308777,-0.2081945098531015,3.166390329722386,-1.1329266057943659,0.5058528173310909,0.21033370220140063
5.376480738,-2.9739066447225313,-0.36748638149437424,3.187180099725186,-1.0762667080324886,0.494257461463268,0.20711156414483212
5.416586103,-2.9444382746942823,-0.5045845693400735,3.2393141687261577,-1.004567180124024,0.5160376422506513,0.20439893016917188
5.456564832,-2.821074197404907,-0.6083666493955817,3.2348879814533484,-0.9119993037176434,0.5084164534483823,0.19491039618001388
5.496489806,-2.8137362966118027,-0.704747356187779,3.252215310762249,-0.7671327417395536,0.4881087700197621,0.19458194313022428
5.536481303,-2.73899351524223,-0.7837110987397418,3.261444344565091,-0.7470953124650839,0.4662183752922148,0.19576553270025418
5.57654703,-2.5827692924003527,-0.88693988507093,3.2600293277400305,-0.6203083956493048,0.4672828462008834,0.19811021944265278
5.61647897,-2.5250968579285655,-0.9653143242866647,3.216257491917887,-0.5956340987423876,0.44928412246466404,0.19328214922451195
5.656481778,-2.4086062411212352,-1.0434991468692356,3.2605316121417163,-0.46762155068480055,0.42136772981629306,0.19438113000377613
5.69648674,-2.2748496920271895,-1.077371893223321,3.1884267982802093,-0.4743761694870078,0.4125069164610142,0.19690728113352032
5.736534795,-2.2327216484419257,-1.1463544438520807,3.1858385404063836,-0.33780762580734913,0.40924936971695763,0.20164998839342932
5.7764802,-2.040639260978951,-1.2147818406014737,3.2010034075509455,-0.26464542608585306,0.38357472406387894,0.20264931492603402
5.81647964,-1.919236856484835,-1.2617057853636604,3.2534651061805713,-0.17816939708600862,0.37394333196256124,0.20499912158906614
5.856491573,-1.7779891397829133,-1.2672774178648998,3.2627673447371053,-0.07500063418154018,0.3789938359156393,0.20635184492167066
5.896479699,-1.6393063751119763,-1.2565985578999135,3.16093883453748,0.023338089928986006,0.36386222865968626,0.20798711092517302
5.936503377,-1.5204757316841089,-1.2767209942970288,3.110929469144871,0.11930266425614958,0.34247399498056263,0.20931391105035232
5.976476942,-1.4354649460478865,-1.1939060958326386,3.0846671366993887,0.22542981942807913,0.3387004089239356,0.20978593403897405
6.016479562,-1.2805201376056046,-1.223423028194366,3.1200292929202904,0.32491329053035956,0.3583068271846493,0.21154412480454451
6.056478018,-1.1949888140180995,-1.2225412119445864,3.0829381779659215,0.3474416913315565,0.34427338144566993,0.21296583499326632
6.096478518,-1.1268439654996152,-1.172501458583914,3.047375563203486,0.5130763220196815,0.3370479339085814,0.21353019477700938
6.136488968,-0.9904807804901138,-1.0682943965530491,3.090695842690073,0.6296244459041439,0.3636797562997273,0.21519298913215068
6.176483833,-0.8882536664817733,-0.9257838848782614,3.000115866397272,0.6696035265766405,0.37846077359996144,0.21181276326563112
6.216480484,-0.7573129521429902,-0.8850247208578235,3.0201393943855277,0.7482634094933298,0.3880139778832316,0.2081609275613085
6.256569073,-0.6530581964018252,-0.8036217919854368,3.025862472178262,0.8115014357957769,0.41439796823903047,0.20449633912730739
6.296570578,-0.580291957286438,-0.7634253053432555,3.030728143713273,0.9338263994600206,0.4360839088784096,0.20117158561022908
6.336582038,-0.4761451563019747,-0.6519616671303285,3.0417493769963992,1.032211876629328,0.46945458419161656,0.17921357690103454
6.376496486,-0.44895470769852347,-0.6053007877025701,3.096488709656041,1.0387847622423791,0.5113316277543279,0.13009407057099887
6.416564189,-0.35203049962513244,-0.4797424761592276,3.1943993415624212,1.1192065824903652,0.5617480168634076,0.08135394590465131
6.45658196,-0.321125469367869,-0.37286814141064595,3.2606941834626717,1.1511123501828235,0.6012053994577138,0.034463657696681846
6.496481528,-0.2152144923763048,-0.23108907391685335,3.37611658640524,1.1970412106692414,0.568625705702291,0.005107918800065789
6.536480165,-0.21664188521915934,-0.128384216330459,3.4742999665536614,1.1854681555520024,0.5485007743834945,-0.02921599075108749
6.576483693,-0.1410930667183178,0.010661520421482107,3.526781585682346,1.161101877588415,0.5344055876294326,-0.0563246114487512
6.616574161,-0.08271675373715145,0.17524102625650204,3.563787400752597,1.1242072305345563,0.5274992483064337,-0.08091539779188858
6.656479503,-0.05118621044560893,0.32789575261416065,3.61720900303281,1.1220449613750136,0.454605431379185,-0.09671967620308858
6.696494545,0.014765878555830642,0.3823593226120546,3.673079910815029,1.0938042449073477,0.41342737842094707,-0.11825931559255838
6.736562711,0.12188998518448484,0.5576855589010442,3.6934537279839925,1.0645585036883127,0.3967716727389893,-0.139174223995632
6.776590599,0.1374996713762749,0.6656454155254323,3.668048830884242,0.9996641042632342,0.3462799202858683,-0.15659070945380318
6.816478765,0.25514887532712904,0.7929165737475451,3.668750300281813,0.9230019520733678,0.3134771231849195,-0.1720697596610658
6.856482089,0.30525785848582865,0.920023008582198,3.679455092521174,0.8861435615115841,0.29014250372529077,-0.18492615775116927
6.896482997,0.45429831771475776,1.0674785368279698,3.6222342532640184,0.842018443187079,0.2909723770861584,-0.19636150922670015
6.936481795,0.599387551559745,1.1669324237323901,3.5351679900988064,0.7046160228500377,0.2654141597259345,-0.19439297169118408
6.976479582,0.6897064564256568,1.2152648752612425,3.5660749479416927,0.5510189520237547,0.24936857765647255,-0.2003079170441703
7.016478621,0.7356730021650426,1.2953387146804338,3.453787301762897,0.5306714679785367,0.24658789253056665,-0.211614821369162
7.056559367,0.8959509032164825,1.364276085563937,3.3908987542956743,0.49601491133675724,0.25801082110400364,-0.2100033764468692
7.096481422,0.9828727037779068,1.3930853492661233,3.3639796625307623,0.41161086805221336,0.2581956280781115,-0.21684210133256965
7.136486689,1.160038463368394,1.5045012973869174,3.299994687796717,0.3164563342384618,0.26726156663640616,-0.22101945414785631
