time (sec),x position (m),y position (m),forward velocity (m/s),"heading angle (rad), from x-axis, positive is CCW",throttle (unitless; -1 to 1),steering angle (unitless; -1 to 1)
1.011969436,2.786060342986579,0.1681253234851426,3.100746531255488,-2.002262527274742,0.4190324974050614,-0.2330179946543687
1.052092224,2.688239985578887,0.07975462705710465,3.125651289988901,-2.0789435598011736,0.3977354984555593,-0.23069758774058824
1.091975117,2.6440923144723154,-0.12741534001785096,3.0776039889773212,-2.1393186691990502,0.3920964431671121,-0.2306371208720311
1.131963455,2.5736831462117458,-0.15588093748418738,3.134944248164362,-2.251195184946823,0.3988535435794996,-0.2298115928632281
1.17196889,2.4327717774530075,-0.2952771423142812,3.053982713699836,-2.326829905218005,0.38269810787821906,-0.22945146865898447
1.2119690570000001,2.361435467635597,-0.3711288939396845,3.186156430836937,-2.4422889430501478,0.3787220336153037,-0.22761150748101508
1.2519795120000001,2.2929920835263378,-0.4082608807196854,3.107969757243592,-2.5383792221228854,0.3744939572852254,-0.22719246458328948
1.2919715090000001,2.2060839515408874,-0.5269355256467582,3.10465110014032,-2.6686132758905945,0.3730207627300806,-0.21859569124324443
1.33196297,2.1349412916048216,-0.5767224460727634,3.0789533767024277,-2.751596253918561,0.3549486104821836,-0.2165484947303297
1.37197228,2.0051147779418046,-0.6384118909971852,3.077585249223566,-2.7978109936248297,0.363800011741366,-0.22073987230185266
1.411978604,1.8454849073200967,-0.7398165535307231,3.066177170440582,-2.9251852721194496,0.3672011691442666,-0.21869073425428
1.451973834,1.7437133720202918,-0.6823991417670859,3.0551687255566313,-2.986482136449439,0.3541085806424185,-0.215273082764684
1.491976437,1.646065197243318,-0.6932718055763283,3.101241125701015,-3.1244147158533755,0.3401940822839512,-0.21488389663342308
1.531979471,1.5004848383840848,-0.6975230636123224,3.1114151122322724,-3.1867317028695763,0.3392627727585487,-0.21470580296535782
1.571971446,1.355538986330496,-0.6456734764845012,3.037575819792726,-3.296289560035684,0.3512015230982472,-0.2142250154627452
1.611971387,1.2389208242085348,-0.6550453375400426,3.020537675867821,-3.3525418794734194,0.3229773288599428,-0.2076426298795198
1.651969254,1.1556119799546694,-0.6764683028320781,3.0756087699060513,-3.4952884261279347,0.3115308587721243,-0.20858862598923186
1.691973866,1.0430880490996077,-0.6653079264233273,2.989489780081156,-3.6316334176743967,0.3122028513997928,-0.21096543073572213
1.731980347,0.8972875968824757,-0.4715444034516674,2.9736132876073107,-3.633806298383481,0.31539193323379877,-0.20374686010005558
1.771957196,0.811066437375665,-0.5448462975083401,2.9956266498844677,-3.791504919995598,0.2989238505332659,-0.2114555273288581
1.811972719,0.7495228316952763,-0.5283771483576352,2.926654332183521,-3.8398278770545615,0.28876170876990637,-0.2144895810430758
1.85196521,0.6877146356457178,-0.3164535409474394,2.8984181383492746,-3.960983274423146,0.29789578522036436,-0.21770162499452664
1.8919963540000002,0.5896750406886829,-0.24543561738952915,2.8917528991384636,-4.026624671448539,0.30820686893118904,-0.21450156276194643
1.93196395,0.5278573999082277,-0.1596484744304801,2.963787457527158,-4.122878080798751,0.3350484298934802,-0.17936316460886675
1.971969147,0.392424112095557,-0.048729539728392945,2.9637348009106557,-4.179061441255975,0.3562517128432389,-0.1512214575612143
2.011964763,0.43245232207960566,0.031739052447742604,3.024210279152748,-4.286864693307501,0.3800969039872122,-0.12309580689411742
2.052104871,0.30048841182510166,0.12458020108268983,3.136468585618033,-4.27054894459015,0.3802977125952051,-0.08379978984467498
2.09196873,0.2241067202951549,0.27344822878753,3.0674630588304894,-4.277762071215481,0.38002193462379197,-0.037997270635639346
2.131971194,0.18489226819065166,0.3502324203771631,3.176714932430119,-4.27472608090149,0.3921167984931103,0.005855633571819794
2.17197063,0.18471170923192645,0.4957129243596864,3.2451756087208685,-4.231139985784407,0.40202527565621216,0.045577292476751324
2.21199717,0.04918197561232006,0.6735364323042056,3.294372043062458,-4.252116812498011,0.35309077185637644,0.07139080418978337
2.251970019,0.03630832271573049,0.7506592020182157,3.364109149120269,-4.168587351236596,0.3402509897399112,0.09771552916213187
2.291973531,-0.073102083185813,0.8391276625684787,3.3884539863542313,-4.060266221309517,0.32307703935481097,0.12191008827625853
2.331973669,-0.11090286529887124,0.9839063367577119,3.345228207983914,-4.139146200318876,0.30224299621994366,0.13027221250539486
2.371967298,-0.19681395034389057,1.0878539017835596,3.332206530152678,-3.9891756557802887,0.2903860217458659,0.1501156753598702
2.411971762,-0.32654992276308903,1.1562521549405531,3.356602261176539,-3.989063445350571,0.28175156790331796,0.1635720195561213
2.451965037,-0.4104313459987758,1.2756977102681706,3.3765697029518065,-3.9272772001740286,0.29599135168416896,0.17490997982547146
2.491973153,-0.4716199843166308,1.3100088405368353,3.2669978538241913,-3.822578920505962,0.30791567626998484,0.18229210681777355
2.531963973,-0.6031446446100497,1.3986365589348615,3.3434956696893803,-3.700256302348072,0.28157623756647876,0.1764479036211315
2.5719736600000003,-0.6823456506761665,1.5542023179781204,3.309622163071251,-3.624267246521154,0.28081609219207443,0.1818098712216933
2.6119839330000003,-0.8193994638135038,1.5184594558813478,3.2604012605863084,-3.51580655731384,0.3119999116575732,0.1831921245217248
2.651979141,-0.9479363490885911,1.585627507671653,3.249652096407858,-3.3887606251879943,0.3046207710438788,0.17847742299277966
2.691971732,-1.0505653175578158,1.5888846855649923,3.184754191077349,-3.275825904303526,0.31518567769332934,0.1741063083394947
2.7321070890000003,-1.1636047386876407,1.6682201543144692,3.091734180156318,-3.177395167298582,0.3341748216620205,0.16920517721904968
2.7719619460000002,-1.3684597142234933,1.635586150354601,3.1283859240538314,-3.0727853472032916,0.36536318973058335,0.1642092228029096
2.811970774,-1.371746691027932,1.6843155250377166,3.085746044394791,-3.0206876830206695,0.3663880168362363,0.15029886097900827
2.851969155,-1.5923797898886372,1.6437107709149201,3.104977418048597,-2.9311019410420425,0.3735446459684726,0.1510088720404434
2.891979178,-1.7323955952411034,1.586709388273743,3.129931644893322,-2.8091088914550486,0.3831887870032463,0.14713944577044816
2.932010399,-1.7851769451187773,1.6297483097666623,3.179421795987454,-2.787744390229268,0.40440076343247344,0.15898928178725796
2.9719698450000003,-1.9098796055727614,1.5003259559495072,3.1536327500912016,-2.6977358041393558,0.38079238507225804,0.15728018111008882
3.011966118,-2.069481447792041,1.4358381105268627,3.1281003090981025,-2.54450791102456,0.37013009989840895,0.1597487880770373
3.051966983,-2.170322518359847,1.3655174861935546,3.1236896042022178,-2.5783115965760968,0.3770042064188229,0.16210672240122345
3.091981068,-2.2132022162292433,1.3334970179021124,3.1474474823723164,-2.5151452653719817,0.36176673534500786,0.16379796956350673
3.132015774,-2.3675592666546996,1.2356537556767992,3.1458958120330713,-2.3362517126308044,0.3462556820266597,0.16667067127137872
3.17196851,-2.4364151540210597,1.1528362474265534,3.133992328272634,-2.281421055971291,0.35151076491627126,0.16886299136913102
3.211965525,-2.510329680640752,1.0477057090892234,3.1918911583692156,-2.2441480683153365,0.3562305351090002,0.1719024429513463
3.25197363,-2.584475287978265,0.9464587654485044,3.1525811221090736,-2.1362192980938977,0.33342789142236906,0.17095570581477526
3.291971673,-2.6123576887777875,0.7786998918506185,3.123488642520278,-2.02441421252156,0.318494414439132,0.17419327224169426
3.331964881,-2.702103158761707,0.7409293302293137,3.0947337130952217,-1.9232364373875654,0.32397017432308095,0.17842313347758848
3.371982442,-2.742662798098168,0.6159638336001138,3.083297369769374,-1.9007338835506664,0.3257667852078934,0.17593317221200255
3.411971537,-2.7984756270724613,0.44524541776695625,3.076771069496685,-1.7853875652420066,0.31298828418013375,0.17779703216137502
3.451970961,-2.799417884361922,0.40291327599133614,3.0594884777317355,-1.669375419879252,0.30621810405824146,0.180068497340958
3.4919756140000002,-2.828630435978645,0.2538527619266759,3.0517073732987594,-1.5455844133054855,0.3233369199627139,0.18298969349733002
3.532066336,-2.842254046029061,0.17397518519567426,3.059865099393519,-1.4379379878292184,0.32061335562463994,0.1846743200264122
3.571964255,-2.813243080763119,-0.03869602047872228,3.0385193807457207,-1.3741658018340206,0.31552259790956033,0.18754648537636573
3.611968805,-2.7653495987493995,-0.06522643497853886,3.011210925383435,-1.286031493141286,0.3165217433651068,0.19071047961456827
3.651981749,-2.764113639982615,-0.2572481636964803,3.0382129854324487,-1.2502545549057216,0.34250482072479793,0.1941170353222808
3.691964171,-2.6445693491816162,-0.3657106204967206,2.9546352188384284,-1.153649601374305,0.33467161861711175,0.19784164647781644
3.7320483280000003,-2.6675646111316667,-0.5005700378572148,2.9071086457225204,-1.0262300906479647,0.3378925233090317,0.2006199350229732
3.771957225,-2.5554393680166796,-0.6147403374765561,2.9699719178676403,-0.9072751524472635,0.3508038580907256,0.20361335036299708
3.8119688380000003,-2.5135258425469247,-0.6399825570273867,2.9286973201713,-0.8437160941983918,0.3715992025678435,0.20542295052486148
3.851980755,-2.4462982126305604,-0.7059663244603105,2.965799998003204,-0.805894319344738,0.3681986349492008,0.19830401278085513
3.891968179,-2.281037342890442,-0.8237269230143668,2.9527656233500674,-0.6311411384671818,0.37661351440567653,0.19781840042435583
3.9320180440000003,-2.262456048936245,-0.8781991335231698,2.979032237353087,-0.5475455959125012,0.4015044911393767,0.2042694567756082
3.971972417,-2.127753096053817,-0.9003777546357975,2.9444502235101577,-0.47811218680886275,0.39682513627022986,0.19853537114718312
4.011976493,-2.053322829454257,-0.9928895179810259,3.0334936794185436,-0.36400051734005606,0.38960671525601276,0.19234583979980385
4.0519735,-1.9544719242984518,-0.9604785835757357,3.041074565093711,-0.25623990408692954,0.40673071798984306,0.20106347102107255
4.091975608,-1.8043145461145322,-1.0374286960330943,3.0389826144994827,-0.14276984150684255,0.4284122815242287,0.2024737039923507
4.132028675,-1.652019092221011,-1.0709975545560473,3.0940491400773698,-0.09578741795020952,0.4089474827097189,0.19566419307647
4.171979483,-1.55503601654823,-1.0906826884047123,3.132558998779128,-0.041333259215142325,0.4073661628255018,0.19485292114755098
4.211981067,-1.4511515835084103,-1.0302138640715184,3.073004387813392,0.11787195002113139,0.41067437601704465,0.19509369986420877
4.251969577,-1.3269305029376341,-1.0589991040534505,3.026225864502334,0.2139143113236569,0.40081663863922334,0.19171183986320298
4.291976705,-1.1720660199382507,-1.0345842561383007,3.0813325149348114,0.34274331716737383,0.39323525844147106,0.18964998365907693
4.331965783,-1.0929665298938458,-1.032145344392875,3.039689166381157,0.37115138291455085,0.3838321420729713,0.1884979329476173
4.371971198,-0.9851074931673741,-0.9641030076994174,3.0846241630781743,0.469470242970204,0.3962110393820602,0.1861727482998862
4.411967789,-0.847714961480241,-0.9391506492615586,3.075316750802596,0.515791862521003,0.379507594489301,0.18089203597009912
4.451982505,-0.752340568952183,-0.8276916691028788,3.035304969255762,0.6211470442583907,0.37287211572278084,0.17889585175125053
4.491968395,-0.661647632540099,-0.7450103175605827,3.0671691605357037,0.7225741295114265,0.3722116322463052,0.1776598332785521
4.531962738,-0.5819698442377461,-0.6579936294510448,3.067648621844599,0.7594135730389803,0.36465879388413275,0.17949612782865496
4.571969722,-0.5143567174190324,-0.5858956629150858,3.035601944930966,0.8451531336852215,0.3524518570025936,0.17817859414037407
4.611967632,-0.3731058902212118,-0.5393333752733339,3.071297347734167,0.9970464555299203,0.3448748272238744,0.17927629945017384
4.651974486,-0.335225161949238,-0.4117851571613734,3.0652667609171345,1.0918011789719688,0.34526486861094524,0.18026934184158705
4.691975947,-0.28253581209204154,-0.3472652521138823,3.068715384455619,1.2175200496499219,0.35836808300166395,0.1447440966277539
4.731969645,-0.25962808026322093,-0.13835576023583782,3.0359204823145785,1.2800337428025306,0.3676958687098852,0.1015389021684968
4.771959244,-0.15966064354555254,-0.019926799781472573,3.1182551390490514,1.322756013114913,0.3977966836086554,0.05833842624058617
4.811979601,-0.1713357944460358,0.02000236024943587,3.125456521542963,1.3034098842805169,0.4112116706939121,0.015959760642852892
4.851968966,-0.08893628476534969,0.1727897228061719,3.2037931867077494,1.2219771203043248,0.3901662421538069,-0.03359613477781348
4.891973111,-0.133116018321967,0.33730504408208306,3.2038565228869698,1.3122249919886526,0.3884970882244419,-0.0725173928240604
4.931981848,-0.03353205291373315,0.42626661517503395,3.2407992875571705,1.2660733195075535,0.3982572454221664,-0.10290741486419072
4.972061835,-0.05177530581844142,0.5475586653864344,3.2544043220000978,1.2111216973025423,0.3779236400782591,-0.12720379734111006
5.011978401,0.013999119962595744,0.6196774836920905,3.286654692296463,1.1601006529021385,0.3560684411256331,-0.1533095149051888
5.051969232,0.03477231591557395,0.8371201186685708,3.2808848485580238,1.0875127199672254,0.3476371785252946,-0.17132193394514947
5.09197647,0.12778329213557363,0.8781915088667851,3.2985248514115577,1.007313476407768,0.35709334248425406,-0.18258258187616297
5.131966807,0.20237347208332476,1.003704959009699,3.2642670899217974,0.9027240504471864,0.338601132869503,-0.18343495327317105
5.171969956,0.25540870863314363,1.0887687049951664,3.2423203473351543,0.8199977532624032,0.33811785291916363,-0.1890865049967426
5.211964439,0.39588243610931284,1.2368736637245288,3.209070928383778,0.7425076059597393,0.350420372061009,-0.19321310332614675
5.252017498,0.47031971861679644,1.2441053481300068,3.2017181925534355,0.5781089840062341,0.3791364061556119,-0.19438641461403391
5.29197742,0.5230133159892714,1.4128729059787726,3.2063235437673225,0.5967133536343292,0.36366734904547904,-0.18864532316963264
5.331965169,0.6990008326678174,1.4404314384843504,3.2535582598133135,0.48121886014889464,0.37692891545943663,-0.18975291679247494
5.371974365,0.8427677848375175,1.5118071328409943,3.20250029816524,0.36131038441337143,0.3967291887963528,-0.19062627293800108
5.411971043,0.9628023108542415,1.5495614549896037,3.1988702684415395,0.24928634226390642,0.39632942741894434,-0.1884455973793805
5.451971589,1.0326756308599179,1.5951081023396392,3.2265142344851254,0.2323121604836788,0.3966530132737855,-0.18717683628025988
5.49199545,1.2185392726435533,1.6050496167151358,3.147718113316761,0.07758861493075764,0.4091716334251515,-0.1862894005737035
5.531960956,1.334305922076694,1.5998604657291908,3.247831113689718,0.081752034701848,0.42462494365547176,-0.1779190678762501
5.571967981,1.3627818198900292,1.6167918672620443,3.276849984841615,-0.029355986644947457,0.40740195747384617,-0.1769787881109733
5.611969399,1.6012418129637087,1.6737327504833432,3.2737593471278137,-0.10815435404497772,0.39250358596292023,-0.17208243445038765
5.652067457,1.718889103357006,1.5839221771362892,3.196176244850684,-0.23285743417369062,0.4040809070967112,-0.18117622274325193
5.691969097,1.8532975308179753,1.6067774477800498,3.236754550539934,-0.3212538805914389,0.41242496344655855,-0.18463625189162158
5.732024487,1.928338342232173,1.5376058928837775,3.2614267892950095,-0.38959483774275294,0.3844263841232965,-0.18020473380627697
5.771960078,2.0766660504851657,1.5092447410483552,3.271290948785299,-0.45504697511141684,0.3664314728570895,-0.1772438646173713
5.811971904,2.1639074875194466,1.408445389189678,3.2234046661113833,-0.5524218765542065,0.38529733098270275,-0.18593827984655903
5.851978407,2.2418427891089396,1.3320880949412863,3.2482958748914377,-0.658266717694086,0.3875429776587611,-0.1799596745644684
5.89196935,2.3385187489027337,1.333141906143331,3.2209223496486237,-0.6704138236328095,0.3583476417050144,-0.17530650629822178
5.931965616,2.4876008127237133,1.2106621567888252,3.2832789792351145,-0.8436920887812944,0.35536662842092015,-0.1845565830288124
5.971976864,2.581303572021318,1.0628511507271068,3.227565224820309,-0.9068002378274527,0.3676497896367314,-0.1876924236394351
6.011969187,2.592898256836432,1.0217082787404197,3.1767607273416845,-0.9214842691787388,0.3560359888823028,-0.18409544871231567
6.051969762,2.697345117615062,0.8904787278309902,3.2341504365892457,-1.0929399225617036,0.34039413141701497,-0.1876674461126937
6.091977499,2.7882148074439046,0.7848404988321744,3.212347853693148,-1.173290023678512,0.3293888441602148,-0.1864529685441144
6.131970074,2.8249005133665945,0.6630109882162856,3.211261376946998,-1.1851680237786444,0.3585481938346726,-0.19710898561986576
6.171977066,2.879797797838474,0.5261554244150198,3.1554861643410743,-1.3082118306362254,0.3382908984636458,-0.19615424833841347
6.211987224,2.9199847888486925,0.34278706832586203,3.151861137550543,-1.3977158718421971,0.34336607650074685,-0.20072110998971135
6.251955,2.9663016775592745,0.2749606118113987,3.148967921245556,-1.4862445949036533,0.34292957588973566,-0.2045509544490811
6.291967629,2.9285755530348845,0.15448576943900139,3.182402463745871,-1.6275514416279921,0.3634356521302039,-0.20693753048042995
6.332003061,2.984004038868411,0.026833245936456376,3.122875377841721,-1.6868207515890783,0.35423511324063295,-0.1932148923903137
6.3719744590000005,2.8506248163915164,-0.08848174194611168,3.138837260972165,-1.7240221646484566,0.34289236593702166,-0.19632995554322757
6.411965827,2.895899110410558,-0.1892027160688472,3.09275138402638,-1.8266459692926078,0.3516088089624095,-0.20740514805864046
6.452060152,2.773324953944482,-0.3811755845915687,3.0634995636778157,-1.975723686114578,0.3644436584338877,-0.20802068908190985
6.491975026,2.816747908476572,-0.4812161315910135,3.0952598789770622,-2.0303442358165715,0.3615486178574681,-0.20866878020001506
6.532061254,2.669755501020441,-0.5439861137635897,3.0448125816290954,-2.1049159848587857,0.3659427216910952,-0.21008772011727675
6.571978958,2.679442430118941,-0.6875109113139988,3.0454845263133934,-2.24965024092044,0.3757696188550899,-0.20488881553970414
6.611973422,2.6049021744696224,-0.7302202508013345,3.0973934300084034,-2.296278389365618,0.37906529156958674,-0.20955808045139834
6.651968457,2.486189825166475,-0.8578422754978654,3.0795939529465426,-2.4382845842906034,0.3769698370895368,-0.20845077631438194
6.691974882,2.4139877721935648,-0.8961932934650613,3.0782819320192707,-2.523999898828502,0.384955260553317,-0.20903496624783802
6.7319759900000005,2.3638165510968525,-1.0023522987435545,3.0553327343341485,-2.5767053707875642,0.4009964201833814,-0.20965984820058725
6.771960197,2.2340849077591622,-1.07413198903712,3.069408754202127,-2.708231001967334,0.3917232141681825,-0.20528920603417117
6.811969858,2.112876770794286,-1.1025232711617263,3.1361860175253296,-2.801310078931831,0.3808097627944924,-0.19990772682258423
6.851974031,1.9963914532218818,-1.1876512177530008,3.1035985021395596,-2.8222911508938004,0.3943312107824079,-0.207867557564095
6.891966871,1.8111736739446513,-1.2080192893228556,3.1169878108449756,-2.93542034285704,0.4097674900141947,-0.20281092725899186
6.931969364,1.7209526818886873,-1.1935537291623655,3.100879077581605,-3.0327491675540097,0.3739492547006645,-0.2025562923159694
6.9719727460000005,1.5646455681777698,-1.1605351898460334,3.0566990892929646,-3.1776526441046187,0.373585024779291,-0.20437151081325272
7.012030052,1.4704790290613021,-1.1965995118486585,3.1240593932107266,-3.2546732008488037,0.37177245432727235,-0.20537499470414616
7.051973783,1.3094409487668799,-1.1649329538213922,3.1219804136712646,-3.321040735375235,0.3703651346904317,-0.20684710031035664
7.091970559,1.253125669866145,-1.1845549502816948,3.1160758598051417,-3.387536703029367,0.35191687273018235,-0.2053386301371598
