time (sec),x position (m),y position (m),forward velocity (m/s),"heading angle (rad), from x-axis, positive is CCW",throttle (unitless; -1 to 1),steering angle (unitless; -1 to 1)
0.131991207,2.4271902734409236,1.5106387402208743,-0.05826942546855638,-0.48148472633739847,0.75,-0.4699028162257382
0.331968382,2.45588911548615,1.555374162644231,0.12090869606623116,-0.5065927248451745,0.75,-0.1822547035600732
0.532015196,2.5372444189742738,1.518609828765223,1.803773413122791,-0.7867430320813089,0.75,-0.2995788832685879
0.731968226,2.8153703547354163,0.9683792635597775,2.777654391925634,-1.3259098902948705,0.7164935945367034,-0.26843288534794507
0.931986229,2.7733063388517514,0.3787656460913368,3.1182030110804626,-1.7036105780449808,0.4257256670655555,-0.2413401238522352
1.131963455,2.5877193025961276,-0.1661917366382588,3.1241195799088324,-2.278354321440051,0.3988535435794996,-0.2298115928632281
1.33196297,2.199344263838655,-0.5936678201898953,3.131920868027004,-2.6771424075435393,0.3549486104821836,-0.2165484947303297
1.531979471,1.5464857485782981,-0.7989204177467272,3.0601699558341955,-3.2087003769375033,0.3392627727585487,-0.21470580296535782
1.731980347,0.9850226088572507,-0.6078018700771278,2.9894758559584504,-3.6178245130437143,0.31539193323379877,-0.20374686010005558
1.93196395,0.4634887992024838,-0.18677393108043785,2.995907461092416,-4.1097797273163765,0.3350484298934802,-0.17936316460886675
2.131971194,0.14791540706384765,0.388406088800462,3.2472084232651985,-4.272822099208637,0.3921167984931103,0.005855633571819794
2.331973669,-0.1227149823614025,0.9853093985154238,3.337216924802581,-4.0725957553270105,0.30224299621994366,0.13027221250539486
2.531963973,-0.5776448352482222,1.4435224075151825,3.2978571890795725,-3.686657748173531,0.28157623756647876,0.1764479036211315
2.7321070890000003,-1.1795913493373265,1.6351936360801729,3.191378923852745,-3.173734131907942,0.3341748216620205,0.16920517721904968
2.932010399,-1.725633827070769,1.6321028537174929,3.1342941046779296,-2.7470343433993505,0.40440076343247344,0.15898928178725796
3.132015774,-2.36610659425895,1.260103943639614,3.161111257433193,-2.3280117104693323,0.3462556820266597,0.16667067127137872
3.331964881,-2.6445589785801515,0.7340080777021478,3.0862063306611818,-1.9202492374884534,0.32397017432308095,0.17842313347758848
3.532066336,-2.756762325473149,0.052112741713382135,3.051728558291001,-1.5440771793113521,0.32061335562463994,0.1846743200264122
3.7320483280000003,-2.71696990861783,-0.48406180943389154,2.9658040027954935,-1.0101833194520018,0.3378925233090317,0.2006199350229732
3.9320180440000003,-2.2563820532065804,-0.830002970258669,3.0283075462533744,-0.5027877726794249,0.4015044911393767,0.2042694567756082
4.132028675,-1.7172014774513882,-1.0849044070208629,3.0207535909521477,-0.07107633251703575,0.4089474827097189,0.19566419307647
4.331965783,-1.1398315380888138,-1.0288303377042942,3.0209796135867397,0.3863938059790049,0.3838321420729713,0.1884979329476173
4.531962738,-0.5826825023511277,-0.6942763492608962,3.089557407619513,0.813047775023719,0.36465879388413275,0.17949612782865496
4.731969645,-0.24198664337665066,-0.0883218203121012,3.0717588794444923,1.1901528150747966,0.3676958687098852,0.1015389021684968
4.931981848,-0.16377440644665134,0.5109940867211142,3.203526438771154,1.278503578294963,0.3982572454221664,-0.10290741486419072
5.131966807,0.24595758388747976,1.015422846910452,3.3022035690558003,0.9575200032247019,0.338601132869503,-0.18343495327317105
5.331965169,0.7599267906646459,1.3597065393035155,3.146078131100314,0.4061312533079642,0.37692891545943663,-0.18975291679247494
5.531960956,1.3292306236714966,1.5999835639387596,3.2250222348946354,0.10413322816850357,0.42462494365547176,-0.1779190678762501
5.732024487,1.8910831255202667,1.5280307897474095,3.191367457815641,-0.35564403434947517,0.3844263841232965,-0.18020473380627697
5.931965616,2.485262017704716,1.2303272985195637,3.232764199729191,-0.8373546105194084,0.35536662842092015,-0.1845565830288124
6.131970074,2.8746803410663526,0.682916608663462,3.139968809678236,-1.2171397183932264,0.3585481938346726,-0.19710898561986576
6.332003061,2.9636381912533074,0.03979781316669955,3.0736411012713827,-1.7430201064463093,0.35423511324063295,-0.1932148923903137
6.532061254,2.685256139423983,-0.5565909387075689,3.118997107880124,-2.1008008017383677,0.3659427216910952,-0.21008772011727675
6.7319759900000005,2.33061843980218,-1.0309109719101466,3.0997187365672976,-2.5504308932426083,0.4009964201833814,-0.20965984820058725
6.931969364,1.7109565709816197,-1.1526311610609647,3.148382992855872,-2.987925011998459,0.3739492547006645,-0.2025562923159694
7.132051994,1.0830859026217934,-1.1011755181046528,3.0812499567178566,-3.5130235996305212,0.3516287259563859,-0.20509652134196274
7.331981851,0.5433839999642178,-0.8322057725686982,3.0704026468750985,-3.9626984094138966,0.3333145738888652,-0.19598981127713166
7.531964077,0.31252548417698006,-0.3154776128762202,3.1178811333678205,-4.316008458549061,0.3969087417031523,-0.09561186790475137
7.731971737,0.052502119312706944,0.32017713539972853,3.411760666455518,-4.256965054214097,0.37120875124421915,0.10501419008261038
7.931967861,-0.3181108262643113,0.8458074462408144,3.4367322525775337,-3.937876977116296,0.2919609776312068,0.16466160292967413
8.131969545,-0.8109343774480381,1.2621989158102769,3.282847682724665,-3.4839652059695614,0.2866146826669346,0.18935989044500476
8.332049723,-1.4685042487636266,1.358533606584556,3.0879298264642965,-3.0014198726787846,0.3439758907198928,0.17409820136224388
8.531965834,-2.0639553394207533,1.2160029974984234,3.2016509682298446,-2.584922700527585,0.3480118505590604,0.17540669607766182
8.732065463,-2.6254388192945237,0.7726761517948332,3.075309802992487,-2.1697096007319105,0.3073478526663033,0.1715066352567161
8.932062972,-2.747274054438081,0.27811665592129065,2.9888637342377105,-1.763678215378215,0.31098366351166085,0.19056741843399808
9.131961145,-2.79767783714246,-0.3332614323414521,3.0150547543137556,-1.2839120567819176,0.3132575329014692,0.2031512337787238
9.331962551,-2.509825136227779,-0.8664727242090488,2.996931534094934,-0.7663855688259754,0.3646749385619061,0.2131313169307387
9.531975653,-2.0399086755330442,-1.1014867131452202,2.976236202146516,-0.3559965517470684,0.43896313298294104,0.21569765050812642
9.731967219,-1.423302598860673,-1.2355560519501998,3.006624762391243,0.14575312142662994,0.4036620942253964,0.18924864233929187
9.931985637,-0.856149044637976,-0.9869241769514017,3.106872274176381,0.6188827123929651,0.3848796428480941,0.19068799817282306
10.131962886,-0.47992673683567294,-0.6158137291320012,3.1436949967403396,1.0023090981432006,0.3735203022629074,0.19060604035049836
10.331960625,-0.14063120861685746,-0.03545824274262649,3.2344264173487294,1.281499219860626,0.39309963305587575,0.012677359162355437
10.531965976,0.08555346786731503,0.6052057526284053,3.41930767739165,1.0928608606649686,0.35092600848876526,-0.15174751801103611
10.731967123,0.5360300399497392,1.0463725596895297,3.188052598044252,0.7450661398884849,0.35319771863277666,-0.19066659350118445
10.931979624,1.078837206305024,1.4298198296156093,3.1873628633298776,0.22031060560869614,0.3756161319508268,-0.1773660874673898
11.132058872,1.6442512750743392,1.4421933325601477,3.185829259236754,-0.09868921432684906,0.37183484621463997,-0.18414037357942423
11.331982475,2.3348167093274355,1.2360387451552608,3.157425768974204,-0.5950932690074172,0.370025421958595,-0.18424643482477257
11.53198591,2.6733518549098076,0.8956624509019429,3.11340190262401,-1.0011052975923669,0.33514027787614836,-0.18944483105859503
11.731968189,2.951002664394265,0.2169836010213242,3.0107017051352947,-1.4968838199034646,0.3458729712274925,-0.20069958418639158
11.931986887,2.854181081261275,-0.39666079466245746,3.0749973913663937,-1.9219427336546273,0.38518346418399896,-0.20603095564015897
12.131981639,2.5182225476450117,-0.867174015217614,3.1298967211148576,-2.3855320472064157,0.3756459060696173,-0.2051509579684351
12.332060121,2.0570839014524513,-1.1508850233882912,3.120985765817456,-2.8105896028462807,0.3954782634666193,-0.20401061337753978
12.532045606,1.3693409863529846,-1.2783270635548916,3.1672752908577286,-3.332737950151467,0.3754416798584075,-0.19583648566991477
12.731968227,0.8107812046334298,-1.1593292240242397,3.1216569624344634,-3.729986674158253,0.3463121349511666,-0.1948389344203417
12.932012705,0.40851005463640633,-0.5934223980578329,3.010149291261573,-4.150556651560342,0.35237493777400375,-0.1740690685307807
13.131986608,0.16527291714387934,-0.0728451720861266,3.2917877918848677,-4.355887700968791,0.43013657482842593,0.03351612598897499
13.332062515,-0.09911930121942376,0.5319719389875807,3.477282282160496,-4.162499336417213,0.30591313102452145,0.15714120648298108
13.531994336,-0.5467066562434907,1.0969614597502093,3.3950211350144226,-3.7643654672240423,0.27566090368361573,0.18903890957995184
13.731960245,-1.107235609747638,1.3101990545653814,3.13987891052564,-3.236756845890414,0.3368784132493793,0.15275709917771285
13.93196784,-1.8320200833219522,1.2672735621494047,3.1041891557425982,-2.7910975955813178,0.35500194492592896,0.16837650927456158
14.132012949,-2.3005841294409697,0.9895667861220613,3.169267214193874,-2.360217857804641,0.3365321463823369,0.17094764774289753
14.332059502,-2.5878676741823945,0.4947651252876103,2.988349267896007,-2.032082902003799,0.29711765991937017,0.17451856817639333
14.531966159,-2.856128567381927,-0.16283131593683706,2.932775032693523,-1.4796326353839278,0.29665753913970505,0.18623304675772434
14.731986791,-2.6387738770486044,-0.6670972669040006,2.8852609911385527,-1.086294226832657,0.3493683381675656,0.22002331604109102
14.932026805,-2.2216651478272373,-1.098523968886126,3.011767596782745,-0.5504986175859855,0.3877611084800928,0.21634165676526718
15.132042397,-1.6267183315214717,-1.2660661035145675,2.940811553992545,-0.07599968249825631,0.42560902682252616,0.2158257323614448
15.331983125,-1.0716413287375033,-1.2529581748550715,3.040363050087429,0.43068686101857057,0.4034078357271407,0.18702503534081605
15.532130784,-0.6113310873653076,-0.9182398762514691,3.0968719068817476,0.8150474645391922,0.3709401392943964,0.18652938165147112
15.731973361,-0.18300246464669648,-0.42950115902611147,3.2034842028956345,1.2589572127733895,0.38231612644913376,0.13004880412842754
15.931970069,-0.0014136125985368467,0.21216013615497276,3.2847310016577302,1.2245583185365565,0.39178260879739607,-0.0947653173592808
16.131967889,0.25721348862867643,0.8756307904035339,3.3843549365625476,0.9596056983700737,0.3257228943945147,-0.18210226874369326
16.331968842,0.737739421186433,1.3088242431378287,3.2189891249935605,0.5584265602442864,0.3713083152802009,-0.1988258141615714
16.531968352,1.2832401321577043,1.5110895971333407,3.2393180477425862,0.025567586662639114,0.3812865315822796,-0.18291416350786363
16.73197727,1.874632561773415,1.3670125171653458,3.2224431685882413,-0.415219151951459,0.3763910905260747,-0.1887731896370688
16.931993652,2.5322334658897483,1.1405639663541975,3.1812995884487485,-0.7659878270994128,0.3673775652148078,-0.18895024600197033
17.131965305,2.808619531949842,0.5455795048932875,3.251525544610487,-1.1777277770671242,0.3334003829084701,-0.1894309875978459
17.332058144,2.9952775358946218,-0.07554360956491452,3.0659142686244696,-1.7011850519135445,0.34279047233053567,-0.2046612031153079
17.531978585,2.7107912446537115,-0.67218787597284,3.1211271857265843,-2.1240512184411187,0.3785068573141852,-0.2096342653888135
17.731984588,2.4290205156003397,-1.103682739894509,3.0313287480891904,-2.592606474983193,0.3866801637672053,-0.20350241147224574
17.931976979,1.7656706820763022,-1.2893758886566902,3.0914592166027046,-3.056095618066848,0.3757980461349045,-0.20527719407706632
18.13197017,1.1548315034407948,-1.1910611019118882,3.168856156472437,-3.5350722151391496,0.3604580475018796,-0.21012352538152385
18.332014602,0.6561738514744859,-0.9036724107025136,3.0168061544509586,-3.943186853741111,0.33756128287387294,-0.2043118364766633
18.532076425,0.30299369395468256,-0.3867574307043733,3.1419322376299146,-4.225047798792241,0.43833594812858456,-0.08021422200680967
18.731979339,0.023008489019724625,0.1996169770692883,3.531223289135013,-4.307795608397872,0.3727750099821844,0.08917992490695402
18.931973408,-0.43806515153633735,0.7827117184612811,3.4235778553617586,-3.925764846489508,0.27403238210866143,0.16737203491513866
19.132021511,-0.8905480721766977,1.121472280782783,3.26276456713216,-3.5108675943018444,0.2887818209797408,0.18556864275678522
19.331972918,-1.5332149130075488,1.2882459584875203,3.1858533842694388,-3.0745385879838145,0.32873520932877,0.16255356003907676
19.531994018,-2.116140059843274,1.1373585543392675,3.102073711952245,-2.643619917350145,0.34395766976138287,0.1666028691037644
19.731977788000002,-2.572554703941854,0.6718560287388223,3.0651927152942453,-2.1710767409892155,0.30360486323601527,0.17211829785133176
19.931968788,-2.891241325578572,0.18379743419568262,2.9615719360190513,-1.7046339716795074,0.2914595742124854,0.18573591937681178
20.131965095,-2.871324811173277,-0.3626600222419567,2.9089805888135642,-1.3000270320287377,0.3280096909151698,0.20374431435182097
20.331967114,-2.523281786079877,-0.944957694152946,2.9227151291287083,-0.8042685101011914,0.4085354771115986,0.21363297304937734
20.531975996,-1.9548023475869616,-1.2969459483409793,3.099371354808884,-0.34836290154727517,0.4037280092666261,0.21253002063547186
20.732056526,-1.3676998414888046,-1.3133179802343993,3.103269200517657,0.16888204973252996,0.43216903126930484,0.20481805844286047
20.931967923,-0.7747025296478971,-1.1401107894282259,3.0779071905755084,0.6400773391514184,0.3897833390477681,0.17560566316965653
21.13197472,-0.423988751811148,-0.6775043579114781,3.1234410268513906,1.0594353867369855,0.3574008993650377,0.17246623333687466
21.332030126,-0.20044231991108996,-0.0794509497444313,3.2197149617723095,1.3717275725138742,0.413627927754276,-0.011195308881817814
21.531964777,-0.02985850491848975,0.5756554184247196,3.3536129685301947,1.13953845421163,0.35544474731945574,-0.15945820855359819
21.731988907,0.35349650850309466,1.0715733321747902,3.271168358500492,0.7733343539095799,0.3473387376604192,-0.1989467955512415
21.932052176,0.9281066843334809,1.324185985130708,3.2183625674371164,0.27588150079388346,0.3825944185893491,-0.19236840123707624
22.131996795,1.556238833579451,1.460892546893486,3.3014648581372765,-0.1367811708224772,0.3843078494787928,-0.18228467040963983
22.331969123,2.2707284160960213,1.2478742734823307,3.2285664016515767,-0.594884811773189,0.38028077788884346,-0.1883811113866819
22.53197773,2.584349080977084,0.8159503241540297,3.251187130610368,-0.9722209519807531,0.33105318524964605,-0.19205568785992005
22.73206294,2.9240643087248857,0.2660487938675505,3.0479752375515923,-1.52355100957372,0.32934585527782645,-0.20444219668512387
