time (sec),x position (m),y position (m),forward velocity (m/s),"heading angle (rad), from x-axis, positive is CCW",throttle (unitless; -1 to 1),steering angle (unitless; -1 to 1)
0.134488867,-2.742912088152309,-1.3579969694561778,0.006819439271951859,-0.7631826923861578,0.16334161974754316,0.28066630085817096
0.33448170600000005,-2.5909974482180047,-1.4041851874556672,0.9306451144351299,-0.7687796163859768,0.75,0.22573256703847677
0.534475959,-2.326642886618525,-1.5483597065431922,2.4010841841668324,-0.34637737284165715,0.75,0.30951833012401064
0.7344775880000001,-1.8279555108382919,-1.6248567242308054,3.09190665715614,0.2254163256256504,0.6219008124590443,0.23307188021756728
0.934475334,-1.196723247154328,-1.4334665285492658,3.3088505848699934,0.619146560496835,0.4742858512224406,0.20419615762421625
1.134478233,-0.658460381292422,-0.8007440059331534,3.4026426584644356,1.1109596526245469,0.4334306081350438,0.16081386640487985
1.334479607,-0.5158992739001077,-0.273813134632553,3.575609280275391,1.227280252502722,0.49592608536572763,-0.04904925671431717
1.534476425,-0.05441658178436899,0.40067566400326887,3.712003849297753,0.9194917089622086,0.3940919868329039,-0.145343004410812
1.734481636,0.45224200972179146,0.8493606678182719,3.563455759773209,0.4966836177640276,0.38461332201124154,-0.1544008415432576
1.934475476,1.1108480777690524,1.1070449810564686,3.6072325704547117,0.09011188053670433,0.35570751842304704,-0.1539798587429598
2.134491298,1.7506724484995624,1.1082382535627444,3.3411878310494227,-0.26835426584516,0.3403076405754395,-0.1695753439059257
2.334502493,2.2888948896621395,0.7081794887987438,3.2485711387924234,-0.8037745064102986,0.35000559002358395,-0.17054544772860006
2.5344804930000002,2.7124182156520313,0.3208254194283528,3.1888793330132197,-1.2293339702204722,0.3588070446818826,-0.17845752186770644
2.734484609,2.824487330694184,-0.3066470085386868,3.2791634819298383,-1.6830086207266017,0.3678871109656073,-0.19324857454864913
2.934475543,2.67282832808213,-0.9130239381583602,3.2249976842620387,-2.1584717733058825,0.41616209685817496,-0.1965493324518438
3.134476454,2.2324332939691356,-1.3976563631102605,3.2151918890135636,-2.562866983236524,0.4215937905233529,-0.1908747459497836
3.334482853,1.5807101360944227,-1.596872583210047,3.2185977495690263,-2.986303979178363,0.4153086854170062,-0.1880254170877194
3.534485178,0.9321894997616179,-1.5887139443754117,3.1495838268893332,-3.4883841118336263,0.27121603249686127,-0.2122665150650214
3.7344837980000003,0.5156619779969761,-1.2147836948666653,2.8044393408961255,-4.048713722962484,0.3867141268237983,-0.2055411029035935
3.93447218,0.16974693626543833,-0.7110004443745286,3.2106387839616177,-4.281402927945816,0.5568921576261381,-0.08008466652269086
4.134473726,0.0005148026667972302,-0.04481295748645932,3.674857776439278,-4.343530794983153,0.43542210887290983,0.07710301987867893
4.334477459,-0.3692511548063036,0.6082356034034164,3.771188595661683,-4.120060241209166,0.2696553921321327,0.16007319717269786
4.534485463,-0.8385809470378887,1.0781037844639847,3.4723578034754845,-3.685481349715194,0.2371048101189124,0.1844925505261819
4.734479766,-1.512168640788091,1.3123111666135592,3.245511393342974,-3.237322177916192,0.2934485500905246,0.17345096732085794
4.934486891,-2.115188700298904,1.2035349307800258,3.1380355169106156,-2.7433255756344703,0.3400296805318508,0.1836945979474165
5.134478905,-2.5820067229470163,0.9549293613800979,3.1985328622552935,-2.2987295321577035,0.3606088593364624,0.19869541811016123
5.3344857900000004,-2.9765720049178985,0.4004630608784205,3.0767197568748403,-1.9290257663180408,0.3557263050024185,0.19855286520388457
5.53448431,-2.9532757010803627,-0.26747705358116536,3.1211962163956137,-1.3884973526915314,0.3443216219192289,0.2123633151648511
5.734481875,-2.7086103400527084,-0.7360429287910848,3.027630505573287,-0.9307117841711517,0.4208014882801674,0.22251566621284025
5.934471618,-2.3097173426615454,-1.090760751311863,3.163873172026801,-0.45037615945513226,0.45087389506578374,0.2227049020857875
6.134472047,-1.7656755313396755,-1.3061865494717892,3.2162970909995487,-0.014199737713709587,0.4658140591158492,0.22123035994405085
6.33447686,-1.0150968361772574,-1.2739735223466062,3.281309868352536,0.4432599881504561,0.4290522239147108,0.20440587180500647
6.53447727,-0.6132548371557316,-0.8553523417723332,3.2718851230395494,0.8440219178474405,0.3939989742597494,0.19072077014988245
6.734477787,-0.2550517845794775,-0.3399588722326041,3.2428182037645046,1.2117039042878517,0.5031055080116658,0.04026252322157642
6.934483623,-0.013735411959337127,0.423174875393977,3.5445441629885037,1.0990204563477821,0.4310611106756522,-0.12123116174062312
7.13448004,0.41546115450215704,0.920674360246517,3.582906734540852,0.7606081538999668,0.3617412123554633,-0.1679787766248376
7.334477931,1.0294120123482917,1.3630211762562008,3.477291927367177,0.3118784332007355,0.3712146431727189,-0.1657535354934653
7.534476575,1.6382716529568095,1.3239166133278184,3.4098722371361636,-0.11632123045625639,0.36510646972943245,-0.17581686243023736
7.73452169,2.2529381167230254,1.0882570069803257,3.250086760091185,-0.5645343425314067,0.39721498924089044,-0.18899192975280316
7.934475946,2.7427334098722422,0.7320562289020545,3.1833430346110148,-0.9662604688199867,0.38638366796577345,-0.1790560474880193
8.134480675,2.9832240466271944,0.2543640421077388,3.192635791885264,-1.4385687818019604,0.38830611199058535,-0.19459195118652542
8.334487294,2.944409593770451,-0.45567638398692034,3.2047909109130988,-1.7804136988321486,0.4255745333898077,-0.19377805169209297
8.534478677,2.6828230747907162,-1.0138011907812898,3.1845150672290816,-2.374617577553944,0.41664179246673,-0.19441484472313048
8.734490785,2.0893545157316984,-1.3456330863758075,3.27629421340793,-2.7777665313889166,0.4194085877937471,-0.18640119505865554
8.934525429,1.4085613939144537,-1.4952542585009363,3.2142680413893316,-3.2604129305959995,0.38889626659069937,-0.18985728283586772
9.134477949,0.873479775476188,-1.2932578203834204,3.1755110824139536,-3.734039717770455,0.3633699834734078,-0.1845634932294703
9.334472548,0.3227757967335048,-0.911155364254835,3.190288279731511,-4.107382911674391,0.37360454337852694,-0.19356867861661778
9.534474563,0.11997805154635967,-0.29223913565907383,3.4197736698653527,-4.384905611188287,0.49391125587253,-0.006211812172838701
9.734480534,-0.2504731671638201,0.42087934883878647,3.6705182969198535,-4.205774050893397,0.34040571927761865,0.11731709067787363
9.934475588,-0.6052088162300858,0.9796652552043953,3.6613958810604372,-3.8763188823992487,0.25378513584165185,0.1772247178356364
10.134538746,-1.1691420806006696,1.2474668437815581,3.2204861409150984,-3.4324994182901576,0.24169834606040652,0.18147050989740354
10.334483686,-1.8225292624656966,1.3789753949561419,3.0953235649102764,-3.0763148327493046,0.32608975553563807,0.17394763689667536
10.534478162,-2.379416978299223,1.2196748889434215,2.8726713360624108,-2.5123744229545917,0.11305003292016076,0.3131494147002356
10.734476474000001,-2.7081286949049046,0.7857067631131531,2.9224861759023044,-1.8610661594428881,0.4710454238884474,0.1656258837792193
10.934480776000001,-2.8534697043454433,0.10640142968831133,3.174009924516024,-1.6784237221832865,0.3963409553195502,0.18592865566189962
11.134478265,-2.7464368854350374,-0.5437253567933276,3.148317489477172,-1.2259371477074334,0.36464629936242526,0.21778336271734028
11.334485168,-2.472241823554785,-1.0134167476189972,3.0712321799869873,-0.7164474153034672,0.38813088124192835,0.21804797151642236
11.534476502,-1.9589565187583013,-1.3428536642996338,3.174349248770605,-0.3303749328314483,0.44405554353095256,0.22068854994526718
11.734545349,-1.1907082931358564,-1.2928525795970311,3.2601279449041645,0.18311294855689464,0.43394431944012035,0.2139608213994956
11.934514243,-0.6250310765515501,-1.052568285378408,3.2313096145688234,0.6896518960958915,0.4038423789134344,0.20192874073941489
12.134472996,-0.2658085714850455,-0.6662021377672097,3.278118447965238,1.0911959644394102,0.43014803627645526,0.15517056568286133
12.334480204,-0.07060402387354288,0.034427505115161045,3.45612833740797,1.2128493178785549,0.4679604546131549,-0.04590601158463427
12.534483336000001,0.2667493629938096,0.6401151349782809,3.5646923043745486,0.9482355390115432,0.363159615888079,-0.14560467551579276
12.734464667,0.7900407960835215,1.1891015656423538,3.413409504173337,0.4692625190103936,0.33093558512558674,-0.174800801655963
12.934474438,1.4740603010821807,1.44123553835868,3.267921286824459,0.10419478729442369,0.3494862040072689,-0.17579997539844078
13.134478373,2.1068929650257675,1.337603550332294,3.2220770409072528,-0.2792225485299406,0.3592859621325835,-0.18559241303279103
13.334472586,2.5874129244801596,1.0019310553487624,3.2151887631090257,-0.7868110861799448,0.3989182835863199,-0.19532954064140373
13.534474661,3.057345197694048,0.5136770537645818,3.2200159121369993,-1.163672777774283,0.3972155615761954,-0.1986019594223619
13.734478713,3.1212444276441134,-0.15764995829113737,3.2184323889452755,-1.6909038438719182,0.4213539558812363,-0.18460465140099247
13.93448216,2.9011972851460888,-0.7659905606613615,3.245479622846996,-2.138354733418076,0.43233680770820837,-0.20142590593521204
14.134472667,2.4617944260409326,-1.2093255459416952,3.261650949769672,-2.5133231817217982,0.4222928674568084,-0.19109282699996832
14.334487961,1.9356521935411037,-1.506358101104018,3.355746911806037,-2.966086983379061,0.40807892554128533,-0.18762737138349606
14.534478846,1.179683949863521,-1.4552159112927492,3.2374387465420926,-3.4141610187291165,0.39344557025148885,-0.18845471322706514
14.734482311,0.6566466172225223,-1.1559083466955256,2.8233446513994465,-3.947499513159539,0.3161820269864351,-0.22647227887964427
14.934482462,0.47652033827128265,-0.720555892158347,2.850232906148664,-4.493553689791318,0.6509046070899552,-0.05944622053195882
15.134488897,0.34083836387077227,-0.013832895416290854,3.5825220268165023,-4.635369923656598,0.5475921080644657,0.1476179302147116
15.334478697,0.27390994417153364,0.6927216893701033,3.751831598997649,-4.376238173187462,0.2588124805752605,0.26992698482983446
15.534484325,-0.189346489756225,1.3061684012167338,3.4314159763408947,-3.8121779049893814,0.2292129394814095,0.2659611237125875
15.734482664,-0.5805309076786471,1.634551239663208,2.894776126468755,-3.3771978029596377,0.4652982645469606,0.2047333744469969
15.934484558,-1.2592504235947164,1.6284457119314757,3.08035203405157,-2.8549525266325397,0.5483187373546965,0.20987443797498576
16.134484812,-1.7805605966696967,1.396266647255203,3.3436111540377382,-2.5492888022390305,0.41096868164546346,0.22486253050324845
16.334480331,-2.2647347973933876,1.0191913740168241,3.3118441580404503,-2.0076109733407574,0.3279602904199342,0.22933299372829655
16.534479279,-2.3504426131027873,0.2984078378982641,3.1733267228125097,-1.5838427525666234,0.31605562829734835,0.2144083336592837
16.734481282,-2.3168897687946792,-0.3245343730623228,2.9886995767554607,-1.0354233649012605,0.39739406270962907,0.21463609913872597
16.934478423,-1.8471969487717532,-0.7415345017272614,3.052896928901799,-0.535592949964034,0.4073257079363214,0.22963741804639673
17.134475917,-1.3095030054280152,-0.9802545734980446,3.1086115223260595,-0.14912736913143276,0.4074511838122921,0.22948071792060518
17.334491483,-0.6412916023443818,-0.896729818107109,3.074568294707887,0.37744288640572815,0.39568655739723063,0.2283376459064193
17.534486425,-0.22165079889912642,-0.5714509054659578,3.1313020790868182,0.8676263871430543,0.3606227197984869,0.22345305565735746
17.734494777000002,0.11249882318989324,-0.07621832766986769,3.1165028652302897,1.2540013744221576,0.48178799431779545,0.05825977275875214
17.934489496,0.4790251700631104,0.5087356255300846,3.381592409219291,1.1533428958291752,0.4349251993654703,-0.11398698604268394
18.134474466,0.7304165895940202,1.107364208874435,3.382866672430364,0.7422073527822524,0.33913462787416576,-0.17796378192579332
18.334499279,1.226872864298076,1.4661687780501569,3.1848804591235265,0.3743995108563334,0.36838206717591826,-0.18336032326365884
18.534477624,1.877730092954426,1.5288795444622993,3.22522076513462,-0.17209310794797794,0.3827768992415647,-0.18776188990414097
18.734482655,2.500668983282484,1.387913863565755,3.195875552776684,-0.5323705385565481,0.4112145210934826,-0.1929314661282281
18.934477149,2.959269595788053,0.9463758426286479,3.1956264810650397,-1.0181446320764287,0.4232900481420012,-0.1928581675129731
19.13449293,3.1964906197341847,0.3039279628375897,3.2181316559358963,-1.4819275620785477,0.4243160369877965,-0.19460502691218112
19.334477665,3.121452938995192,-0.2978185244841588,3.3521434497878873,-1.9393316509885872,0.44723260864605785,-0.1895429745006281
19.534469148,2.760053843293141,-0.9252113926899123,3.2839968685436776,-2.331705331449998,0.4175691884153409,-0.19003331406330418
19.734481854,2.2610978228257417,-1.2261192811629391,3.3206076445233013,-2.7590957535456355,0.4107263490937578,-0.174525990052409
19.934482467,1.6323441581418043,-1.4417254900324226,3.2871142904006296,-3.2495791534162572,0.39946581122409497,-0.18591001011645808
20.134477101,0.9337378059657907,-1.2553351778440673,3.344445633120218,-3.7114785497128175,0.3342314840134383,-0.18513700648618348
20.334475564,0.4852875130571496,-0.821372063941234,3.1330445106382125,-4.09972404888821,0.3545808924435818,-0.19255356913707874
20.53452008,0.21411334784586847,-0.18338299588463683,3.354475300036574,-4.408949759190046,0.4807677551519181,0.0015660240438539652
20.73447442,-0.14163667289816448,0.4523336647854439,3.68469619837847,-4.178192683985776,0.3523925661286009,0.1261035431486765
20.934490479,-0.5342523738292253,1.0237705479660573,3.5510592429557786,-3.8136711516747073,0.2710925634614984,0.17554070431666124
21.134484018,-1.0587814720178141,1.3300221817463227,3.3180225279197644,-3.471309436056098,0.26305956004616393,0.18306386188047677
21.334482516,-1.758261944993214,1.4739134768355937,3.185445547062218,-3.0131437893231605,0.3369629754734276,0.18370519464979237
21.534490577,-2.2678568761442426,1.2761969624683491,2.923917172433057,-2.4766398252412576,0.11406789969958464,0.30780660166300916
21.734483853,-2.627335416915448,0.723250491550206,2.912070275079827,-2.0274848255761206,0.4631384247726663,0.16063481694092116
21.934492958,-2.806928020722716,0.13029610506443157,3.1505735682198948,-1.5963085652842237,0.38624821752316185,0.19941712949262397
22.134504267,-2.724136023325098,-0.452431486618706,3.0628134588336233,-1.1239862902010223,0.36259925641790997,0.2174544972450275
22.334476088,-2.4101952604546297,-0.9735229926607524,3.058113509446984,-0.7134500682792553,0.40965739641096377,0.21778784248492028
22.534485954,-1.909628382167151,-1.1974165522983902,3.119515604825634,-0.26662394402245243,0.4521017647249661,0.22920105588797435
22.734478736,-1.2536379037584573,-1.320614767504209,3.244877250667546,0.22937500896596535,0.4298328534751483,0.21141307286387143
