time (sec),x position (m),y position (m),forward velocity (m/s),"heading angle (rad), from x-axis, positive is CCW",throttle (unitless; -1 to 1),steering angle (unitless; -1 to 1)
0.126091001,2.893399026838608,0.0020755448528477563,-0.015458873693920471,-1.5385652008796176,0.75,-0.7084634336003449
0.226024095,2.9803321272539196,0.003558010081144038,0.03856560159224319,-1.5367470280503397,0.75,-0.08631122175628282
0.32596827700000003,2.918947959915953,0.07209834517212033,-0.008883126188243197,-1.525516235095927,0.75,-0.13920561732827325
0.42606087600000003,2.8979724983283544,-0.007690821857897694,0.8336356215453434,-1.5174118716607352,0.75,-0.2182329055223212
0.526038204,2.85871432408293,-0.18668426574719088,1.6337976545236113,-1.6702607751603349,0.75,-0.28573567349221957
0.626019447,2.806202248330154,-0.3175163038432054,2.370686598091119,-1.9145325802508049,0.75,-0.3166750896166293
0.726028554,2.7848150803685274,-0.5806030131880733,2.660753566945555,-2.2370262150305504,0.6644471204880322,-0.3126773064784841
0.825972052,2.5876522579329766,-0.6616217335501753,2.855842970711279,-2.4976442540277777,0.5281336986226601,-0.2850668181755266
0.9259730740000001,2.2976971160147803,-0.9244797286249877,2.8545012306176076,-2.7291459125933906,0.4925955871069837,-0.2623031180782814
1.026009945,2.086038078761548,-0.8991097628732956,2.9201125450227536,-3.0208748633041504,0.4930547870404036,-0.24211454705192645
1.125994098,1.7618488959195768,-0.9388186751948588,2.9137927851621885,-3.2522915593406787,0.43365691183475125,-0.22853395824146736
1.226046543,1.4466797877789557,-0.9587006527674142,2.855164840939043,-3.3936466452237406,0.40213871752821284,-0.22913941499590623
1.326021506,1.160892070572269,-0.7993401624430226,2.8457621388446204,-3.670198114108641,0.39066532958033917,-0.219106324553732
1.42605248,0.9154138866504333,-0.6062947890520931,2.782690865141471,-3.9502276361693056,0.37184471945139536,-0.22135110068356054
1.526064133,0.7870342844305315,-0.4073987458769513,2.8746487156732785,-4.221937196162401,0.4401086751707255,-0.16010667726824185
1.626030324,0.6544677111207543,-0.14826838500285677,3.0272899599643215,-4.308935863371577,0.4890002598852987,-0.06247993364486633
1.725971569,0.5498014318287844,0.18008135647454498,3.235001993984002,-4.262982331133317,0.4966459693528153,0.03930248677960638
1.8259732610000001,0.3443287305147472,0.3827297575092868,3.277440049864533,-4.196119997072128,0.42803342234243785,0.09871131657010358
1.925973017,0.22252405950589513,0.7227708028190055,3.362878730497265,-4.104734750432681,0.3731366279150567,0.14293099724763847
2.025972427,-0.014543065530643922,0.9381910751696177,3.3661820909967033,-4.018399304252048,0.3484758536994372,0.17723617082485357
2.125972759,-0.2882822251378198,1.1569840175260868,3.3735080824220764,-3.719863560198017,0.33719400250611553,0.19585290793687843
2.225971574,-0.5869425535671953,1.3428137891519702,3.3259763414279737,-3.476036724163179,0.36095610374149756,0.19649769284701132
2.326061004,-0.8416191734803178,1.3850418030799485,3.2740614527504137,-3.2452184742336088,0.39532477372269204,0.19133973411896343
2.425974047,-1.1807497217647709,1.4483947089945666,3.303439778371852,-3.085571991597933,0.42147333463499337,0.17736737093282995
2.526064717,-1.4693982668969694,1.4163533403740831,3.2571488982952044,-2.8755176431958875,0.28678549734720044,0.1857028827945261
2.626017416,-1.8833880593516628,1.3003988794497097,3.109876671101408,-2.6439046323503828,0.09198775025327031,0.2295283452995218
2.7260576050000003,-2.0507603099299163,1.098601228441868,3.139019779850496,-2.405763724056261,0.3700207714139283,0.19467014347249548
2.82597378,-2.2145080324565574,0.8448017923040105,3.0763391793822428,-2.1790267057799273,0.46959401098000014,0.15854383606932498
2.926027193,-2.397145199601861,0.62510703154448,3.2580739354326744,-2.04352220820444,0.4234812731820886,0.16520161807955136
3.025973511,-2.5613724322595313,0.27594394148659107,3.180100026462765,-1.8034137848489988,0.3370761216362903,0.18076955589543567
3.126054079,-2.5867966319198072,0.07448567995808508,3.13721001439286,-1.5732745035259923,0.28473179607017074,0.18531599045502464
3.226055665,-2.499099817650988,-0.2824585644120145,3.016670567580472,-1.373058783386549,0.25866604533910065,0.1966332538339062
3.325967654,-2.474243645505416,-0.6293410421987581,2.9577859679732303,-1.0966015351334988,0.23494402792871052,0.20295089936172772
3.42597179,-2.287197419553335,-0.8280221582487484,2.925905957436656,-0.890901008808284,0.25306918699299286,0.21546982897529443
3.526047714,-2.1448590472454008,-1.0191489296941114,2.790312920479027,-0.6499528968871207,0.29118066786095753,0.22605137966411026
3.625966916,-1.9088970051608176,-1.2068634614103821,2.7171129349570604,-0.3972541207164571,0.33381329019603107,0.2355521710212073
3.726029173,-1.6720827272163405,-1.2747741663971368,2.812462757711205,-0.10003414691934716,0.3732587374539419,0.24548339927163312
3.825975589,-1.3563766432993385,-1.3464422607998108,2.826121818785956,0.057006165173873344,0.4251791696513793,0.2420088344192824
3.925972867,-1.0446357751008086,-1.2564529607452857,2.9017323613700556,0.28398441490792026,0.45629049183967296,0.2362372627168279
4.026004247,-0.8069987301000698,-1.1445408872732106,2.984854341617021,0.5775274145031651,0.4485219553811579,0.2233014743991907
4.126053031,-0.5051155731261051,-1.0015073945035307,3.0601754487661434,0.8020608844787265,0.44060149798288273,0.21708319087868533
4.226053399,-0.3028944634036559,-0.7307174582737042,3.1223129422466647,1.0207488507647087,0.4379033089790255,0.21500981958974466
4.325973612,-0.20605822205017063,-0.4246747066685196,3.195535864850032,1.2034653692985158,0.469088825424354,0.11193452482472366
4.426032945,-0.16320749300588588,-0.12069767992545187,3.2571855227831708,1.2598229845591673,0.4861788512406989,-0.010468495844195368
4.526015221,0.08401653598512834,0.18318203282914708,3.397350016176292,1.1050101655972595,0.47033914160539664,-0.10394049044875973
4.6260192280000005,0.17243862128280915,0.5094660264166688,3.4998093758519233,1.0015111577131814,0.4054180585058407,-0.14585314411469588
4.72600603,0.37698417359033376,0.7666296230269497,3.4148520036304353,0.8623320904450466,0.37346822469772106,-0.15694851757024075
4.826081927,0.5574404401661502,0.959594480292899,3.424613531240613,0.638093740221971,0.3835354067250195,-0.16012278750635303
4.92602987,0.8433805439805513,1.1988452562768697,3.269071805632527,0.4354103970091949,0.3600122792234869,-0.15349851147766289
5.026050869,1.1956120388275995,1.3187097165854529,3.221754884911258,0.22602859126490657,0.35515335105156653,-0.15964467285691789
5.126045662,1.4910871804283616,1.3832401014883595,3.163077362463475,0.025094175142556834,0.3530743240844996,-0.16726502042381625
5.226058241,1.8542809011909696,1.3402869386117076,3.13628393802764,-0.16055640618850542,0.33152529675381226,-0.16738524872460428
5.326014141,2.1033048388264226,1.3268656164996437,3.0407217573287597,-0.33947762728707237,0.31075451089382305,-0.19058961434141225
5.425987894,2.370096987014874,1.207140669640765,2.9556021384423374,-0.6941928483366624,0.3335243697399515,-0.19163937289590688
5.525966697,2.6332057480698214,1.0059676609103136,2.9959278919043464,-0.841977699907316,0.3416824748246193,-0.19570165396068231
5.626061871,2.737103180735837,0.7206040307008443,2.887852615300174,-0.9647858698185761,0.3659240408589892,-0.20268782565420743
5.726030443,2.9155619691295946,0.5134173666539312,2.9182554245061874,-1.293267593142255,0.39109437605379904,-0.21910253551864423
5.825973553,3.026599735936465,0.22490923311462796,2.815467030728525,-1.4684865389651396,0.39604730809816896,-0.22066630465992282
5.926067514,2.942989362442552,-0.07678498819565308,2.8626657555731874,-1.7264595419599316,0.41996650361041205,-0.21602975961090207
6.026074788,2.8204489741215837,-0.3963396644055919,2.9231915651897977,-1.9566538876017199,0.4475336544065762,-0.22134202964553798
6.125973605,2.7351749858840133,-0.5930587732696704,2.9083206882351487,-2.1950664944497325,0.43809101638086057,-0.21815689843226493
6.225968073,2.578853880205156,-0.8288460206722711,2.95704539080193,-2.46697440096247,0.4445557892938002,-0.21036180920796851
6.326046913,2.2335941903840713,-0.947892278317775,2.979447838589572,-2.646314268722108,0.4698496096389452,-0.2065282372294457
6.426075611,1.9926297737078928,-1.0642185514763638,2.968282630177004,-2.8814646395972603,0.43955839756017223,-0.20536811666719285
6.525970729,1.674495213839399,-1.103901309801583,2.9367422920469686,-3.184077494173705,0.41937156544450327,-0.20490723905372407
6.626101363,1.4696469346834586,-1.1865158938345912,2.9178892733253403,-3.3495192317699485,0.41399735212274935,-0.20216831194026688
6.72603346,1.0996053347966945,-1.1787608414189985,2.8864095141807145,-3.5601013487364788,0.37859700716497335,-0.19860897410504444
6.825973822,0.9168035418504618,-0.9068539018270313,2.8973841931483055,-3.8167766672913244,0.4323470552566694,-0.20623818301365335
6.926059963,0.7689562160743703,-0.7738381432508564,2.869185952662137,-4.032822701248732,0.3933810465779611,-0.21323398941044597
7.026053726,0.5323851004060819,-0.42984667249540803,2.90956148029632,-4.229494430770251,0.4379703471233266,-0.1488803195436554
7.126056289,0.4255837554195246,-0.231110945327597,3.083641927288946,-4.340190879787311,0.4563206165888525,-0.057324931761608425
7.226037082,0.23394506289424313,0.039136405836748545,3.2732018184255334,-4.261317264740253,0.4836800038355568,0.05247777874459696
7.325968653,0.09077610665378578,0.3303425315602317,3.3470487197935372,-4.238736515548618,0.39322320059720317,0.10626905333476473
7.426056974,0.038008137759061034,0.6696578866325525,3.3784958401924325,-4.157884103648681,0.349973256315418,0.15237782543741576
7.525986639,-0.1977315712566289,0.930579656688099,3.3459037442235755,-4.031682994899451,0.3314106469979662,0.18868629159455372
7.626060365,-0.45828049594817466,1.1294357269083284,3.2880022688937003,-3.8196623621942014,0.3145029461764638,0.20668868190163187
7.725981206,-0.7436641128465111,1.229723321630768,3.220109965898732,-3.5146857481413862,0.3398669924868328,0.2065379387428313
7.826018355,-1.0787478220703757,1.4190417700855378,3.2041599206128324,-3.323934501208071,0.38975385611527597,0.19735327053022583
7.926043292,-1.3855631961390897,1.4810833767150364,3.2400470713616647,-3.1207677551018405,0.43265485192340497,0.1953190227448016
8.026055563,-1.7225282785263851,1.3844474916665668,3.2409290270795417,-2.8577435364655694,0.42343944029311087,0.19356269471508336
8.125970275,-2.073623764344177,1.2823536691442439,3.2454763640616164,-2.650788268157489,0.41623982633564416,0.19164378318060254
8.226060519,-2.291892454749734,1.0574307729749497,3.233252404288768,-2.430002351411657,0.41498666235405934,0.19587446655927998
8.325967862,-2.559559180936561,0.8513499604844438,3.2847965467673563,-2.2555319076991864,0.3708174494839045,0.1952098625122463
8.425969064,-2.6708434917007473,0.5889894479924246,3.2566379671564163,-2.013401740144207,0.34134458824449754,0.19139789192550544
8.526061055,-2.7753139639292694,0.2949829010470177,3.0902805879999287,-1.833471457683844,0.3530271376575597,0.19357451781640964
8.626055705,-2.81503976432116,-0.019855028065324045,3.135560112907406,-1.567040488965046,0.30415600019620626,0.19771253369926342
8.726022087,-2.820139284320424,-0.34976062590795026,3.0557004018117255,-1.3330868980417725,0.2737582776135665,0.20294367711654
8.826003679,-2.719798832761125,-0.6196281132630657,3.003248450590839,-1.0770069282907728,0.27841386454284994,0.20701002840572816
8.926048588,-2.6038100685753727,-0.8362859405482517,2.9418013268822603,-0.967259801607151,0.282554684695633,0.22026852017556495
9.025969819,-2.434219371611427,-1.0214882647444512,2.8637006979436976,-0.6642275172200667,0.3030452216042367,0.22647975939358125
9.125970719,-2.225630662859881,-1.1882359741590232,2.8914610468418878,-0.47749551939263934,0.3582988955869807,0.2434191133539789
9.225968544,-1.9233311220447538,-1.2997297091175777,2.8711109602546583,-0.2455595522353994,0.3844002829594412,0.24837658543838734
9.326055615,-1.5230247458574677,-1.3444709139506577,2.9949466377383205,0.051912215137652575,0.47604504006403553,0.2481004738284428
9.42596486,-1.2795050685571314,-1.3400544190632178,3.005029394753424,0.3444992504961121,0.49720960945195913,0.2422914201459896
9.526027539,-1.0680335579915512,-1.1494027656633878,3.0572339732739233,0.49280309128068867,0.4628735881700316,0.23269189014370079
9.625969378,-0.712758367583034,-0.990674423066043,3.10188022765284,0.8414859586544211,0.4388360864725241,0.2258668119348829
9.726053436,-0.6052452971871314,-0.692309126555304,3.0536059196204683,0.9731834194353666,0.4389930340455101,0.21716622913185826
9.826066488,-0.33421889057360926,-0.520760277655799,3.2408778215181377,1.1452949864178419,0.4790777652068472,0.10827100822796026
9.925969733,-0.28744962992801565,-0.19160621213591017,3.335439090518498,1.1593492834640593,0.47702778171575266,0.011856189568632203
10.026022378,-0.1427835872849401,0.1177552120476525,3.5355845103813,1.0642985432592553,0.479506437873931,-0.07759075194661606
10.125971983,0.010528418705597365,0.4389952293480058,3.5236793067534893,1.015882493273887,0.40841684609417706,-0.1285097407335432
10.225974305,0.24408884699456274,0.6950460735604308,3.498535911455659,0.799488901235064,0.3737740264646894,-0.14489597839754165
10.325971600999999,0.45143570756317686,0.9420873209744188,3.4553882521571455,0.6686633736142552,0.38955037362787,-0.1532518580824308
10.425972434,0.7672275972412977,1.1240262375959615,3.3062131901227856,0.401906924243773,0.36807141064626714,-0.15296065348361546
10.525967633,1.0768753223258658,1.2763800590131975,3.377941914548409,0.20352325143636127,0.34706676424600663,-0.15349031739407273
10.626041744,1.4132640305872601,1.3635320446044845,3.235337039600524,0.023616213474980836,0.3439877560086207,-0.15383817022950977
10.726056638,1.732874432464052,1.2327046127271877,3.1767902342643577,-0.20348470654609502,0.32734530028536873,-0.16578415941082233
10.826023579,2.053269508073206,1.20757324952222,3.0326875041688965,-0.38794390056866523,0.30529634550730556,-0.1750944527046731
10.926056643,2.283149252176582,1.0850739998653072,3.003356961859316,-0.5448751930805015,0.3527112205913189,-0.18987770407254845
11.026034819,2.5656638255632314,0.8308568980233295,2.8897467696282475,-0.7868917158112068,0.3428599297253298,-0.19909458921120726
11.126045415,2.6626686221292393,0.6200572803289269,2.8884708987205734,-1.0172784539805042,0.33756123735624743,-0.20880835824293287
11.226046964,2.853408375738247,0.4086449871492379,2.8824589633519,-1.3369895203812268,0.36520728990316026,-0.21691803135327234
11.326042617,2.919457775013359,0.08190721529187915,2.78609159402303,-1.519607520969494,0.40470237658660724,-0.21687933733237036
11.426059918,2.875971488600296,-0.14215082449592786,2.8194634165043753,-1.816665606972156,0.4123296911259603,-0.2137290384688588
11.525968855,2.697953815548577,-0.38437564468965174,2.7883327890698544,-2.0326183071256496,0.4259818349555329,-0.21684913011887608
11.626032863,2.649733361733883,-0.6900561359005354,2.842961359053717,-2.249768397026173,0.44865317044388625,-0.21787260159066577
11.726019148,2.4137154516347072,-0.9239784136887864,2.890497457124434,-2.4545240216821416,0.4384069641343303,-0.21235618703029902
11.826042527,2.232125514259591,-1.135419005376571,2.912555755269666,-2.679531526071826,0.4344120364917323,-0.20653169667211754
11.926039678,1.9443535284510376,-1.2026264632433805,2.9163226005216876,-2.874304825326725,0.44514065650417933,-0.19714671862947153
12.026050558,1.634451566649399,-1.194224618639818,2.987424453813352,-3.16962232168463,0.42291839031251316,-0.19930576413752185
12.125972651,1.4026145575774995,-1.1586277660167672,2.942592777912371,-3.472994369818441,0.3957985311675203,-0.1944336874775022
12.226054857,1.0497544009107036,-1.0654317928949215,2.9609790506007485,-3.5373610822346206,0.3853151093348334,-0.19555843029022615
12.326016722,0.8915650763607306,-0.8821007127411672,2.8579479522066116,-3.7757438337133995,0.3794918814152975,-0.2005824867582492
12.426009472,0.5868567394559578,-0.7857809732578346,2.8630716366687605,-4.097691744553388,0.37381376716702835,-0.20101180281160436
12.526020958,0.46952988979109733,-0.5673243785045483,2.83543951098963,-4.279897494266916,0.41721601599401587,-0.17921597607529036
12.626020154,0.3376805186655507,-0.21130601072883232,2.994651329889757,-4.445501443329512,0.4985921008206007,-0.04421320303734113
12.726085872,0.28405246941019613,0.04672552147576617,3.2766147171654607,-4.432782340048026,0.4738778828507858,0.06133493514448446
12.826049108,0.1272737764350821,0.3255523555356206,3.3572660784101167,-4.325672541172463,0.40565265909140935,0.12271839885764381
12.926008306,-0.10915605738622923,0.6688817333060884,3.3506662508821097,-4.2424016858640945,0.3514323740364557,0.16552653363698755
13.025972439,-0.24023197154613213,0.9964374565375329,3.273249808213515,-3.9793266991535106,0.3115087801763746,0.18801538666779335
13.125971173,-0.457191651528018,1.179205690103576,3.278386098873682,-3.778240233030852,0.32197434422455073,0.20054163359427676
13.226035186,-0.7894595064884504,1.3789271794058542,3.168291453872126,-3.4785605755395945,0.35674426198099873,0.19674286287005144
13.326058473,-1.0358173998587215,1.4363756833567654,3.1442694145307017,-3.3103679074451207,0.40758612098897345,0.1874777253702768
13.426060222,-1.3369571014456014,1.4386355770402226,3.206671917481894,-3.0578718101789506,0.4404381034597397,0.18447405995413715
13.525976834,-1.721978626754241,1.4036854964334957,3.234084022804503,-2.8513911103356553,0.4562769601344668,0.19200193261282522
13.626042461,-2.001144546743211,1.2321893717544696,3.0879776843789846,-2.6536045808710518,0.10751139445616328,0.2369260328083789
13.72597294,-2.189052720272891,1.0709948092315693,2.9834699648139886,-2.3407616490044596,0.32954966838460076,0.2106694919792123
13.826041121,-2.473447929379534,0.8853884143204233,3.085768719192198,-2.0940364379429197,0.46340524441993464,0.16411610844205568
13.926047946,-2.553362731440435,0.6071150371751137,3.108108981319359,-1.9688658585825423,0.42802383319601817,0.16884239875163787
14.025978119,-2.6707933481991883,0.3472189005428974,3.183280991524986,-1.8207829238002393,0.35444645869892044,0.17888951147489943
14.126053995,-2.6828814202198683,-0.09295380857408031,3.153471305146347,-1.613525929509415,0.32713162237992777,0.19801675702612748
14.226060917,-2.685234664262434,-0.3158882669424304,3.1206576532907175,-1.3799811028398226,0.2589344253132521,0.19682734371773372
14.325971306,-2.639217775877965,-0.6229811336336989,2.9570231037914576,-1.127219521807006,0.24663551949815246,0.21756786946542536
14.42605646,-2.4452894027092844,-0.8761284867308912,2.825580318300045,-0.8750836370358808,0.26562878205543505,0.2153737864168877
14.526031116,-2.238396360012288,-1.0982163228662918,2.8360378797662524,-0.617069536620426,0.3164038344018361,0.21987922652145472
14.626053066,-2.039553713280156,-1.1609483455138982,2.8300060985263755,-0.4769147902140183,0.35791595459285347,0.23315420365365372
14.726067562,-1.6896558561628463,-1.3478397278122718,2.803979912360829,-0.17397792623928593,0.3945729163031777,0.24233115021615778
14.826031514,-1.4365425577096693,-1.3467258206194748,2.8592534875143265,0.046192517664559146,0.435709639761492,0.24341278448426296
14.926048297,-1.170465740308636,-1.2599895652224284,2.9316400877996314,0.2593576594150073,0.44238694540792206,0.23325393707344183
15.026022138,-0.91614995421875,-1.1560452725891452,2.895330036983716,0.6644691811255408,0.46016205842486874,0.21941797827815784
15.126059737,-0.5923067742438669,-0.8887092760846801,3.0294528871803856,0.8333133157997349,0.45334380582548045,0.21427799832955496
15.226041692,-0.49877699215484766,-0.7063220207599392,3.222563522788889,1.0176487142391628,0.4387392847202272,0.2036483134265786
15.326058386,-0.3286270561742758,-0.48550544069952567,3.1560004021279293,1.146170853599244,0.45471157720775995,0.11927934797377562
