time (sec),x position (m),y position (m),forward velocity (m/s),"heading angle (rad), from x-axis, positive is CCW",throttle (unitless; -1 to 1),steering angle (unitless; -1 to 1)
0.13815296500000002,-2.7623386887293124,-0.1841967281797074,0.02913330360334511,-1.4937975369097902,0.16922493500457272,-0.07019760966557553
0.23810524400000002,-2.817471967295939,-0.13931017407181467,0.03397309219435697,-1.4505997386251974,0.75,0.0854063210653055
0.338095603,-2.759754220502764,-0.2083491990288992,0.7693877621351913,-1.5066037543427897,0.75,0.14257573715840055
0.43810683,-2.7781856732274726,-0.3022189381595401,1.474668143606448,-1.358696400510198,0.75,0.20625158525297238
0.538157628,-2.6824955692994186,-0.3921774842890614,2.2639964399136385,-1.150041436079654,0.75,0.2531101199617691
0.638092368,-2.534212998984782,-0.7107920871696342,2.7620988738660013,-0.9389903915348689,0.6347984514454877,0.24635415986018072
0.7380996230000001,-2.3260727903703744,-0.9274961251310043,2.966853603078444,-0.713293223552125,0.48873474002245865,0.22575418376652756
0.8380941030000001,-2.0740343689675433,-1.009456152786409,3.016263741136696,-0.49678230831736003,0.4276849538302689,0.22408073057879824
0.938104386,-1.765128194292063,-1.1933838116480957,3.0616846795804515,-0.15284271022916163,0.4173232399079926,0.2240343713207807
1.0381724860000001,-1.544780383990323,-1.0933773002904004,3.0508127870787796,0.01652670382629909,0.4457232230386862,0.21473790244958665
1.138100522,-1.2454995829287434,-1.1071406952020575,3.1046442531583582,0.2647134708985883,0.4708845273262964,0.21290750245521303
1.2381031120000001,-0.9201968198142015,-0.9987096600868738,3.135729951469583,0.5035292527129012,0.45878540759178177,0.2102176200494974
1.338102213,-0.6634818533893928,-0.7207023752613615,3.1901729171157522,0.7594141802475237,0.45048731950787463,0.2067056946793942
1.43810044,-0.36781189919849994,-0.5957922435488289,3.298750104115853,0.9907446790650491,0.4625843111765625,0.20021627978000497
1.5381074460000002,-0.2723238772615641,-0.31305870083711806,3.3743082143881455,1.2309330264131966,0.5388498836013905,0.09385233933468176
1.6381374750000002,-0.11769772474862375,0.025816075173952093,3.543217174690145,1.1997644312831734,0.5426766126789582,-0.00412162732668947
1.73810228,0.041837709517739546,0.28821530645532495,3.681830914190907,1.084909709989047,0.4910523442376935,-0.07158762784846394
1.8381064720000002,0.17056994713461926,0.6425304024246951,3.6530042214804657,0.9977953311064666,0.431235638091386,-0.11450070529527666
1.938094413,0.39519574136938435,0.9628802904898073,3.802993550258391,0.8392714825541034,0.35862811345185114,-0.13624385596354732
2.03809506,0.6513844323992481,1.2419010344525085,3.6707081062451636,0.745034451902412,0.3089912072310178,-0.15641347357890562
2.138101656,0.9328250482065693,1.5022632785993801,3.4666444188806516,0.5823816865188322,0.3118363295898144,-0.16836897187773717
2.238099862,1.225756810815095,1.64861776496984,3.422696959887354,0.29332507357927673,0.2897188200669323,-0.17094152986650213
2.338094486,1.5458220192965464,1.6657993582625885,3.317712000805025,0.09557065628912868,0.2963884927227663,-0.17341552208685454
2.438095646,1.860693975053317,1.8082844191581962,3.1720040277242623,-0.10090585304677842,0.3056222880376213,-0.1881575224849369
2.538104793,2.218443774595423,1.622860004476758,3.119760266802176,-0.2770560923885995,0.3051537895334094,-0.20375178482810785
2.6381045800000003,2.440627561686978,1.5164436649318505,2.9832250763376176,-0.5646290278122306,0.35192396643745466,-0.2211268835718828
2.738106415,2.6785060559296623,1.3204892924314924,2.9270730551389934,-0.7444168288545367,0.43478769459872074,-0.23274443705168849
2.83809838,2.9110874891484557,1.1056988230715188,2.974622925226645,-1.0385992196006142,0.4813049294795586,-0.23526295947126305
2.938125842,2.888906981092795,0.8206002135958173,3.100663661094246,-1.2183494719346906,0.5304819716537156,-0.2330990437547685
3.038098058,3.0766542061274875,0.5955354457214204,3.1507306802203034,-1.5042620404621552,0.5694044865579568,-0.23010807675645184
3.1381043220000002,3.1213590890995166,0.2448171906868006,3.2209548702683524,-1.737093725027335,0.5620356560300944,-0.2269449492433112
3.23812019,3.0084146817346173,-0.1096807744269618,3.270876067936647,-1.9107026516725572,0.5363889755171494,-0.2208656520224691
3.338108839,2.890320498874125,-0.4196592457794535,3.3459161073294936,-2.149171374782666,0.5184888551908221,-0.22568710390529512
3.438150846,2.7783069196251375,-0.6425740585297064,3.347360976251072,-2.444776108879365,0.49463540936289174,-0.21759518104247932
3.538110299,2.3899495374109643,-0.8840920718868265,3.356927764053472,-2.5890356968189736,0.4776827087384276,-0.21042887340003102
3.638101874,2.1650077718450804,-1.0668949811761559,3.2813467471701117,-2.7976643683872733,0.4455387840624342,-0.2000696250291304
3.738098269,1.844205248323046,-1.1339732183559175,3.301126084537239,-3.0865660439633453,0.41202780382492116,-0.20227174121033054
3.838104606,1.4828682155617452,-1.2162133021762125,3.1996920280998222,-3.2532971700989672,0.36740343891995514,-0.2054607433368818
3.938122898,1.2573158631279913,-1.0411511221667702,3.074470170823908,-3.4737480023464067,0.34871745305535196,-0.2037089583432576
4.038113113,0.846635682804235,-1.0405253854206378,3.0284986074925118,-3.6564651718641956,0.34846735022118147,-0.21391772263336434
4.138104509,0.697863581269886,-0.8211635897165269,2.9311245106821646,-3.9052191787894457,0.35266292370161395,-0.2213849012413863
4.238112032,0.557121294890764,-0.7274625094490552,2.96948913363554,-4.1339400725985636,0.48454292958650974,-0.16513581985967113
4.338161563,0.28411479675046836,-0.4364290053420491,3.165366925761468,-4.185003529037865,0.5623960107044622,-0.07997486508016254
4.4381031140000005,0.15186326095662808,-0.07601557555830005,3.451537548590929,-4.235563783618982,0.5572161489202749,0.009343584529744207
4.538096593,-0.050664253588253036,0.2066836690705808,3.558673402766759,-4.188595780820612,0.4636275141340147,0.061175615436460676
4.638162754,-0.11424664584876223,0.5289717530376903,3.6105188915872546,-4.158302141485808,0.3778062672837983,0.10799818043662397
4.738157782,-0.35070287058966965,0.8438288181512174,3.655338564911647,-4.010827411235016,0.33307961734063546,0.14439488517275537
4.838094313,-0.7089218574567133,1.167377272424697,3.5837582369115766,-3.813659154593355,0.28291532624095594,0.16574881105710226
4.938105367,-0.9494233712316034,1.2799462664628032,3.464371706484831,-3.5538920444917093,0.2901246261655998,0.17372929421990754
5.038103759,-1.2854069431283108,1.4502012098587986,3.3973190241237123,-3.2665097706723607,0.3027022325071361,0.17823140414625183
5.1381000629999996,-1.5874863336973521,1.4327190797767815,3.234811059160193,-3.1055717306263864,0.33582553490669587,0.18151935489707577
5.238096568,-1.9114808721116636,1.4188021803392747,3.3272452292353734,-2.8768925427245233,0.3885190655749052,0.18938912357353352
5.338103341,-2.285941962901681,1.2783180897791862,3.179790547582174,-2.732947601609711,0.4265576534066572,0.19105796325006447
5.438142207,-2.479479721803732,1.0493695381563648,3.2158195706041965,-2.445097525634958,0.4271336154760954,0.19389795908988122
5.538104804,-2.647443387656881,0.8336793582971362,3.3658674647204814,-2.204752172119248,0.43163697504101767,0.20571675047616214
5.638101433,-2.9882547401537223,0.6159082546230877,3.2642061585711866,-1.8778140866525765,0.4304790573926149,0.19635952950037827
5.738095419,-3.033694303159146,0.19626081472179108,3.1309514636254514,-1.7312981511242809,0.4231707557698143,0.18627233467856588
5.838102784,-3.0394853270110844,0.021684614582118893,3.2866210617524123,-1.5058996472616664,0.40164205186553587,0.184029625077953
5.938100547,-3.0054656618902675,-0.3464200123476285,3.2408239665536662,-1.2937527999623388,0.398731943104265,0.1871676620507197
6.03812586,-2.9375637917545636,-0.7179281401626089,3.1719810628182334,-1.071069007086241,0.3392264970937294,0.1859809944729137
6.138105093,-2.724523430640514,-0.9216737501701768,3.1410021567191944,-0.775744604157428,0.3468644156746744,0.19942336206917696
6.238100926,-2.4864284490256043,-1.1321652090912113,3.122558667969021,-0.558974257964868,0.3816291999607029,0.20388229709314573
6.338172397,-2.188611024835568,-1.3476089796489015,3.062248883465352,-0.35830524877487174,0.41507094340043016,0.2060798820172083
6.438100322,-1.9859673617067795,-1.3457151103991065,3.2149855073305034,-0.18767470029720235,0.43925430368650326,0.21022903102273072
6.538140159,-1.6374336433366583,-1.4401029515898618,3.210393166940594,0.03184423469932954,0.465705938938833,0.1994255517204068
6.638103375,-1.3160689780263077,-1.3887438839695658,3.1909469323061654,0.28735118380747526,0.4754999145283034,0.2068263016163544
6.738105334,-0.9831860573515132,-1.1724992408101567,3.317171708318028,0.5084273975288768,0.46068837479518854,0.2047953466789688
6.838096226,-0.7904580173915002,-1.0199480487015826,3.2587432733578416,0.8700337327100838,0.46390614688564574,0.19340893399200812
6.938103315,-0.48778916843886233,-0.7906792553099447,3.349616161388955,1.0142738284984907,0.4712232647295137,0.177163499603132
7.038099285,-0.35139616574122856,-0.4432470516099222,3.3964097226891474,1.1836871033000045,0.5367628510450625,0.08917709848517848
7.138102985,-0.2313446613694412,-0.1335159464484644,3.6210643436996555,1.14774297298602,0.552169200524969,-0.014912377178509443
7.238096523,-0.04575278916551517,0.15474109401090866,3.6503085769498904,1.270719608538766,0.525826175771873,-0.08085001896425516
7.338146021,0.05648217875460256,0.48903154512158864,3.7989297526671018,1.055148166958874,0.424127794149542,-0.12162202659096721
7.4380987560000005,0.2983692614135969,0.7855792110774671,3.8284249051622874,0.8871961546008214,0.3614957876743261,-0.14370577632447973
7.538138554,0.49149744467873746,1.0694517590938875,3.6084589865737433,0.721474426468812,0.3371503612682278,-0.16008684889496777
7.638094734,0.8049343400571214,1.3553922547195132,3.5884706051656976,0.5371659456176793,0.31356992760503694,-0.1631179442638359
7.738103279,1.113691250775492,1.434920908320894,3.4046754605214655,0.3361050384342614,0.2980038550444685,-0.1730221284961992
7.838094946,1.3740498013385387,1.5992227817309013,3.2597740026131494,0.20555613081801044,0.30126627408137757,-0.17842858254609334
7.938114274,1.7384110487197248,1.582608897468329,3.2060677562122923,-0.09848715934096484,0.29145773026125116,-0.1850821419549582
8.038097787,2.038270037679232,1.5472779246144892,3.043440480403974,-0.26237994334047476,0.30718677331808275,-0.2077203238059858
8.138094478,2.3564417691784203,1.39647436090787,3.014931771875862,-0.5739727401591831,0.3373449063735614,-0.2166796110466027
8.238096738,2.6104037466489856,1.260826997888956,2.964765774461868,-0.7325732965794047,0.38649222318971693,-0.22449267052258012
8.338106241,2.713704891639071,1.0196077113000204,3.024525018243573,-1.0037344461133522,0.47732320488314195,-0.23281292358534011
8.438093041,2.889222870735751,0.8170490933547319,3.0076732206735683,-1.266536865289431,0.5270939728166233,-0.24167591409342473
8.538093764,3.011580964058969,0.46785812692746853,3.114822319653849,-1.396530249153893,0.5497581317170046,-0.24274869059937682
8.638098376,2.9963104483037983,0.2140526961517205,3.161589407996055,-1.7019754473457809,0.5480996086905137,-0.24176579844861049
8.738185306,2.9256867997104608,-0.1389543567899861,3.2870638024247323,-1.8758693834155542,0.5435630612376259,-0.23318145362166223
8.838101185,2.7698686659507827,-0.42101108033662543,3.2952118773226537,-2.053491522968609,0.522769696828981,-0.22307473205251274
8.938092261,2.7144442101244395,-0.6999036992920705,3.3034665433400456,-2.3453374507980462,0.5013266952020491,-0.22565960987381967
9.038095631,2.454277597866566,-0.8744051053006859,3.318890327527242,-2.532495426328125,0.4909292895965572,-0.22072098117177047
9.138100182,2.136441873366915,-1.096614888366551,3.2732995468297617,-2.7905130004775387,0.44373775996808174,-0.21119280766856824
9.238091863,1.769536744907368,-1.1472214117945638,3.2625786318698258,-2.9709364596537515,0.4069364090818019,-0.21031352962091707
9.338094249,1.5306122089029297,-1.1858306192963708,3.229357551257978,-3.2954557756397636,0.3846899612190875,-0.21554375023693392
9.43809941,1.2285252841765668,-1.2394683545283112,3.0957388981179736,-3.44366351113005,0.33694063002495955,-0.21532248911553725
9.538095594,0.8811431094125366,-1.00408641589005,3.028612678638026,-3.570140817639094,0.33639202373445753,-0.22097467509140667
9.638095797,0.6696825619589262,-0.8955069924001116,2.9976442477090393,-3.861967702407709,0.37314441109017843,-0.23261047737332863
9.738122454,0.4698147125784668,-0.6109153426742299,3.027850530406394,-4.091587051410455,0.48889882275543356,-0.16890190914596775
9.838147305,0.30154479019873615,-0.5018317999460713,3.1405275321342403,-4.18796617114739,0.5665990736895441,-0.08444521837907605
9.938094068,0.0945643781994622,-0.11858541753606801,3.525079192653771,-4.288663136662271,0.5940037993950051,0.008311977332066567
10.038093016,-0.11420943769454003,0.09024795712737523,3.544720127813316,-4.194355059732926,0.4811025551828683,0.06677789040681537
10.13809803,-0.1874728471395999,0.4838244513967438,3.6792403170866943,-4.082557223554763,0.3867584879029567,0.10355285283731631
10.23809355,-0.37650984400194,0.7643532622874917,3.6526023239550716,-4.015991045663501,0.3318681409823766,0.13851448671504113
10.338096478,-0.7631655071449011,1.0408549774323959,3.548144604554449,-3.82043086790414,0.27722788527464987,0.16410423277540817
10.438103139,-0.9891584739487495,1.2513153749693984,3.4660588278708655,-3.5745683847550898,0.265966893944266,0.1798805426189675
10.538092735,-1.3288713195368942,1.206352652256716,3.343570962295157,-3.3376191182419563,0.30066864113066083,0.18205103337473216
10.638098673,-1.6601435778255407,1.4243438542322777,3.275391969133929,-3.062790094390647,0.32862116454895035,0.17551925371654672
10.738090177,-1.9085460217145016,1.3182489568739741,3.1728748153249464,-2.862353313243218,0.39041986737081924,0.1798060238611384
10.838094099,-2.3381220094679183,1.2762262457022002,3.1783047743596375,-2.614511603218305,0.437098097724528,0.18229222157201894
10.938133189,-2.5264660396286986,1.0574128594878849,3.14424801874821,-2.432767887357226,0.4479992749544978,0.18640785092868953
11.038099698,-2.7786242005109547,0.7417463217090884,3.2435387238537037,-2.151593444286008,0.45325028407213214,0.18623854491058645
11.13809208,-2.88412431508847,0.49918935461960373,3.2788119847088617,-1.9720964082995804,0.4556837345632764,0.18842264988051322
11.238098848,-3.0190305860872826,0.10619078634250385,3.2293877086720832,-1.7599943797098723,0.4134515162921419,0.1840231064670331
11.338095555,-2.9936428502384382,-0.10664730207084516,3.326313260442443,-1.4338639843770216,0.38285550527781015,0.18240662968408533
11.438095199,-2.9765255155957995,-0.4376501429278943,3.1773284937676882,-1.2294632483956727,0.3618117962779497,0.18226566974668054
11.538094256,-2.91836906043681,-0.7421127022012193,3.148723063406704,-1.0400988796191863,0.3594476018985219,0.18347086860534983
11.638093162,-2.633147207289222,-1.0825656463514706,3.096999478762211,-0.7435350010043966,0.3440210389105106,0.19334895691117443
11.738093067,-2.4381581105991197,-1.158570773059302,3.1009998069578995,-0.6136942119835385,0.3744791591644578,0.1990560742355105
11.838093505,-2.118402481181963,-1.3221834773742913,3.0508720239489033,-0.33105606071540267,0.42869622676879987,0.20302104759107426
11.938103838,-1.8895321036481079,-1.3747943968172658,3.104923546554766,-0.14606771394455056,0.44590296293106807,0.20506487585841865
12.038147852,-1.4906943846974108,-1.3559980123537092,3.1360881944813337,0.09671818967591247,0.46504695984562994,0.19980495236912424
12.138152684,-1.2200973772405896,-1.3873640098958502,3.1844731547234497,0.3249921948828952,0.492197540631402,0.19958428497620212
12.238096344,-0.9894770846630031,-1.2703699607340495,3.2352626458669187,0.5830172370723752,0.4710028017412028,0.1910468129926171
12.33815859,-0.7487465698087628,-1.0533622146238824,3.36509446466907,0.7715106499346098,0.5242727701775414,0.1913664984252408
12.438100277,-0.46640986801899287,-0.77346254720394,3.2815968010022076,1.0594552344711903,0.48470443420305953,0.16661172414127598
12.538107575,-0.29601125412354773,-0.5137304287866682,3.4794284482653115,1.1727557441003549,0.5206896183518436,0.0892609223504781
12.638105928,-0.29418590282245666,-0.20830293907976388,3.5717678104461514,1.2111574778756333,0.5343417648980625,-0.011599528596692334
12.738090964,-0.034167169257942415,0.12565157834856017,3.673051340402723,1.117796451185922,0.5209094231541884,-0.0869611552415631
12.838104296000001,0.08380926150136866,0.5018774933919745,3.8093551119860565,1.0267018063230104,0.4204946633371232,-0.12448382094905402
12.938112009,0.29571675042948065,0.8120526910861022,3.7395949540927944,0.858780856075769,0.357867887247461,-0.14153259689813413
13.038104269,0.582349143664034,1.142085836882131,3.6909330128940723,0.7572297523040431,0.340317039494458,-0.15582922289066184
13.138097488,0.8534619241698941,1.3239580503911954,3.5180919723116246,0.48835777019811893,0.3102381421334413,-0.1578314344621802
13.23815899,1.1526923205605255,1.522531302845327,3.3857322126118437,0.3157528060333734,0.3059903195441666,-0.16836589053428966
13.338094075,1.4502465080667832,1.5519664127138915,3.3775865749780167,0.18651512694497596,0.3016164480303724,-0.17812049007058695
13.438092753,1.8150665423514314,1.6103832122884143,3.1928176117082825,-0.07447674286400474,0.28753919734224875,-0.18848384198882476
13.538095851,2.1304221988316048,1.5501738604409254,3.090713806862695,-0.30387464343684845,0.33024182171936656,-0.2026106083017111
13.638091768,2.2777343313836056,1.3894148505370782,2.981813848869813,-0.5284374850057176,0.35200886154421085,-0.22410341878182882
13.738090654,2.6793743727689936,1.2503348609339124,2.9357924677659413,-0.7525087691849826,0.38983830842343825,-0.2365100994510366
13.838102726,2.775090340140146,1.0413280348230944,2.9924951310518852,-1.0016363595718674,0.47211582032073385,-0.22975897167058065
13.938096469,2.9861287011253475,0.8098838995268571,3.0613909730747424,-1.1623845509284645,0.529556845464465,-0.23933892483133745
14.038096119,2.9977356629166736,0.47305271881324973,3.116276228356412,-1.4283169792565764,0.5439480567902779,-0.24437171840995023
14.13810448,3.0581705556418366,0.18419683860192418,3.2157162729546918,-1.687291905532444,0.5558790169632913,-0.22882356903486775
14.2381155,3.090374542159533,-0.14876176915278091,3.256106291955528,-1.8969167679878514,0.5515588481015026,-0.22968794712634916
14.338107203,2.8463536860708905,-0.41965543143319156,3.257180112169367,-2.034030797020335,0.5259709997941581,-0.22615851081073526
14.438114945,2.669691808938823,-0.7338769489591742,3.247931034403865,-2.288961124364005,0.5044356188003308,-0.22356236294073312
14.538101896,2.4625545458989255,-0.9238519568599164,3.2893307472117916,-2.5435291018004205,0.4967068261710982,-0.21975888323189263
14.638118584,2.1444284665320192,-1.0810350666808133,3.252556013947075,-2.746288420720216,0.44719776552959445,-0.2100034088934189
14.738111814,1.815672785473744,-1.201778025818584,3.29431984342806,-3.0140426603315396,0.4115540526474261,-0.2107128028625276
14.838108303,1.4779205049424435,-1.1771311126070503,3.1557484259594153,-3.238051115120956,0.40949440473649495,-0.21334200761695538
14.938101375,1.2124339649984464,-1.1625086725388902,3.1547498012501647,-3.442733493173632,0.3603578752009434,-0.21434666849117265
15.038109648,0.9656828943790298,-1.0429312967508608,2.982327295482436,-3.5914017768483824,0.33790986700937176,-0.22135934895519313
15.138152347,0.6177955824678263,-0.9286218468534365,2.9631940206837526,-3.922637436302007,0.3906276795632,-0.22101251972726765
15.238101785,0.4982462368975008,-0.6849540567637683,2.9906361617278194,-4.026560761135848,0.4803303417581842,-0.17748863554156188
15.338110301,0.27181152711490336,-0.45183223585258425,3.194756194172373,-4.252764606818547,0.5664324146189238,-0.08233560263241196
