time (sec),x position (m),y position (m),forward velocity (m/s),"heading angle (rad), from x-axis, positive is CCW",throttle (unitless; -1 to 1),steering angle (unitless; -1 to 1)
1.131058667,1.3477681962082348,-1.2945570028031848,3.0519200032724636,-3.3206188139930393,0.392006729974458,-0.19350932797253578
1.331055849,0.7823774406143248,-1.0760276943138953,2.982528788189761,-3.7866516637433483,0.3511558490810082,-0.2009210462048118
1.531059549,0.39206354662917703,-0.642576237848581,3.0002455350343453,-4.200113645672217,0.4597583508318689,-0.14619953965886484
1.731054182,0.13169231415060567,-0.06993571139479363,3.3381882824883933,-4.347394177658207,0.4889232825282732,0.029327282619316445
1.931053933,-0.1681089050081767,0.5610019055889197,3.4869275844284213,-4.182835803093417,0.34531561395970495,0.14435872015442155
2.131069856,-0.6136844316031002,1.0853807781030416,3.4133019319471205,-3.794141571595046,0.2903988986859317,0.19594341756006825
2.331053323,-1.2232258690119182,1.366585881873486,3.250891369238554,-3.3375234307484662,0.34827027215718337,0.19415496071987443
2.531059664,-1.8442190032468124,1.3859086476932128,3.2322133727044178,-2.892865924450605,0.4093222895993745,0.20237246575338838
2.731063438,-2.4377937220672976,1.142787158499548,3.2559023725256444,-2.4798650887215263,0.41658579861522516,0.20842327753914375
2.931056098,-2.877138327142986,0.6251574230198572,3.212950704626515,-2.0418795023278284,0.36596123995631935,0.20761528266143509
3.131064072,-3.0498005397558603,0.039008548109517066,3.2336445936506215,-1.6049264763003488,0.3532313824276038,0.2030667214450054
3.331053926,-2.937267994482442,-0.5889141072176074,3.0623078270437727,-1.1226375217345672,0.2836325078421517,0.21650103388119968
3.531084593,-2.586125447165712,-1.0688891136561285,2.9603293352194076,-0.6657315606280242,0.32390448328289945,0.23061658110798613
3.731056057,-2.074807793157981,-1.354706612621573,2.9577261728122353,-0.21439776979153724,0.4259253559909599,0.24372356870950299
3.93107352,-1.463299912704763,-1.3371875210491035,3.0567348562172927,0.2589735389782868,0.4720549704485034,0.2365317104525134
4.131055647,-0.9006963484921037,-1.0323521647666143,3.1809640222764157,0.7077129174522188,0.45988071068732395,0.21930508580319474
4.331058119,-0.5203553164302064,-0.5482379146760987,3.3470111980880755,1.1088846669553545,0.49943960325350456,0.11830533919344473
4.531056442,-0.19465930106296583,0.10363900091721145,3.6246352600349323,1.093482406301283,0.48056054305784207,-0.066789846156371
4.731096181,0.18956869383023967,0.7078721397014308,3.6783506142506086,0.7982442173027476,0.39291274568816825,-0.13107681236672003
4.93105394,0.7575295160054185,1.142139242656409,3.5418216989362827,0.42209005560759144,0.349772138467095,-0.13375187749171577
5.131055274,1.415078319753954,1.3151893038800178,3.3205018427119577,0.005025621866781446,0.3115584862349066,-0.14431916973779965
5.331056549,2.055168425077287,1.2337911685232419,3.1469934366442422,-0.3796536704932903,0.30170136472021314,-0.16763802392483856
5.53111224,2.579861757265267,0.922994375450551,2.989598532476646,-0.8275189743027771,0.322380330510191,-0.1996984683053664
5.731061314,2.8648806061347245,0.41459017877714804,2.889018959639429,-1.2975255760199607,0.3975119968269756,-0.20993332139819676
5.931056704,2.909159291122223,-0.17124203087563708,2.9362254401658228,-1.7545553471496798,0.4605168547197369,-0.20596977410559325
6.131065383,2.670149667456322,-0.6914321893213844,3.0038383222030682,-2.220980296619353,0.46118215399703644,-0.20221778396221046
6.331083688,2.214115991276645,-1.1111884065596283,3.064984328246998,-2.679766656323876,0.4625201817151604,-0.1932826555391664
6.531068962,1.6187992767110349,-1.2776732338201877,3.0724265633372028,-3.114669599023424,0.42165769452873914,-0.19192587134998804
6.731076782,1.0452123522825358,-1.1771940814178394,2.8957040698896335,-3.593873928128409,0.24083074110962993,-0.24846582236396175
6.931058443,0.6402889369474571,-0.8364494600804298,2.783467764960001,-4.100025718570238,0.4487979194896196,-0.19158023635132818
7.131089586,0.3420602579586838,-0.32044667586926084,3.1490475645733733,-4.365997485759001,0.5368681282402971,-0.047448354028300804
7.331057345,0.11399578831416411,0.27936210901215136,3.429777424619184,-4.293414577333193,0.41813135346953395,0.10673998126201374
7.5310623230000004,-0.26642803194336745,0.8902404923657838,3.4608161127508907,-4.006567320313535,0.31376227149486874,0.1822621463022303
7.7310579960000005,-0.7781112146095343,1.326830976214416,3.3019280639204767,-3.562580855025499,0.3259522675913479,0.19672409008306804
7.931053636,-1.4165892472502524,1.4801662816156942,3.21442871185014,-3.1079621843819103,0.4115920349775273,0.1929977518272123
8.131062755,-2.0177289010661457,1.3247127031799677,3.277592165591141,-2.6931113580239745,0.43493523922086946,0.1992227203373169
8.331053998,-2.5623616207805324,0.9413846982265324,3.303133761961422,-2.2355943323571683,0.37425697373494116,0.21705366626173198
8.531126125,-2.853324571220542,0.36861834846033065,3.2054384342626214,-1.807290133677746,0.36378844344019634,0.19216364248691364
8.731060043,-2.8924714934989835,-0.2501844095482986,3.123601969386246,-1.3425371743505012,0.3155997178864239,0.20169028364928618
8.931054197,-2.693283572048765,-0.8204475544851175,2.971429896030095,-0.8979413178810857,0.30326242791328917,0.2116455646902068
9.13105862,-2.219201911884844,-1.2081294498519104,2.9020133564732373,-0.45772166102690054,0.36017167498190744,0.23866693397801014
9.331056541,-1.6724191712762366,-1.3143443447808258,2.9963630022493053,0.04560162671963366,0.462998362620365,0.24200752480127918
9.531055096,-1.0687994886950825,-1.1756875735965189,3.122829422836687,0.5087091745919403,0.4704654944638829,0.2265972403518574
9.731060496,-0.5896768356839096,-0.7648808247175342,3.23138760146415,0.9487483892913708,0.4708004393762448,0.18559744052986635
9.931055753,-0.29330141246873054,-0.18292738384305404,3.492983047049006,1.129385744259938,0.5471695009640262,0.004717520766418303
10.131058416,0.03195100341756759,0.46980950534061017,3.669486603201075,0.9934484142723349,0.42868685115179567,-0.10550745102986012
10.331065975,0.5085568703540561,0.9808521126190116,3.565623544738958,0.6609602976592043,0.3592934045187939,-0.14883911224495835
10.531057646,1.1333003524141239,1.3004283637724445,3.370113012471221,0.22902443947306583,0.35107488551464144,-0.14982564724770012
10.731059336,1.7849642671649013,1.355446090110885,3.1850008229775812,-0.14277302392870847,0.31716263514329435,-0.15901460657221014
10.931056436,2.3723723487392854,1.1737257362388864,3.0445616010528878,-0.5772430611620067,0.32466177882066904,-0.18806776748101103
11.131066515,2.7931657815916657,0.7435367082406786,2.91494328677135,-1.036295600940701,0.3887637633570765,-0.2106514104394879
11.331055809,2.974328791934733,0.21049878948408954,2.9243261276084254,-1.4903265724811732,0.43795743956458627,-0.2198416357449519
11.531052441,2.8827902418413136,-0.369194734880397,2.986458940953071,-1.9720178042951761,0.4747957236166941,-0.21466003400520767
11.731055804,2.549309113669251,-0.8571595133056005,3.0282164995545218,-2.439953534892947,0.46786212741696426,-0.20671280561677324
11.931052539,2.0194669375183496,-1.1596999701040975,3.1111333389819946,-2.8650023281336465,0.44715955487006187,-0.19205856601317237
12.13106493,1.3905393062117934,-1.2128521227449238,3.0534846919483862,-3.307670149067443,0.4020671758619747,-0.1993150876171928
12.331060489,0.8400692248522483,-1.0087383911099275,2.948281033382751,-3.7811071970099848,0.3619807066700147,-0.1994509147509425
12.531054482,0.44196675673468033,-0.5964975903832703,2.987441456502067,-4.200120835806471,0.4564982455331876,-0.15125511919679374
12.731058552,0.21076584333317383,-0.004895595283071623,3.3042031008682526,-4.31017571648436,0.4976651745392356,0.03262361769604992
12.931060959,-0.12268918738086125,0.5842380726329031,3.457218408553497,-4.159478108835945,0.353797789514493,0.14107688357872536
13.131058394,-0.5593074473066961,1.1089242240676875,3.441725126620782,-3.757501721024326,0.29588622037629403,0.1921658351704957
13.33105783,-1.1689601388743696,1.4157607326348094,3.2234624829288134,-3.3064730069506356,0.36529705217489966,0.18599497002736953
13.531051294000001,-1.813157265336313,1.4171414504075213,3.2777944626588664,-2.881659411254167,0.41841569881291774,0.19860007558428894
13.731059496,-2.414280867058612,1.132795695644437,3.3019723137035086,-2.4547182293439125,0.41200927544437976,0.20206573834417832
13.931062742,-2.81238455641353,0.6134099532337646,3.236072609579872,-2.006245870588691,0.37496148339129126,0.19625104413181252
14.131059877,-2.9980025081343897,0.009605662891061843,3.143615298483766,-1.5950189503075636,0.33585721114352834,0.1960292022791268
14.331058416,-2.8650664423287364,-0.6153352241773783,3.0642834013911333,-1.12125970470846,0.3055476713192178,0.21153580141416112
14.531054346,-2.5360945307621274,-1.0833720664122273,2.934261720081104,-0.6568774738592916,0.3245409883150508,0.22720564616897618
14.731061347,-2.0049643392575587,-1.3347271505216098,2.935418851933183,-0.22592674269977608,0.42813864739585306,0.241760682903967
14.93105392,-1.3982602696196407,-1.3281714435387326,3.0839152517517787,0.2533791411051855,0.46804980446368083,0.23457717271915376
15.131112696,-0.8409465480197941,-1.011866399643596,3.1674017266713848,0.7302661934206547,0.45157916446889534,0.2195909080287179
15.331114584,-0.464496506486581,-0.5265922263652829,3.319257588824003,1.12100092433626,0.5138250632656252,0.11509733964954078
15.531129957,-0.18181278563676115,0.11337032600764507,3.597194860570677,1.1204183179273628,0.4849000040900303,-0.07486990482418905
15.731101614,0.22566975786315838,0.7234040792608075,3.636115665576906,0.8084715400527989,0.3909377512849198,-0.13526899945318135
15.931059845,0.7640835582605435,1.1570659375124046,3.485480952550379,0.43208174318478665,0.3591829344872994,-0.1482997476907566
16.131054516,1.429044351187777,1.3596914653835404,3.320724623283164,0.052137585864714224,0.3207845002579138,-0.15620156713628103
16.331125418,2.0455663022237838,1.3070035313899329,3.13805014673472,-0.35892774636457064,0.31970577912255754,-0.1794234029292097
16.531094496,2.5767556388530823,0.9895878683697824,2.9739956296807684,-0.7934884015699005,0.3352615959185014,-0.20720921957120655
16.731061575,2.8882253389199235,0.4714325204054543,2.9127793360449634,-1.2494717857951507,0.4004109952599451,-0.22188422549226963
16.931060024,2.9520309617429477,-0.0815906749790662,2.9507977163249413,-1.6973973866041177,0.4643126153402079,-0.22204536419291318
17.131059074,2.7367042015589154,-0.6315595740570005,2.9862815639635945,-2.1567629377037907,0.47281534689719057,-0.2168341671895065
17.331100881,2.3122992302003986,-1.053123699557245,3.0471783597803475,-2.632138291399312,0.47442050010524106,-0.2069063356738014
17.531090454,1.7400068222588128,-1.2245636761608685,3.079962340490516,-3.0784724454308585,0.4311789188135073,-0.19785647127340383
17.731076939,1.127372636611181,-1.150734104866944,3.0122876189850474,-3.5291007665262724,0.36506363693638055,-0.2041402799982522
17.931053712,0.6294695397131701,-0.8289558443177139,2.9275907118821176,-3.9708494627447783,0.3835667697262366,-0.21475050417466082
18.131057843,0.32962019316679025,-0.3389760309451074,3.1344081832949326,-4.287458550104067,0.5058872158620685,-0.06398658180574493
18.331061001,0.030941126937508424,0.28329131681927033,3.4290374564077157,-4.268924600858236,0.4244403939394346,0.08835265094608011
18.531050081,-0.34701578954153267,0.8288131777164802,3.4720585867300757,-3.9751496475203676,0.32940801071199355,0.16783163019675795
18.731058021,-0.8469950173447736,1.2593768040963131,3.341799836423365,-3.527243665427258,0.3142303502553971,0.18251351473574526
18.93105668,-1.5181944449699614,1.3869120615995478,3.266064762081663,-3.0932656365581574,0.3881261883391986,0.1880579256724218
19.131055468,-2.1493240277407817,1.2302731383077508,3.276523688321803,-2.6709702075995416,0.42769833971515003,0.19812643228703083
19.331055262,-2.669565613094623,0.8410424110465623,3.2585243605267116,-2.2234340294969557,0.38269222054568514,0.19500851565404123
19.531074638,-2.958796425969157,0.2750493458234288,3.1647001547262468,-1.7734942829405391,0.36670941475329366,0.19066869010428697
19.731057286,-2.961865664616472,-0.34297108784760993,3.0833406807031474,-1.326707042394673,0.3462355165340875,0.19624646620634112
19.931059615,-2.7126308447226717,-0.9058976073843104,3.007727622960222,-0.8712600890978816,0.3043852015687316,0.20930914324124486
20.131062324,-2.2446786945389032,-1.2596406337292418,2.900673929843338,-0.40786493006195657,0.3670989686331933,0.23523825728271788
20.331065253,-1.6801848840156115,-1.3746700993031131,2.9987409104421587,0.04774412687162984,0.4577911044555263,0.23249599099518764
20.531055345,-1.0838252812417641,-1.2040556356521241,3.142488295435694,0.5222273190317764,0.46497813682832745,0.22603861249111315
20.731100503,-0.6249331854689361,-0.7724468591396052,3.1862392354610307,0.9898299562081777,0.45377319867354143,0.20229817879918882
20.931054504,-0.3176960516933493,-0.21035642793124612,3.4536834451469454,1.1998133047363069,0.534692874704847,-0.012217265868792819
21.131055634,-0.022935391378471115,0.4285418684254159,3.651053799700178,0.9966020819647232,0.42938910004966135,-0.1190429617373974
21.331099372,0.43058304438513434,0.9820646325046996,3.5612484005845437,0.6345311139557113,0.39507650835292035,-0.14951057057526307
21.531071793,1.0637946906663507,1.3290260230595918,3.397234994388578,0.22309294820667278,0.345717295875767,-0.15435846418421978
21.731053824,1.7212387265397155,1.3758179649037137,3.234013510163087,-0.1519155275327208,0.31917352610128363,-0.1631274485033233
21.931054933,2.294577691223365,1.1734697363258488,2.9995654298315837,-0.5693848338235529,0.32236089372218296,-0.1903468896395272
22.131059558,2.7223130520647056,0.7657984296697303,2.924019406450207,-1.025334279278777,0.374871454428797,-0.20853297774346083
22.331051583,2.896240267079151,0.20185897062957375,2.9428053105822145,-1.4768714196891586,0.4400103654866329,-0.21927273598280403
22.531057507,2.8162215745263217,-0.3699345954360708,3.0032765631604907,-1.95307234205182,0.46181603540776356,-0.21154633524366015
