time (sec),x position (m),y position (m),forward velocity (m/s),"heading angle (rad), from x-axis, positive is CCW",throttle (unitless; -1 to 1),steering angle (unitless; -1 to 1)
1.125994098,1.7416964686863519,-1.0001489551211655,2.926961353246229,-3.2285128834503043,0.43365691183475125,-0.22853395824146736
1.326021506,1.1779856481036628,-0.8420277959854469,2.8659019589572146,-3.729334277488361,0.39066532958033917,-0.219106324553732
1.526064133,0.7834307344072616,-0.4341743687189503,2.876077169585298,-4.180877640167989,0.4401086751707255,-0.16010667726824185
1.725971569,0.49627306233462976,0.11105994729137092,3.218730663769024,-4.280004678192125,0.4966459693528153,0.03930248677960638
1.925973017,0.1880544579603483,0.7129311566738245,3.3768749779088227,-4.132907526532694,0.3731366279150567,0.14293099724763847
2.125972759,-0.28976756817569266,1.1816259046080182,3.3384065220585613,-3.7438171770554147,0.33719400250611553,0.19585290793687843
2.326061004,-0.8903297176730653,1.4496723668374991,3.258326004554531,-3.272183716766207,0.39532477372269204,0.19133973411896343
2.526064717,-1.5390367458630838,1.3858760153132728,3.2175113686286467,-2.844782618796185,0.28678549734720044,0.1857028827945261
2.7260576050000003,-2.0489358045677175,1.0970725641574661,3.0320382985614653,-2.3403833135014462,0.3700207714139283,0.19467014347249548
2.926027193,-2.4210803439839053,0.5923524401730318,3.1961459819366675,-1.9719198280076233,0.4234812731820886,0.16520161807955136
3.126054079,-2.577502458010077,-0.01987249457115481,3.1424276236646707,-1.5921127227814165,0.28473179607017074,0.18531599045502464
3.325967654,-2.474791383529155,-0.6376301310880771,2.9417192621810004,-1.1123686730981022,0.23494402792871052,0.20295089936172772
3.526047714,-2.1207076786963346,-1.0774248010881127,2.7947594886229683,-0.6459553563775823,0.29118066786095753,0.22605137966411026
3.726029173,-1.6108529661955004,-1.2964003594891247,2.79252742933256,-0.16043428425561998,0.3732587374539419,0.24548339927163312
3.925972867,-1.0498198353124657,-1.2709443586072804,2.9108156684622406,0.3312925568575816,0.45629049183967296,0.2362372627168279
4.126053031,-0.5475469236858491,-0.9518096794197188,3.01985186433397,0.7636977755879568,0.44060149798288273,0.21708319087868533
4.325973612,-0.21270303689588477,-0.44574662967425455,3.185691970400725,1.2026223035696337,0.469088825424354,0.11193452482472366
4.526015221,0.0069783660839553615,0.16885757264282572,3.4033874926409027,1.1750220897810404,0.47033914160539664,-0.10394049044875973
4.72600603,0.3559516136544605,0.7766395209322279,3.4173116162870385,0.8302637690226593,0.37346822469772106,-0.15694851757024075
4.92602987,0.8917406503876675,1.184804773184837,3.332973293270921,0.4251440455182008,0.3600122792234869,-0.15349851147766289
5.126045662,1.5069520297917849,1.3548190222679228,3.203562730082028,0.03928551683210475,0.3530743240844996,-0.16726502042381625
5.326014141,2.104572576646608,1.2628515296076661,3.047890098094106,-0.3741308521392634,0.31075451089382305,-0.19058961434141225
5.525966697,2.601003759570224,0.9568853400883819,2.9339875615869953,-0.8440328161132853,0.3416824748246193,-0.19570165396068231
5.726030443,2.885039842129599,0.455876166127608,2.8718887217103406,-1.2868002271357668,0.39109437605379904,-0.21910253551864423
5.926067514,2.928889827308185,-0.11697977690821797,2.8552467075124617,-1.7399922404953818,0.41996650361041205,-0.21602975961090207
6.125973605,2.7412752623883034,-0.626480499669666,2.9104474406050724,-2.22046816489349,0.43809101638086057,-0.21815689843226493
6.326046913,2.2642963468043615,-1.0230691427128664,2.956829605709284,-2.6688997255515527,0.4698496096389452,-0.2065282372294457
6.525970729,1.7118606961117047,-1.1603141310458982,2.992538875121557,-3.1320830544560154,0.41937156544450327,-0.20490723905372407
6.72603346,1.1261538779517795,-1.0735479546858069,2.935953921465927,-3.5864978012689384,0.37859700716497335,-0.19860897410504444
6.926059963,0.6690917364211925,-0.7266109176769585,2.9225998230295267,-4.025428310921702,0.3933810465779611,-0.21323398941044597
7.126056289,0.3556672917539208,-0.2278152183319187,3.0658507977480958,-4.337299671591804,0.4563206165888525,-0.057324931761608425
7.325968653,0.1416550234734878,0.3833040381923647,3.3157395469207454,-4.268791688993164,0.39322320059720317,0.10626905333476473
7.525986639,-0.2601223437737146,0.9300332911567223,3.3723243834898358,-4.005590861873894,0.3314106469979662,0.18868629159455372
7.725981206,-0.756107056319695,1.320922537809858,3.2026038916320094,-3.5158758743272083,0.3398669924868328,0.2065379387428313
7.926043292,-1.3848216672797131,1.4292302991083663,3.187894239681434,-3.069551753044126,0.43265485192340497,0.1953190227448016
8.125970275,-2.002518045974816,1.2848145905884774,3.25519724177968,-2.6454265887093533,0.41623982633564416,0.19164378318060254
8.325967862,-2.5292101104042874,0.8843485731894568,3.2107555305951805,-2.2192460500988322,0.3708174494839045,0.1952098625122463
8.526061055,-2.7868771319166963,0.3219408036739495,3.19160914794886,-1.8036639093334876,0.3530271376575597,0.19357451781640964
8.726022087,-2.8203845267997814,-0.32354887320414594,3.078186314953701,-1.3698262239310621,0.2737582776135665,0.20294367711654
8.926048588,-2.5993590708537786,-0.8538951005268838,2.910320400880714,-0.9067095833960207,0.282554684695633,0.22026852017556495
9.125970719,-2.1551821797876514,-1.2322517990024497,2.8364084976797987,-0.4315938688992831,0.3582988955869807,0.2434191133539789
9.326055615,-1.6101747817102792,-1.3406932566570056,2.8994085702014774,0.038598926929780744,0.47604504006403553,0.2481004738284428
9.526027539,-1.0345703194746099,-1.1866846873498702,3.0320222125967136,0.5171757403999809,0.4628735881700316,0.23269189014370079
9.726053436,-0.5893579917608367,-0.7788547264330632,3.139117369056648,0.9612103727586329,0.4389930340455101,0.21716622913185826
9.925969733,-0.27138348783472793,-0.21023600659618763,3.3791992030096973,1.1809631056331016,0.47702778171575266,0.011856189568632203
10.125971983,0.033134877193649666,0.41071474833922056,3.522479109349459,0.9794704554533386,0.40841684609417706,-0.1285097407335432
10.325971600999999,0.4642139877391695,0.9208081165365998,3.4341600276241997,0.6224697615927198,0.38955037362787,-0.1532518580824308
10.525967633,1.0745743611890688,1.2374122775670449,3.316178741397504,0.20917988918819588,0.34706676424600663,-0.15349031739407273
10.726056638,1.7267762825943052,1.2705854143491153,3.16111116015205,-0.1732393955189001,0.32734530028536873,-0.16578415941082233
10.926056643,2.288275877480552,1.053064288341496,3.0111580978780355,-0.5884519913681887,0.3527112205913189,-0.18987770407254845
11.126045415,2.6950913677223496,0.6384515124869408,2.8493207874284328,-1.0233949667453528,0.33756123735624743,-0.20880835824293287
11.326042617,2.874995441881299,0.08061570597274889,2.8127858291768386,-1.5108331375589814,0.40470237658660724,-0.21687933733237036
11.525968855,2.7826685032736482,-0.45119868576712646,2.8112765953754586,-1.9747013887894747,0.4259818349555329,-0.21684913011887608
11.726019148,2.4205743185538213,-0.9112613066722721,2.9078956201330546,-2.4467716113702447,0.4384069641343303,-0.21235618703029902
11.926039678,1.923764298319449,-1.1800079822632727,2.9508206717781573,-2.9505180641254807,0.44514065650417933,-0.19714671862947153
12.125972651,1.3410010665483938,-1.2024858965815255,2.9391800645203747,-3.361054389520749,0.3957985311675203,-0.1944336874775022
12.326016722,0.8019686214818352,-0.93442096022607,2.8918391661811893,-3.8215500460677014,0.3794918814152975,-0.2005824867582492
12.526020958,0.4591924501544441,-0.5163116186356508,2.8755408260712008,-4.243806064723045,0.41721601599401587,-0.17921597607529036
12.726085872,0.2395821498953996,0.05653182929645943,3.2354248776676537,-4.390034082395813,0.4738778828507858,0.06133493514448446
12.926008306,-0.05056719569134438,0.6594498066585422,3.3499111047705026,-4.1891645898531635,0.3514323740364557,0.16552653363698755
13.125971173,-0.47104212531072676,1.143423199471477,3.264646418617526,-3.7333992295339993,0.32197434422455073,0.20054163359427676
13.326058473,-1.0433290205811352,1.3975265250272149,3.1485468467218523,-3.2721024795272475,0.40758612098897345,0.1874777253702768
13.525976834,-1.6974979950796905,1.362675894660577,3.240103410946155,-2.8658027410734106,0.4562769601344668,0.19200193261282522
13.72597294,-2.2423714328176945,1.0809338670649087,2.974899239274463,-2.35436824426392,0.32954966838460076,0.2106694919792123
13.926047946,-2.598327190322794,0.5815832073285138,3.152787615910277,-1.9894680590314993,0.42802383319601817,0.16884239875163787
14.126053995,-2.724718451514688,-0.025975091828960635,3.171641047646945,-1.5732177096058193,0.32713162237992777,0.19801675702612748
14.325971306,-2.631119479820618,-0.6218990118412727,2.955282375175632,-1.1028741845267387,0.24663551949815246,0.21756786946542536
14.526031116,-2.258531492686144,-1.063556042811376,2.8028230209052065,-0.6364586364077697,0.3164038344018361,0.21987922652145472
14.726067562,-1.7665979100070703,-1.2827560972102887,2.8264862599015697,-0.18565881150503916,0.3945729163031777,0.24233115021615778
14.926048297,-1.2011781681251443,-1.2600526852947052,2.941697212702399,0.3114056646895343,0.44238694540792206,0.23325393707344183
15.126059737,-0.6690611648327509,-0.9409296271822922,3.0682187756133383,0.7815680452885204,0.45334380582548045,0.21427799832955496
15.326058386,-0.35106110550159025,-0.4458341937005162,3.1627068957820557,1.2011677130669025,0.45471157720775995,0.11927934797377562
15.52605778,-0.08573392048409446,0.16085309295098107,3.4148401959138974,1.15019372619383,0.46408520277932425,-0.09410942091284075
15.725999357,0.26880539261918135,0.736388923537109,3.469396090571157,0.8161659478231913,0.38628416031857454,-0.14149087954236786
15.925967021,0.8419787318886802,1.1749909723646925,3.3493269732762103,0.39838996674648575,0.36565329269481933,-0.1559067845155843
16.125970298,1.4646432782729126,1.3589224500108814,3.208344247680412,0.012653009280272864,0.34871098021649355,-0.15894185567173785
16.325966567000002,2.062066396398676,1.2494191655691274,3.0683492014589664,-0.3738711109669174,0.32048371315694135,-0.1825952781301806
16.52596545,2.5402134245884893,0.9106152540202843,2.929523521341189,-0.8098832775795488,0.32166612726802546,-0.201064127243078
16.725971133,2.8675076309902168,0.43943244636374,2.8382654024893026,-1.2893522034121638,0.37777790516011794,-0.21842255601935262
16.925971867,2.8861022688354363,-0.12197599062381241,2.830984147815258,-1.7817967546161544,0.4221866217671169,-0.21700701170414657
17.125977296,2.6805868063544747,-0.6484619804940058,2.8826383248761966,-2.2233975403429063,0.4411320646933616,-0.21214629251030898
17.325972746,2.2226616556135284,-1.0046172781962466,2.948298031175359,-2.6686960657583256,0.4512561292507745,-0.20312048165869137
17.525989749,1.6619521118585843,-1.1658716520046761,2.9632379374604843,-3.1226283954186,0.4030183121657202,-0.1979209700053046
17.726054563,1.0602989160523908,-1.0690811005777303,2.9254638690808026,-3.5740844986483205,0.37629141170006364,-0.20043082605891432
17.925989068,0.6121897191251279,-0.7172646230244332,2.8993645485767296,-4.0268066625093955,0.39138344136273384,-0.1915029663298913
18.12606949,0.32400485462163775,-0.1954411851219151,3.0751743293339167,-4.360381678311576,0.46373120363336123,-0.05522913571963285
18.326052064,0.06837310471821591,0.37920435299919114,3.329925834547103,-4.2819923419932815,0.4081299198084889,0.10967642318506406
18.526028691,-0.29816727651233443,0.9657743518051548,3.343294257020214,-3.991060800243506,0.3076527084057273,0.19366630534055362
18.725966401,-0.8139098512005635,1.3255158420611983,3.2154245183604555,-3.467537644427356,0.3457671156300049,0.19840365477357014
18.926070001,-1.4383564670279252,1.4363503923768026,3.178257680699673,-3.060206995112571,0.42966627703315585,0.19082641629134417
19.12606137,-2.05088393796874,1.2605849355298,3.234732200005981,-2.655949719716868,0.4138572990467168,0.19054491985835065
19.326055428,-2.5502850985548475,0.8626010435036497,3.2191530536177506,-2.2001451882193854,0.37923652133282826,0.19196201034827057
19.526037141,-2.82103647203305,0.2938768569382363,3.1285613144963964,-1.7585640591194072,0.33782168483775865,0.17907339686965437
19.7260603,-2.8317373282174145,-0.32833050811335346,3.0790576442143642,-1.3230736452184013,0.28891242441116394,0.19143905722210036
19.926055403,-2.5908074611930876,-0.8723931972566912,2.9474951170398853,-0.8529236834071484,0.2901578512396785,0.21974901868388325
20.126016573,-2.1331890474873494,-1.2299194493291823,2.8451955768080293,-0.4078701259107135,0.3387176296149619,0.23567673811621934
20.326054321,-1.580273589898208,-1.3246398210959847,2.8980977510949657,0.07222863841139807,0.4303171660041841,0.23655157280343223
20.525979411,-1.024142502536783,-1.1726061904156995,3.0243962957615973,0.5552248620234189,0.4613931403143049,0.22322335376071845
20.726045616,-0.5763802574877545,-0.7546633420545723,3.1244284691014257,0.9945789418329809,0.45519275300333845,0.18271435183229545
20.926056675,-0.2907996637448126,-0.16213259630232213,3.3564520749217635,1.198732144539689,0.49932292624921903,-0.010426888054456063
21.126036707,-0.009843984050221865,0.45226686471329136,3.517404368761862,1.0034804540237452,0.41455278419850794,-0.12878187418937706
21.326053722,0.4300910667350091,0.9802641198678136,3.435369459101906,0.6556698744015705,0.3643219242674322,-0.16210553200569047
21.526050214,1.0191464610103762,1.32650376062001,3.3042672321353965,0.24661182852739363,0.3663246628819292,-0.16825752277662187
21.726030181,1.6369182270416067,1.3597300924378497,3.1687541668643777,-0.12797925945483482,0.3394720774660947,-0.1749897357154465
21.925996919,2.262930673019542,1.185254632605155,3.0067773015830768,-0.561121077609109,0.3174793978835027,-0.19759283219240592
22.125973412,2.6594604675527918,0.7709179667829767,2.9169913815213118,-1.022234782845672,0.3596506849301976,-0.21526448096843642
22.326054535,2.8385280201616587,0.22269673723319924,2.8417317433984857,-1.4858661555258266,0.39423645745384156,-0.2265243669662999
22.525978164,2.786455822828785,-0.33606971368791777,2.907432991185692,-1.9497142243977081,0.428394719953173,-0.22282516871893232
22.726016614,2.458886442114703,-0.7859819577114074,2.9033108051809298,-2.4274127207364824,0.4497906791889643,-0.2190521091257062
