time (sec),x position (m),y position (m),forward velocity (m/s),"heading angle (rad), from x-axis, positive is CCW",throttle (unitless; -1 to 1),steering angle (unitless; -1 to 1)
1.125339672,1.027706459852167,0.5113065154392212,3.5465241525911018,0.5708357081078667,0.3523471019878397,-0.17251519324343756
1.325344707,1.6232341225641003,0.7674171371686542,3.3730431133416383,0.14855242996995446,0.27823222756000704,-0.18664395506541254
1.525362306,2.2851512545811374,0.7451403351372212,3.211483510805481,-0.30706080404568253,0.28943402903677584,-0.20130808988773136
1.725344635,2.823353595057775,0.4824360338416469,3.121730575121223,-0.737939775621314,0.3767076489185953,-0.2342290150980938
1.925364381,3.16481786199076,-0.06917298792030581,3.0755418157226164,-1.2661622213828072,0.4516178327978617,-0.2383468346147468
2.125346618,3.2136497583921626,-0.7114153431271502,3.2075736714719585,-1.7744877674662574,0.46963903121567996,-0.23340370353695697
2.325350491,2.9760087446405548,-1.273821364236026,3.2821386501483554,-2.2278456696921185,0.5255265080743399,-0.21960900687303947
2.525343301,2.4690292153652353,-1.7287654976727684,3.360974672486258,-2.693952474317357,0.4780342472554318,-0.20757874580868774
2.7254374180000003,1.7996339244604116,-1.9348246461442125,3.4117548080930793,-3.125010766623608,0.44800171888553086,-0.19936439623600533
2.925348725,1.1588461077382273,-1.8255303599075776,3.4220126961827138,-3.5228966335969196,0.4100418239492111,-0.19688407293755322
3.125337725,0.5781638264044733,-1.445505898397472,3.344601069163376,-3.9967687811414163,0.408007381126923,-0.19374904225180745
3.3253925840000003,0.2183850058596149,-0.924318452451514,3.5128686739056207,-4.326725903420505,0.5468061108712177,-0.07317651233053779
3.525349849,-0.05945493248560416,-0.2538147588526673,3.8505167449464004,-4.295687049053122,0.4160298196691082,0.06677952895598879
3.725354229,-0.4507672118933534,0.41926148970496935,3.8481126305455065,-4.014229992638578,0.24235481421783742,0.13351316835251845
3.925355695,-1.0515332125179389,0.9321319109095819,3.560397380537415,-3.5680354681217286,0.18370567077635788,0.16240718268404924
4.125340341,-1.6509389154566863,1.1050591070142533,3.154298777991212,-3.075966252447836,0.23633332842780527,0.15863031178989018
4.325346752,-2.22550737233704,1.0023800622320176,2.8658616663252423,-2.648848972057243,0.07691107686225677,0.2625782641772394
4.525406746,-2.6249254907965365,0.6238253951117683,2.8093308751943966,-2.1162704841369515,0.5307618982013599,0.1667698399184479
4.7253770280000005,-2.8432059435875945,0.05270060405633956,3.0901480008915483,-1.7113396364729125,0.4388544497002824,0.17875725230726056
4.925363958,-2.79569545659017,-0.5373326918428515,3.148231114858109,-1.2567665179455896,0.39572007006931936,0.19693899808942722
5.125336041,-2.4872047532854134,-1.1081622461454972,3.1296200311158433,-0.7739495066308459,0.43563663839993466,0.198141311439548
5.325343866,-2.002178133815845,-1.4326692706374429,3.2208201748178595,-0.330981510828487,0.45768212835773314,0.20300585305261643
5.52534805,-1.3552827013693478,-1.5431387254640925,3.261325595141133,0.10148775783905267,0.4597054986697994,0.19843545345328173
5.725392951,-0.7069462534245355,-1.351828663267831,3.258792032635228,0.5784320716234665,0.40289517271174385,0.18242654378080833
5.925360727,-0.24120790543671136,-0.9044991033040517,3.277168700349147,0.9959283334040008,0.4240448488587739,0.17398299061570519
6.1253364359999996,0.02906665123042414,-0.2678132371426595,3.449791437002185,1.2803964638869483,0.5488219855899156,-0.018720937810906405
6.325409377,0.2758449216714588,0.36223362188603847,3.656134616545144,1.1001797234968078,0.41919290493591815,-0.13365907937555757
6.525358968,0.661937477461645,0.9621909449937447,3.5718192462674043,0.7700860089636808,0.32539638688114436,-0.16837773015460897
6.725419938,1.2373174513820089,1.3373324121952719,3.4309611398864908,0.3012711855465108,0.3308235710355378,-0.18226835048620232
6.925348033,1.8951859725757476,1.4400750611328967,3.305605248930606,-0.13334917373369565,0.35562117931579895,-0.20177162619409064
7.125442078,2.549430823470374,1.2273004407000565,3.2649778216262284,-0.610986534408892,0.4193679326105838,-0.21617871649590434
7.325364694,2.969938325865722,0.767321684574108,3.2832279672295903,-1.0272427649716516,0.4445310323148104,-0.22444821052900218
7.525355971,3.1792452984622908,0.15762798941337144,3.303964468645684,-1.5030650704881967,0.45193416002478937,-0.215823440204868
7.72543704,3.1076595037412607,-0.4758673334296317,3.38645143833566,-1.967660464833304,0.5048485757362247,-0.21450507284466136
7.925368079,2.7469965478428446,-1.0497947531479588,3.398525893533409,-2.4083460691708716,0.46531215549437344,-0.20280266662856888
8.125336238,2.1447861924918876,-1.412897823393546,3.443100524046906,-2.835560482868629,0.42796758956831604,-0.19986578029682128
8.325347076,1.522665413327156,-1.5216407404265693,3.379609255324659,-3.255400948741082,0.38346440470128634,-0.1984796424723568
8.525345537,0.8641376352800333,-1.3271198476952817,3.3180482348594786,-3.7118882029093045,0.36283913063849826,-0.20107891113434637
8.725345397,0.3666585486226447,-0.8749702124409678,3.286590197495469,-4.124781228388998,0.43996842312766954,-0.1705275280162496
8.925347327,0.07445968718156183,-0.28168393981644846,3.61757943355016,-4.290289788152024,0.48652153899169087,8.507574179937669e-5
9.125337338,-0.3139459344832949,0.4121790810269502,3.7928018425455057,-4.12365171136921,0.31339814916557673,0.10099432245826216
9.325350649,-0.772175815395369,0.9629397622474382,3.6820052477717953,-3.7939697152102623,0.19847429790615542,0.15283112789748632
9.525348712,-1.363176570088342,1.3034643999820479,3.353795765353963,-3.3224027422928235,0.20571287946723169,0.1686417053904449
9.725450031,-1.9861467708578062,1.3117480797323124,3.088850704759659,-2.876689984989715,0.2998529227804492,0.16805713064048627
9.92544117,-2.544652637512972,1.045415041443293,3.0644480613102028,-2.4256946125283956,0.39915823341814566,0.18831466715806663
10.125335498,-2.932609121914848,0.5393351350037269,3.1191495485762886,-1.944886261377993,0.4164117177335039,0.19694486783658732
10.325347023,-3.0387524672174466,-0.07076145847624582,3.1006540581365925,-1.496243721615899,0.4252132309904441,0.1920700609060708
10.525352833,-2.869354420253686,-0.6682381867574867,3.2070504668559567,-1.0739010252344834,0.456641197961077,0.19349402851428907
10.725343176,-2.4612932436433006,-1.1447178496735717,3.251243891353186,-0.5986244925571159,0.4427510235565995,0.20637313548541666
10.925371182,-1.8664360773752111,-1.4003162152615343,3.278768841555901,-0.16213723382996337,0.4593510791160511,0.20779471296416363
11.125333871,-1.1801610456963416,-1.3665893378621314,3.3227745011684116,0.32818655404860275,0.4272584267917479,0.183031090705862
11.325358604,-0.6285861111697087,-1.0701007905013822,3.271964114431148,0.7390801098710009,0.3947493654901807,0.1923462696773427
11.525423570000001,-0.24835221371356717,-0.5500403892213707,3.328894908550682,1.1395113051856054,0.4780764661200076,0.09578680502660081
11.725359794,0.029986715782654626,0.06907656795947517,3.624569277181694,1.190377890068485,0.48873059575605654,-0.06558863161402954
11.925350008,0.3503556184059981,0.7555685921560754,3.687319797244684,0.9430912493005617,0.3612162037456634,-0.15569836412328097
12.125336549,0.918792049371322,1.273169983019039,3.5782666900124185,0.5305541331534698,0.31842640132580646,-0.18674241796470806
12.325346644,1.5027939579323735,1.5185594198364563,3.4182278490207914,0.1135989284951723,0.3375566778298475,-0.19752391618344034
12.525343234,2.17473155339541,1.4815058667069771,3.2908963198209866,-0.33004291498860355,0.36791181099905335,-0.20576338157007393
12.725406328,2.727245949973977,1.1400538391433206,3.278446090482011,-0.776582428504417,0.42802534248287316,-0.23092693339255882
12.92535045,3.120591440669557,0.5982086997471991,3.3333515650378027,-1.2304345844217932,0.4572739573301832,-0.22813849289133747
13.12533656,3.189174470171648,-0.08259814922156358,3.3540979340520907,-1.7165879122583665,0.48088402724186924,-0.22449878480977628
13.325361381,2.97458748407648,-0.6813325871969494,3.4211300610596247,-2.137441591457297,0.48386263812548386,-0.22208352807318252
13.525353968,2.5346828501030547,-1.1934807822375315,3.437954569218151,-2.578221007967009,0.4481524159791996,-0.2071594323503275
13.72536184,1.9010689412262678,-1.4615921422667648,3.44842703714759,-3.0089489718211717,0.3839162163190106,-0.1978590903065294
13.925354456,1.228199827804462,-1.4345642823503424,3.3438833480606247,-3.446182248211898,0.3626081946860977,-0.2010409391658533
14.125337307,0.6097460496494344,-1.1020688036258683,3.2820224592338696,-3.9099288451493006,0.37416066705507545,-0.20300344457330366
14.325435159,0.2333132007200389,-0.5721595533724404,3.4372965380887126,-4.255001102255389,0.488530477021798,-0.10153097527493532
14.525356115,-0.10039775577002909,0.026012280009573358,3.7795587949904923,-4.210750373259765,0.4212597068408661,0.05360345125921796
14.725341735,-0.518494446812839,0.6583231410675555,3.7940988787166288,-3.977360378857317,0.24804620002329283,0.11893577114887374
14.925347644,-1.0879169486784834,1.1249082558343937,3.5139323196428554,-3.553052707276978,0.17320207521659706,0.15897188265174805
15.125340508,-1.7314980107690812,1.3000192726900217,3.185340023629039,-3.0702588753486055,0.25800868100140173,0.1546888143241777
15.325358607,-2.318120870092155,1.1643047314101849,3.0556147825415874,-2.6583572610796744,0.330792790977565,0.18254341886406375
15.525360684,-2.7689516671284626,0.7913945146891284,3.0374596373998446,-2.205007120740461,0.4132304997395299,0.18883532410380968
15.725346074,-3.0278302208096153,0.22059412136644244,3.098793981113086,-1.7527674162788565,0.44413883843506274,0.18615297078791526
15.925343875,-3.0056875387282997,-0.42976397714180337,3.1912444776511286,-1.2621400595454828,0.4165292916884966,0.19875029101165595
16.125339086,-2.6689586868242148,-0.9981637017334372,3.2004255796281615,-0.7647343472637845,0.45853914070673185,0.20415935599440166
16.325339125,-2.1496245064394586,-1.3668826445709676,3.273849875735112,-0.3488050660494016,0.46740800335726085,0.20507421741109166
16.525419471,-1.4965183809011224,-1.446829667622703,3.3120878548178725,0.1341998646885041,0.44395276270683715,0.19512834402991544
16.725347002,-0.9128078527709188,-1.2778576725736879,3.2966941759720743,0.560333659278301,0.42285299691859857,0.1798686691891577
16.925360837,-0.42050826451846396,-0.842748606332143,3.2676610704145457,0.9740916482402998,0.425668036231844,0.15741317902048316
17.125397782,-0.1275502177738879,-0.21832579483518685,3.482499075556977,1.2358226141755615,0.4960421411138799,0.0017851020404640212
17.325358947,0.16265765749641994,0.4247001028620215,3.688367968439655,1.067549529989141,0.4335849936842013,-0.12859775609155102
17.525371107,0.5841277457806003,1.034275782537882,3.6289961351168443,0.7289477514981284,0.33873785365005116,-0.1693057643508407
17.725349119,1.1593204037448923,1.4097433112379376,3.4435254191001183,0.2860712365364604,0.32331234293623246,-0.17637189212317253
17.925362363,1.8432178381528606,1.5066156490484002,3.3489010241789057,-0.14292825283253557,0.36628758587170057,-0.1961792327354091
18.125335264,2.4752866096865604,1.2644238682918132,3.2916329505944173,-0.5767067224105129,0.4056858798430261,-0.21140368204662063
18.325367941,2.918868833854873,0.8445139684092671,3.292069015894178,-1.037539583698357,0.44270493037736564,-0.20907447973903212
18.525366896,3.129481841014434,0.22559290731481113,3.323678458286378,-1.5034704431602703,0.4631838509723536,-0.21620592469559755
18.725364304,3.042968475689643,-0.439954987530253,3.376747830226329,-1.9508824789209047,0.46704230340948855,-0.21569623832705243
18.925354786,2.6914502127381694,-1.002291346950426,3.3899773933910082,-2.396445793275567,0.4574539952050283,-0.19814935714178403
19.125339068,2.104628250933369,-1.3998353018876772,3.4496404718082894,-2.8646034398658906,0.4479656417871789,-0.2009192687993977
19.325354889,1.457419520368415,-1.4786366867871914,3.365360220638698,-3.2620951779116236,0.36640927714614246,-0.1905002187887733
19.52535451,0.8320593973301412,-1.2732613560311314,3.276332858526807,-3.6880904976005118,0.360871190683432,-0.20046932636479056
19.725370032,0.35026178737291586,-0.8558379522180624,3.2575455631845296,-4.148170249308392,0.4225262796140229,-0.19130419261412795
19.925374532,0.026580441389100717,-0.2100801180519395,3.6045985456903518,-4.298059867158097,0.4866912169871705,0.015290940020448918
20.125335654,-0.30204352791546124,0.4607943458459133,3.7526292429851194,-4.135528131676743,0.3205551241641611,0.10532822444848378
20.325346731,-0.7495542751977075,1.0135158253823426,3.672070052651704,-3.8151077437978476,0.20808885695953255,0.1505874109298445
20.52534656,-1.3405639469560624,1.3214476526935273,3.3155933577565313,-3.3306295586923675,0.201405007979966,0.17278034177276225
20.725345494,-1.9865396281421648,1.3479469041950844,3.048713797876062,-2.881369842309664,0.3208600705069622,0.16684657150655108
20.925359274,-2.475015064732338,1.05973343938817,2.760054100159765,-2.322026672477686,0.3257385141605074,0.24012313194596455
21.12533824,-2.824370062610302,0.5496566402873907,3.06442079286842,-1.8903070984611494,0.5351848184890914,0.16443264950221512
21.325347772,-2.867512543699156,-0.02820526613564488,3.2606868842731846,-1.5100137490139542,0.442262987561442,0.1860329113639378
21.525358853,-2.719148581288728,-0.6709722806711683,3.225933789825109,-1.0335040854682143,0.39274922704541204,0.1953325911811129
21.725351107,-2.3042057108076373,-1.1430831058872424,3.1945713851820807,-0.571867840450291,0.4544833442980531,0.19371247287848398
21.925360703,-1.70960877370884,-1.3475772560244828,3.269160539975271,-0.14289088639935824,0.44329097650121585,0.18859804639895042
22.125337873,-1.039987314640977,-1.3288153750945666,3.2521127215634444,0.361372961271677,0.4162773573802647,0.19001682062961392
22.32534902,-0.5113854051520629,-1.0170673743337135,3.2428245616804734,0.7762027593513137,0.41340888253567226,0.18318806158333417
22.525346206000002,-0.10934432469684303,-0.47792904935312175,3.306547453903664,1.2127150707968941,0.47010958108153195,0.10794467997291053
22.725348258,0.10221971788610176,0.1447136758046868,3.556138640239283,1.2210427739866248,0.4828372018661513,-0.08601315064581143
