time (sec),x position (m),y position (m),forward velocity (m/s),"heading angle (rad), from x-axis, positive is CCW",throttle (unitless; -1 to 1),steering angle (unitless; -1 to 1)
1.132221046,1.49140069398249,0.9152951085902399,2.690700272277461,-0.3298893847714396,0.4227044119670413,-0.24819194540568693
1.332211641,1.939021187050642,0.5867813168462017,2.685776536651237,-0.8354632141296952,0.37377676298688417,-0.22401122546517946
1.532211562,2.1961372255849563,0.13927444645948353,2.669842710452622,-1.306962109957533,0.34338542895269664,-0.21675234851833552
1.732232516,2.200440426726225,-0.37966371072667354,2.6151100092997575,-1.7590440882748413,0.360550620425084,-0.2217788058192038
1.932220641,1.966119309257102,-0.850008863556026,2.556760065877134,-2.2169686333967484,0.3345820070665635,-0.22708226212905203
2.132212314,1.568781366148232,-1.172596881294092,2.5717810425374887,-2.6821485177789315,0.3513924298105096,-0.23762021456215351
2.3322107340000002,1.0836449929524465,-1.267599781299396,2.5816409632347583,-3.159795142626433,0.3758621469517351,-0.23237047840440758
2.53222229,0.5938345282338205,-1.1174065417330854,2.5947016894096837,-3.6461623882510463,0.3761103564699075,-0.23164814662122407
2.73221338,0.21244642510725328,-0.7675716207086063,2.6444847881099482,-4.121644584873471,0.402301376889327,-0.22989475245427854
2.932212658,0.0017059677242587871,-0.25557551126705863,2.8303936920919837,-4.441320868868315,0.3992086954700691,-0.06906579566815285
3.132244605,-0.18181016715841444,0.28601901780731764,3.0137494366991344,-4.3614157355050125,0.31780378093128653,0.14828362255643474
3.332212259,-0.48780043364986314,0.8207140797630775,2.966969671775736,-3.977161532830531,0.30529309837536234,0.22272285604298017
3.532219334,-0.970890185330679,1.1292913565609004,2.9039573264473906,-3.5003186573140974,0.2973690612214972,0.22656412697224368
3.732268613,-1.5245812049293495,1.2141126144681447,2.8085930099381127,-2.9800920951618104,0.3322845717494069,0.20990043941029835
3.932212515,-2.0434936162425807,1.0119696880122964,2.828006722681945,-2.5484928622326333,0.3453992570746317,0.19236187661761395
4.13222727,-2.448738032036219,0.5882760290454234,2.857866815597893,-2.139028642407756,0.3137900940672872,0.20787711355887448
4.332258983,-2.6142986099756675,0.05988255770287961,2.832195353326554,-1.6942494161435036,0.3085423949393693,0.21966011257365856
4.532212685,-2.5395816172790293,-0.4975403883495523,2.770055873855086,-1.2069904888518956,0.33161416078544886,0.2281523145070131
4.732215781,-2.255393258638694,-0.9644282249894109,2.769983376214693,-0.7211476477909399,0.3309023078023951,0.21188715503650632
4.932216713,-1.7774081043152852,-1.2194573245673552,2.795252971553772,-0.2963201288096764,0.34610842812093706,0.2161305431277632
5.132213407,-1.2165006728894008,-1.2508112768816662,2.808065440440744,0.17794616043506795,0.32547239252311666,0.2169440314110416
5.332264743,-0.7121865315953527,-1.0303044337191256,2.774833552400296,0.6340080775071811,0.3361417906829143,0.21814376358202214
5.532224884,-0.3560733995015075,-0.6049270855915132,2.8138150040920524,1.1026118045789255,0.35480589141884467,0.21986803581948197
5.732216151,-0.15215477932505195,-0.07717589184487086,2.927874508294878,1.3045568695476115,0.35205655489140586,-0.008456846399370587
5.932217468,0.05717404638902295,0.4862301602823649,2.9801749649762757,1.07773148985098,0.3204842767008168,-0.16319897388896318
6.132214993,0.42700650897202436,0.9533318285624782,2.9023710599801684,0.6702646321796348,0.337735501166681,-0.21168252154912948
6.332203216,0.9300143874412594,1.2009029861532052,2.831066200494594,0.20647620077514706,0.34585285508320274,-0.21225487289438416
6.532219896,1.4999487643730378,1.1890742319349972,2.7768001876238735,-0.21400871852700143,0.3678143031680216,-0.20602835357910065
6.732215854,2.002227121572609,0.9694741717219592,2.786673299881997,-0.6585267255657048,0.36896702472427506,-0.20656022524162723
6.932218667,2.3445695053759814,0.5233293855261301,2.710265541930277,-1.1174641697168726,0.34930908792245935,-0.2146993720528899
7.132211512,2.4466849846770042,-0.009394713977922284,2.7198802947476515,-1.545151077813689,0.3488580077168929,-0.21985449551749517
7.332212208,2.3646407188878458,-0.5104294398090711,2.655331285119928,-1.9878748713501821,0.34244770547887604,-0.22786701358222827
7.532219642,2.02874875994187,-0.9299455968152436,2.6469848440567354,-2.4708682153195882,0.3547607938133001,-0.2292229627022004
7.732225979,1.5391428090374553,-1.168255674058393,2.6536682885473097,-2.9376516172728,0.36750648363128224,-0.23393406762371938
7.932243397,1.0144727975028693,-1.1405438289580934,2.652301562626397,-3.392390283123889,0.3670195186036055,-0.22971834144157524
8.132215538,0.5501279271370151,-0.8845488984322104,2.6727503943693676,-3.87103682030896,0.37483055188402237,-0.2298273789972983
8.33221677,0.2609667277286532,-0.4707534473993185,2.6922062494683323,-4.307250492461119,0.3930792442002432,-0.2024139787497177
8.532224051,0.09465523134034783,0.08203507919195097,2.9664346969700763,-4.412617560300568,0.3706066798353926,0.062018670142067876
8.732212812,-0.16642110990733502,0.6306209623685485,3.0236228412096082,-4.164100056986211,0.3096812098284333,0.18924787848391167
8.932214177,-0.582950101276022,1.0448210869188497,2.970936229197524,-3.675218198762594,0.3032327224919066,0.21278580743634548
9.132220344,-1.1121816638494837,1.2218052559579051,2.8825339816678324,-3.225445251027033,0.3244851865488871,0.19756646163027075
9.332213733,-1.7003718971459199,1.1529488324810735,2.905849407298428,-2.768514879773258,0.342994682546781,0.19737414311498916
9.532220513,-2.1665151332213033,0.8268530035517985,2.8425538298477315,-2.3074161933255324,0.36608711212659967,0.19509854091786097
9.732221404,-2.446695706822408,0.3123310426533033,2.941907334443604,-1.8840303850294935,0.28572881512770837,0.19639387896204136
9.932213766,-2.510390732712693,-0.26878921192850375,2.849970254134417,-1.4221526782024396,0.2773816915212187,0.21065457916844138
10.132214643,-2.2996305102541403,-0.7746867988657026,2.7738600011050587,-0.9705144775930122,0.29660006161444247,0.2117067353493816
10.332214065,-1.9002679138926712,-1.1300065048853536,2.761392967065321,-0.49779756909593403,0.3197062686088274,0.21142680332693561
10.532301398,-1.3956233568920215,-1.277369879270887,2.752884303193843,-0.03506600155346129,0.3244754385073596,0.2155505163232289
10.732211799,-0.8586019515283522,-1.177170928568731,2.7703839875619836,0.4259415357689511,0.33013825671568653,0.21015495636140047
10.932269025,-0.40454724189648844,-0.8284497858421492,2.839149002558953,0.8717856169602365,0.3429874250414923,0.21746522022860879
11.132220428,-0.14726414582986033,-0.3322912498690181,2.841277953292211,1.2970060900000504,0.34466780009576103,0.12094082987009674
11.33228441,-0.006031837468526116,0.21251034754517356,2.949512056136442,1.2365711838268343,0.3363059280400515,-0.12260607918828517
11.532283434,0.2521403487702305,0.761630957687634,2.9148367346778947,0.8952872286221747,0.33621032368535475,-0.2070493435606245
11.732217588,0.71187090580027,1.11454506698899,2.815724741107882,0.438879215333329,0.34234090128138944,-0.2130385231564573
11.932214614,1.236301898170039,1.2111882067847608,2.7790386518839543,-0.024669078843299982,0.37439328274531747,-0.2043526833937059
12.132220381,1.8088676655506324,1.0917665498254965,2.800950272591716,-0.4323157760453304,0.37063511634490354,-0.20133811495231796
12.332219484,2.218639223624999,0.745975356639175,2.7463194164284563,-0.8651511810080763,0.35206104378904896,-0.21295999491953765
12.53221978,2.4850690815101464,0.28604884022277366,2.7202416099383195,-1.3331520169607547,0.35920418528913595,-0.22068143862886994
12.732215237,2.477046898953989,-0.26669172125273977,2.7030214429052344,-1.774189015093974,0.35321446540870244,-0.2201430226245166
12.932216363,2.24586180805899,-0.741347994754962,2.6636095839328235,-2.229273170501355,0.3530880812410901,-0.23136334019782234
13.132220062,1.8354375258609112,-1.0678589955421305,2.655406924387496,-2.6796106559595887,0.37469691603328836,-0.23410684654961314
13.332217993,1.3195533894850313,-1.189266163601188,2.663550360702827,-3.1537266135651016,0.36470316966632477,-0.228969448743752
13.532221845,0.828935327315206,-1.0389580073386129,2.672043657398712,-3.615760027807013,0.3689932940603369,-0.23233721803987237
13.732213203,0.40007932293456255,-0.7204973366188934,2.696260536154562,-4.064535879243999,0.3986993479631487,-0.23486225854846782
13.932220053,0.1869050514306591,-0.22685120138646425,2.819852163572254,-4.417727931000699,0.39343183897264816,-0.07189131750509464
14.132216601,-0.02816049838765152,0.3431649419661431,3.0059775405564757,-4.320134542279374,0.32888932926183584,0.1355009553901398
14.332215388,-0.33293721442469615,0.8435795286988312,3.0132204987344156,-3.9525999500367335,0.3070254604453303,0.21045865961819546
14.532219374,-0.8312452054535048,1.1634290696264542,2.9277949692338843,-3.454158215850392,0.30801187491346493,0.2133885968640375
14.732219601,-1.4117368089806401,1.2168623706302917,2.8547069733093395,-2.9874167110673344,0.34914239858876844,0.19752400130215417
14.932257645,-1.9401262554832965,1.008240492422133,2.895111255737091,-2.5508290172754036,0.32361685030812515,0.19572818775432518
15.132217301,-2.347669359415868,0.6015648395645314,2.877917975736104,-2.1086297363468844,0.3099543596222695,0.19963584535849213
15.332215191,-2.5246827571593187,0.05381196214019864,2.8373240764235623,-1.6565888348908708,0.3137646373526396,0.21066266533062256
15.532221394,-2.4539306263507346,-0.4816185642923494,2.794816029215067,-1.2171634124465558,0.29559107890129765,0.21708443617243792
15.732251211,-2.1636054662400457,-0.9399756520697654,2.732223055564097,-0.7309924660684733,0.31191669261038246,0.21693424845610637
15.932214719000001,-1.6728746087091324,-1.2293248419691332,2.765917907785018,-0.2745169267666327,0.33384012427514403,0.21577203579670212
16.13222497,-1.1226327860531693,-1.2421827238218315,2.752190755199463,0.1856645960728976,0.3255497592376839,0.2192870640930439
16.33222466,-0.6058146904987054,-1.0215537198340583,2.77719895403816,0.62696948297915,0.34068993965841887,0.2153193007640578
16.532218171,-0.24611018357878509,-0.5939536333578174,2.829650869263287,1.1165061236572968,0.35758099203230115,0.1899602739304993
16.732221844,-0.08784577129804388,-0.0659404969715981,2.921649911855892,1.3313182486630502,0.351299860471036,-0.013907275923234163
16.932222053,0.11841957896717067,0.4887901922821251,2.950385088127784,1.086913993760338,0.3264442677826696,-0.1722767441784078
17.132255468,0.4740781852595459,0.9435736318972648,2.8830579856429326,0.6530976560800751,0.3243281472964721,-0.2062088779134944
17.332214515,1.0038661290335567,1.195216994729679,2.8026237888904646,0.18511817405622344,0.3590895159196116,-0.20669926284236945
17.532261944,1.5700418199652832,1.1843565382433405,2.818247105864687,-0.22388313254568434,0.37965182171657286,-0.19684795018644244
17.732214772,2.054820280537711,0.9260489153020622,2.780294830666217,-0.6702544338566836,0.34913176963595904,-0.20741305396774407
17.9322594,2.3970523599143845,0.5245097810107885,2.7425146284171364,-1.084572833265378,0.3484167659252688,-0.21316957023341362
18.132217715,2.531950239523543,-0.00127922062150692,2.7356374279946465,-1.5571582331974794,0.36944155743145574,-0.22255566060362475
18.332215973,2.396624402003993,-0.5167414692263643,2.652900846641487,-2.010290184680702,0.3446544807598478,-0.22913767219874903
18.532215884,2.093903737827096,-0.9538183913884635,2.671886839372889,-2.4846276798054685,0.360032536378172,-0.22614914652484458
18.732219548,1.5879731008910052,-1.159542019963825,2.644323474589471,-2.9317948061106596,0.3625097008066662,-0.22514069270661713
18.932218684,1.07490531578489,-1.1429340499627942,2.6613192978919535,-3.411010879155829,0.3586020352835875,-0.22478413176193512
19.132222449,0.5971028500430414,-0.8835830738911775,2.6803196397952487,-3.858957966720118,0.3796174930229116,-0.22622336719715233
19.332228306,0.2735690806803542,-0.45113391040065953,2.7375246561380444,-4.299243637181611,0.3838356743010334,-0.17502327143951985
19.532217635,0.09227641183073652,0.08579144248983209,2.943569305280171,-4.403927496530123,0.3587728248095642,0.05634630365380991
19.732222226,-0.16792899717476953,0.6261558072694384,3.0603929965017587,-4.160691369833578,0.30752687951215435,0.18488943563410723
19.932221418,-0.5708009558242251,1.0582206800619018,2.9629342473311446,-3.701757152535329,0.29138792785244727,0.21982807504244248
20.132217581,-1.1352680940550992,1.25241890435935,2.9028089401612744,-3.208223416383789,0.33320576985565176,0.20787002441100028
20.332223279,-1.6887470887738252,1.1735457807438243,2.8787003009719694,-2.759156947247528,0.33327601487282976,0.192855888903341
20.532223316,-2.1865805810356704,0.8562355805617836,2.839960593058983,-2.310574502772625,0.31452671980127395,0.19325287613181796
20.732218803,-2.4570640468672647,0.3591063282330238,2.8552466473373896,-1.8753379889771333,0.30756619778455013,0.19919650792455187
20.932215384,-2.5108258015472247,-0.20557657869740084,2.8194724318309694,-1.4441549378210377,0.3002271208624291,0.20819654841171834
21.132216794,-2.320411261500531,-0.7350273476006637,2.7692562167954753,-0.9506519293059863,0.3013096761473188,0.2113438233315485
21.332214462,-1.9012582226410246,-1.1033295757363928,2.758314817336527,-0.532994470989054,0.3225776489537122,0.21156216173799713
21.532220612,-1.3917068972141642,-1.2288848616603056,2.760452493989198,-0.02904146093224496,0.31457131622410345,0.2167534174565462
21.732216938,-0.841202422599516,-1.1281725214058047,2.737146005772315,0.4287700353054683,0.32588349854153204,0.20792416190576105
21.932233715,-0.3991807024151451,-0.7947094375329333,2.7704049653920344,0.8948882487803441,0.3461216723584764,0.21367508613050543
22.132222683,-0.16572319525228005,-0.2925171060605624,2.798163050715724,1.3336596592866612,0.34849931260669514,0.12283726862793445
22.332215322,-0.01680248627530433,0.2583726525117643,2.8987491606183746,1.2380245999387711,0.3454789922703815,-0.13162437666031906
22.532218782,0.25351220385977735,0.7675808604081344,2.881381062547226,0.887448613673091,0.34579996914175626,-0.20067529663060216
