time (sec),x position (m),y position (m),forward velocity (m/s),"heading angle (rad), from x-axis, positive is CCW",throttle (unitless; -1 to 1),steering angle (unitless; -1 to 1)
0.133224738,0.18909448276275376,0.15116412344186578,0.019921621673820694,1.5699825397721396,0.75,-0.6999157175311762
0.333226095,0.1340421313520836,0.3524120566826149,1.654107688978917,1.4097540409390334,0.75,-0.18073604369522048
0.533255504,0.34368446192579927,0.7976512599781131,2.823010395865861,1.0112763681156625,0.671579522455114,-0.22731740294156913
0.733223339,0.8184584921305179,1.2129890780291732,3.0282537719449145,0.5250142493105571,0.4704511064549118,-0.2102833409205924
0.933223887,1.3717172636875807,1.3850636962130953,3.000153217494727,0.07689919568959555,0.41006054465735087,-0.18573188380039088
1.133225299,1.9718435940816703,1.3273152424551822,2.9681936946534373,-0.3319142167851532,0.3719790627937864,-0.1935420836891338
1.333294903,2.463794402196531,1.0393696635289125,2.8670261730884006,-0.8325193795540332,0.3563661901431086,-0.204371856412829
1.533309521,2.7775846553828925,0.505143424520395,2.810912964315093,-1.224202628301542,0.3673249019895845,-0.218377268090628
1.73322211,2.823347083395675,-0.02509302694195817,2.783676112995588,-1.7222154194700223,0.4136063482813957,-0.22109872426565202
1.933226762,2.583085952673452,-0.5599108472137913,2.84263714159722,-2.18360405357195,0.4662981773891273,-0.22299314390634734
2.133292672,2.1589489514578744,-0.9005476891854493,2.905573382643536,-2.646057766472624,0.43059670462850647,-0.21226900267223933
2.333280183,1.6138217690144174,-1.0814539741436322,2.8865027876744427,-3.1182229566816524,0.4161206785705536,-0.20819845262246392
2.533223035,1.0389800422327127,-0.9866084595395478,2.8926039793658163,-3.5591618426433866,0.3763366978732923,-0.19898215532994448
2.733227593,0.5820874166676673,-0.6027303132051812,2.7792142178969796,-4.001599774760335,0.35717774743083625,-0.20733673278506667
2.933271391,0.30873234126411125,-0.15751572714026763,2.953494382484638,-4.347015590946532,0.47595732629101883,-0.06275621841567687
3.133229169,0.05334628358599655,0.45851145331661225,3.211332039055606,-4.282335202038609,0.38554323998740264,0.10722768817067319
3.333229224,-0.28088001208373664,0.9917542285021472,3.282481394002065,-3.9931902067870646,0.3081968219680904,0.17833814915182594
3.533272782,-0.7947047049292033,1.3896319281000782,3.2075913925128097,-3.511812776391985,0.32871753565007034,0.2108541403529911
3.733276452,-1.3825487400381844,1.514900461885995,3.131872705964266,-3.0700263979305547,0.40529108457473323,0.19188805790941788
3.933269566,-2.009774062036044,1.303499072905512,3.0126893291029218,-2.6254235753729116,0.1776810729479052,0.22436500125021464
4.133228704,-2.432507055384626,0.9744134906755337,3.026607477266965,-2.162655831368981,0.5230486969051201,0.17098525840346013
4.33322744,-2.676220282864413,0.3669153698246195,3.1487769628716893,-1.7489110522085465,0.3562185080186862,0.17407746137729418
4.533275036,-2.678149479187555,-0.2517728807378728,3.088193997705788,-1.3391163188717,0.27656701959116986,0.19741112578401077
4.733283729,-2.4486603536911806,-0.7556769548408022,2.9115701722204332,-0.8473865127023592,0.27189964941127315,0.21532920642206824
4.933226306,-1.979345366236649,-1.1096392407115485,2.7822080346032014,-0.406906231657618,0.34065185382554025,0.22228395839582565
5.133223873,-1.4450190526131477,-1.195748393070761,2.820555505072033,0.07019064652491169,0.4156502928304039,0.2319384679987675
5.33322541,-0.9253185498523386,-1.0478644639871322,2.890094869112455,0.5951383838866959,0.43711717426981656,0.21180032585783543
5.533255571,-0.48680094570334687,-0.614463660928814,3.04487558375761,1.0011448386564485,0.40903687236681435,0.20563817517337402
5.733290055,-0.30696967025329824,-0.04448711505449261,3.1857849621225163,1.273464735750152,0.5054626399407073,-0.018061602741162797
5.933223835,0.019956928008566792,0.5560779869594217,3.320812005208534,1.031902192484943,0.3910263144334432,-0.1438025912317921
6.133222574,0.37488293713241194,1.1052638937342305,3.269891820903311,0.6133874587778854,0.38239529616471196,-0.16333850472639916
6.333225727,0.999048391117895,1.3658496904030737,3.1945150438042087,0.23565640460783727,0.3926775196051003,-0.15597193036551538
6.533276443,1.6218650757462927,1.4031213097564856,3.1125737335834813,-0.15917688976501115,0.34505756328553083,-0.17095732812391978
6.733328954,2.2005950051311594,1.2059884732254622,2.9835223592337954,-0.6030534225558195,0.3406118882333535,-0.19123751229043165
6.933224732,2.5840116774014428,0.8064702274084179,2.9019649122041993,-1.031499002802039,0.36436885093579513,-0.19996116056663396
7.133285493,2.773016348002392,0.23605137366424248,2.8155989660493717,-1.4880535271372708,0.3733121875343172,-0.21570682550436787
7.333222602,2.6662773769838433,-0.31705013912874264,2.7837431930491556,-1.9638821732073808,0.4105132635624163,-0.21956739506892387
7.533279497,2.3564379549388503,-0.772351362656428,2.82726624722795,-2.4327026072677076,0.4310191752943493,-0.2073909100701122
7.7333045160000005,1.8282187934369971,-1.005559060383148,2.909435867182948,-2.8711052963093278,0.4122693957865803,-0.21094225848167536
7.933255938,1.293086235599615,-1.0587923557571517,2.8486688625391205,-3.361236273973914,0.4140544527044378,-0.20269317641463447
8.133231046,0.787108870413644,-0.8480530083645347,2.831239057374675,-3.78661626204614,0.37276179720980535,-0.2006023725884635
8.333221625,0.455155029225121,-0.4067733102047106,2.894604756924764,-4.2082972468779225,0.4204059755820937,-0.16000738162922287
8.53329692,0.18454429345337695,0.17228574325663257,3.182513407472557,-4.335639968100007,0.46741556951399305,0.0436320903739226
8.733280219000001,-0.055796900215358367,0.699209858047484,3.296015099526178,-4.2152486821282045,0.40308742769478695,0.16115410822032128
8.933227227,-0.5534425375633467,1.245760945478323,3.2629914986068687,-3.7979083755552705,0.30084398014238156,0.22512212825903888
9.133271582,-1.0753579118202516,1.4727615648459949,3.048956066914675,-3.271827029627299,0.4005911605189397,0.19623424908733822
9.333224395,-1.6489294523821891,1.4399460737552576,3.1279328090759795,-2.869211068730104,0.4500684783370942,0.18761542531341857
9.533219191,-2.2830102257976375,1.1551990559693552,3.272497819870233,-2.4416908060765277,0.3969269177859696,0.19027620420808877
9.733254203,-2.6212813464400884,0.645506217878137,3.1887578631155105,-1.9600472673711644,0.35180417421072724,0.1863622631706535
9.933249108,-2.7080897856951465,0.037340346552346165,3.1018648971536256,-1.5118344148734837,0.3100416178536149,0.18167264908220981
10.133263336,-2.6321582325769173,-0.5399007747369549,2.9384491548725933,-1.0777006200728119,0.28365727547571323,0.19599537320194335
10.333259377,-2.2487845863403426,-0.9908135407733181,2.843200378249965,-0.6388049627367006,0.3084131128167065,0.20819056376984663
10.533232614,-1.7372288385901973,-1.1661149448166488,2.8407721186796864,-0.13281259094108247,0.36940079672197856,0.22219287881414226
10.733222729,-1.170065368484673,-1.1512361523658416,2.919580457324996,0.3388246487712585,0.42257713879922615,0.22022155560404788
10.933225468,-0.6522244634352719,-0.8601261623206284,2.994096679991022,0.7674158400559246,0.42775737781468637,0.20698268046846824
11.133278489,-0.3541972045247181,-0.3425979535970107,3.054482732741655,1.2096627011404781,0.4358258318139056,0.1056493828135537
11.333220196,-0.08066707234919304,0.27287744700123695,3.31541834410212,1.1610163457568075,0.4519874540585514,-0.09285231892144012
11.5332692,0.21977982482898767,0.8413791872509968,3.35424632455621,0.8142936354360732,0.3628426486264747,-0.1549979241305278
11.733222783,0.733394543268619,1.2495644340456973,3.2405272622807573,0.4250233072759828,0.3692553219903998,-0.1585746131546777
11.933279205,1.3541600590117804,1.4574665178996673,3.1241333781774556,-0.01140264927407859,0.3897823478201476,-0.16372266607056743
12.133320495,1.9444365790724303,1.3300016834895334,3.073069787986602,-0.38104018287447455,0.34358198451405486,-0.1757292740907237
12.333252895,2.4180538296573304,1.0123941935020562,2.8912022015322525,-0.8086870815715346,0.34388131780591696,-0.1974191957283159
12.533222078,2.7580876434172814,0.5100772679882135,2.8492109682048024,-1.2214752527153572,0.37982191925600345,-0.20911459598980808
12.733226992,2.7952343050489117,-0.03335187892413326,2.8090555337835568,-1.727935587211662,0.4022006888795233,-0.2137101004062988
12.93326249,2.593221567019747,-0.5650189100561891,2.8216967644847117,-2.2274384163006995,0.4294164528604765,-0.22078982510059694
13.133270505,2.1222586676823227,-0.9023531744166016,2.8964744083817586,-2.652291555109193,0.4356076814207952,-0.20569733694134298
13.333227956,1.6072711077584128,-1.06586563736136,2.9422275342223942,-3.1053208628184032,0.4127194222805681,-0.1922052393080086
13.533291785,1.0372535326520809,-0.9609896524551069,2.882889279252495,-3.535914766801741,0.3746563573366506,-0.20107781545109443
13.733226565,0.6002942244561074,-0.6221541196645312,2.8366479639770934,-4.022734361938055,0.3715830444349623,-0.19982001974752606
13.933299535,0.3065506603441351,-0.14674178272402974,2.9658212109550006,-4.390181766822149,0.45626251940814244,-0.06253861284996164
14.133275036,0.08487129832962471,0.4615706185387293,3.2180569658898,-4.311201949760946,0.40687772932575833,0.11548196164970448
14.333254123,-0.25923807577007046,1.027692894608005,3.2381164521165156,-4.001980730197228,0.3066000373765393,0.19542304869079308
14.533227187,-0.7438835447204288,1.4187249977194214,3.1151195409244976,-3.5327221182123667,0.3380643761940148,0.2130849608904988
14.733226619,-1.3527725903055043,1.5043161749860354,3.140319687251826,-3.0495891966200306,0.4246277415617877,0.19113006966142412
14.933223695,-1.967593853181203,1.3675566271724857,3.1773531104088555,-2.625668652543234,0.42004015100485864,0.19314359981597332
15.133222878,-2.4812124196791308,0.9542559337496813,3.2303175646972386,-2.22131010687748,0.38463542016834695,0.1971118734751684
15.333224725,-2.746831003249842,0.40299096064092815,3.1443976597194285,-1.7813016857536543,0.326541781175772,0.1858167377421058
15.533277205000001,-2.7080457101027284,-0.2565525360480172,3.0341081666176652,-1.3212138947337353,0.2888131369981822,0.19184104316935588
15.733221538,-2.4821707454743622,-0.7381087478168942,2.9408673330476036,-0.8918852308404918,0.29153760042942334,0.2138146513934465
15.93322697,-2.068135435620872,-1.1216422757039675,2.8637441933667973,-0.4215725834290606,0.3318237798259076,0.23018609767807516
16.133222503,-1.5003287516497594,-1.1649145637399645,2.9369918360536778,0.0930923606623725,0.40011517903806665,0.23445169060936893
16.333269041,-0.9456426169823636,-1.035655196790788,2.98864350678228,0.5322782649705204,0.44797053044496593,0.21857045902063463
16.533285103,-0.5102882970106062,-0.6568305282454705,3.048332944347622,0.974267230888226,0.4318051974616617,0.1879714658822713
16.733223366,-0.22872220743987115,-0.04911494919252439,3.228615153821054,1.2560836429353464,0.4633519498911441,-0.0004823666403818449
16.933220694,0.03614148574246726,0.5344579381608644,3.3896448185290686,1.0462245823878744,0.39426918150470536,-0.1319355751136127
17.133288694,0.42884407754512566,1.0622794315398865,3.335650919748057,0.6287586773746286,0.36228249149052044,-0.16571689759373537
17.333328174000002,0.9799307790732862,1.3529856735112735,3.211569908967264,0.23909081480870226,0.377489102219245,-0.1678344023666879
17.533221346,1.6260768723660417,1.4640967095008997,3.0968102990615476,-0.19850882004939932,0.35562049230185194,-0.1653833108032093
17.733226713,2.1964829307399882,1.1842258404239785,2.975828826838773,-0.5686492863646171,0.3257268708423098,-0.19246564546144837
17.933223033,2.592687179162006,0.7878583791352364,2.892556411379978,-1.0410966797821615,0.35329358004222616,-0.2078732129905657
18.13327418,2.759893781128308,0.23652956312356893,2.7980363928406278,-1.4974257753828972,0.38109629205922674,-0.219928120598114
18.33322307,2.6678247243049587,-0.27248409786795863,2.826462766284862,-1.9798956051477423,0.4096166258014896,-0.21475308375637378
18.533301236,2.3763393278967153,-0.7475501207137547,2.815952035781808,-2.420109261656995,0.43164464953578385,-0.22090502289363143
18.733222849,1.8864351231266163,-0.9944530960228706,2.8619108212769215,-2.873222758091668,0.41342930422926216,-0.21250520932341851
18.933222763,1.2985901757733262,-1.0711536593254634,2.8241724221792768,-3.3577246887543795,0.3946896196019658,-0.2041335252589043
19.13328423,0.780347028867658,-0.8506599886224542,2.7874005401231496,-3.7477778654466514,0.39246376227837754,-0.20298572874146675
19.33322813,0.4637369590797546,-0.3667724643543888,2.827124689141348,-4.229816206102839,0.4242660750525719,-0.1596337641681041
19.533285273,0.20657736970025561,0.13913346805681842,3.1293363601575144,-4.354746279126531,0.4510083923854533,0.03828623379376108
19.733284683,-0.06453330245784347,0.7371481940885376,3.2559180246357657,-4.133713344192765,0.3509732480303465,0.14810979933310497
19.933220532,-0.48798137877427794,1.1975405119919347,3.141443092525252,-3.7720277962459723,0.31084073708231913,0.20495144790459707
20.133296859,-1.1005648871741263,1.4873869814404888,3.1142611959617903,-3.2642969615896495,0.3869646589018844,0.19840971903015903
20.333220234,-1.6894739054224486,1.4212874611739568,3.1858566255828755,-2.849121197672744,0.4289138547246202,0.19057899720175295
20.533280996,-2.2748349314615446,1.1508134291178322,3.2449421597960537,-2.434220213774938,0.37891897292459026,0.19660947452814154
20.733262204,-2.666492089177392,0.6607160860032735,3.1730484188194783,-1.9556738468311208,0.3538380706033522,0.1909465708889573
20.93322312,-2.8117345047128905,0.06707569088771236,3.0805804141202286,-1.5338035282749973,0.315310769335256,0.18537083010419111
21.133222438,-2.68730100539853,-0.5219636160448334,3.0074648617750603,-1.1057658647162276,0.26474182819186887,0.20292990753004658
21.333221638,-2.326943123769789,-1.0069448193701773,2.8582060744651705,-0.6315324832429633,0.3017740561085999,0.22239069692045713
21.533219352,-1.7851544040056986,-1.2497024560232088,2.8474605019599224,-0.14906391881749664,0.36702147929655915,0.22817889171451305
21.733223967,-1.236716054513025,-1.1944594969588758,2.888459608819654,0.32960385836474776,0.4145104936912365,0.2255513923526375
21.933333019,-0.7395638486302316,-0.9245029431565801,3.020591644021325,0.8159435003615151,0.4403369328848762,0.20698271802553578
22.133266223,-0.4092647401579427,-0.3805811021660663,3.107963659259613,1.1937242528951542,0.4366470659626148,0.12246401163203122
22.333219249,-0.2172855002984738,0.22159164449924992,3.2914426814286104,1.245012537163087,0.4560437213584639,-0.11232855995008911
22.533225052,0.10663172352918845,0.8174511988416084,3.3442924991844025,0.837792023937543,0.39863715432590613,-0.16423182135357592
22.733222126,0.628238649696553,1.2184206330979934,3.270986824419948,0.42673899680735217,0.3931626413657401,-0.16323158264674986
