time (sec),x position (m),y position (m),forward velocity (m/s),"heading angle (rad), from x-axis, positive is CCW",throttle (unitless; -1 to 1),steering angle (unitless; -1 to 1)
0.134903104,-0.8130153451015012,1.6544875214037806,0.03973063850744421,2.4782727347211324,0.75,0.5509403372453416
0.33486474,-0.8692625933506511,1.6886413059373768,0.8673459360393366,2.5100289845130375,0.75,0.2546083664104452
0.5348077010000001,-1.1782562172492137,1.803757981835797,2.3846661781843617,3.0094772806914434,0.75,0.31463709312272603
0.734893686,-1.7545716889993006,1.722466886258666,2.9803657151996092,3.598670130166645,0.5134671883394948,0.25398451270470496
0.9348113050000001,-2.1937802430898112,1.3318075950928216,3.00901952750819,4.082581099565163,0.4202070254337693,0.21646344277995602
1.134818931,-2.485024964637101,0.7797733368719362,3.0821491557848226,4.574179967605814,0.36815799832026963,0.2027521613347981
1.33480851,-2.43276157011898,0.2041614081923408,3.0350520596720694,5.0052044406513305,0.3154594804568801,0.1893271449529164
1.534826929,-2.1690276852831722,-0.2912102855188237,2.9784749230091805,5.496264302211973,0.31332728223695605,0.1926951245679773
1.7348194860000001,-1.6670582436764125,-0.6697516572460017,2.8973072806358626,5.955917860465689,0.3120192188028453,0.20123865109845152
1.934830615,-1.089955664482853,-0.6855272598894224,2.8508603012029026,6.401243888503197,0.32048979831822577,0.19451514409132822
2.134813516,-0.5723941938859761,-0.5323403169652169,2.844765589454327,6.865961880670885,0.31933664958935626,0.20672764893276932
2.334809851,-0.15928024492445994,-0.09643050443055953,2.8269999639099024,7.378010882415534,0.317243642287131,0.18124536341683517
2.534808106,0.04111199269768625,0.43180402736934875,2.95638912883654,7.59394309816994,0.3413171930531773,-0.015901639695389318
2.734817948,0.19676040245971674,1.0085500082340868,3.019952477040653,7.382192218587642,0.3246080679505431,-0.17690815215936043
2.934809174,0.6014250263564045,1.4927912762936657,2.985137871000839,6.980708383769335,0.33673390129791325,-0.21365430044858605
3.134808602,1.0811724116768588,1.7393235884047031,3.013341992613174,6.484986605119797,0.39500172725959726,-0.2062744088168298
3.334811094,1.6868629749971815,1.7428551180473595,3.0406135505015945,6.05791978557519,0.4191545242487904,-0.19312434276008233
3.534862383,2.2367193681531865,1.4616748690082093,3.0939171217988006,5.62386923190438,0.35629503829251824,-0.1850837102172618
3.734810488,2.7104971314016764,1.0220319979217767,3.080744669900363,5.202189833298975,0.3428845765370216,-0.19559911093435928
3.934820929,2.8344228228437007,0.4298404382713279,3.0440794774894933,4.7590256413623955,0.3276287600947857,-0.20219629032071237
4.134822102,2.748383836199764,-0.13013201430113655,3.0462323010688515,4.314821816886351,0.3247234596266373,-0.20595306716851133
4.334834559,2.4224000848797282,-0.6598740890118233,2.9919000072685447,3.8394311218707684,0.3533766686120402,-0.20893848212454535
4.534813264,1.8490981958206043,-0.9528939823051442,3.0208443631541506,3.3847140223032683,0.32892313736106593,-0.205246131601205
4.734844141,1.2692425248152643,-0.9923850627557246,2.950514578456261,2.898899887793451,0.3171906371168719,-0.2003530693211991
4.934931307,0.7427395040546539,-0.7515519570053072,2.9556969777050894,2.491984254770422,0.3049314523714935,-0.2063436205006881
5.13481517,0.35139243204671644,-0.2860426610112774,2.9024473367019685,2.0454687464290022,0.32464894672210304,-0.1677732481391768
5.334922465,0.14603737228539018,0.2900259717648103,3.1389394949458396,1.8954643488456335,0.3591418287491983,0.05284047713888096
5.534922838,-0.10881499956533064,0.8549150703751065,3.1932422813799883,2.160074092628767,0.2893837223483009,0.17202695439409135
5.73481706,-0.5722667929127201,1.2577651165138828,3.0921137840269095,2.638255444232011,0.28429735645988236,0.19931605734874158
5.934813719,-1.169254805594755,1.466100787524659,3.0163501929330643,3.098821510516713,0.36895403307809144,0.16980741457005508
6.134810543,-1.7608767456936683,1.3813833357138179,3.072796084872298,3.544579601219717,0.37236937828178923,0.1652729150277648
6.334810675,-2.2523711906405444,1.0393701949041014,3.103958930167048,3.9245801797512168,0.31756471492245547,0.18570243664172276
6.534893747,-2.6198390216389336,0.5542688728866421,2.990734756504096,4.475677077592863,0.30268292238812766,0.17376592598430174
6.734809993,-2.670341245195348,-0.09016368687814313,2.9615649894737093,4.841046455079021,0.3136575316776477,0.17327823465269787
6.93491637,-2.4499670048228612,-0.5864775166324159,2.8718407005948645,5.292177707102542,0.30777498484668936,0.20436430241091272
7.134818985,-2.085412302834555,-0.9793702151402861,2.8160275842767235,5.766359020650386,0.3487132633894594,0.20014407535646206
7.334830118,-1.519580905600616,-1.1392856164929623,2.929842814758804,6.247660674464551,0.36380553134545734,0.19491403569936658
7.534819289,-0.9269985164201509,-1.045527922134024,2.9605939027474495,6.710987986495588,0.35040296515829006,0.190569597236739
7.734819009,-0.4349493491364784,-0.6799227244617323,2.9094096097482844,7.175003627077551,0.33283420736378067,0.17898298404145718
7.934808534,-0.207644552075192,-0.1848869093697126,2.8750657682135228,7.591777915484113,0.36195213809025817,0.09081314109679964
8.134832797,-0.047432839248360316,0.3942956688599022,3.117202700813388,7.589197413522585,0.36672877526103864,-0.12065907440576126
8.334819149,0.2071558323142023,0.9901278075339118,3.081525526600047,7.2286315817631275,0.31190888909560144,-0.20434339691744408
8.534905508,0.7005703078277096,1.3936781287091704,3.047804365253875,6.7426872533212086,0.34987458636423613,-0.20584515318078309
8.734821264,1.260575836679771,1.5578995388287775,3.092576039285213,6.285659931845392,0.38145747789746276,-0.20147946662126548
8.934825761,1.8321127885396122,1.4389048148212666,3.1075625864542302,5.884169792780296,0.3639951004582185,-0.19219055551958658
9.134816266,2.397747409221499,1.0616800499506795,3.116093704855957,5.433975887681357,0.3473983905773751,-0.20595997546589104
9.334807915,2.7105113159427927,0.5505510701299685,3.048468031938206,5.043561960400252,0.31486709221719544,-0.20150796859998235
9.534914102,2.762154467266941,-0.045723724748704626,3.047098833493407,4.548145651449069,0.3139995909148548,-0.21328561231291507
9.734891077,2.5419134065192823,-0.6019100681989147,2.9284236215643253,4.132906881083694,0.3295357641700494,-0.22384971390349423
9.934835238,2.0991630839288655,-1.0081708040349144,2.9505038191697217,3.6537200596126125,0.34306023106706124,-0.22338322054482912
10.134871859,1.5707036037567401,-1.151169851371993,2.961872276989152,3.2075568172267785,0.3533513903274558,-0.22336573501167767
10.334822608,0.9682175733047849,-1.0943415012313862,2.9327091409123645,2.7377140821094885,0.3375421204782082,-0.2164254860586311
10.534919309,0.527462352057889,-0.7497830955853029,2.910909802070465,2.289720135822367,0.3098797530227752,-0.21589285636187752
10.734832734,0.19431264825736824,-0.20147624931097832,3.0410369745873966,1.925106629196343,0.3920449060101538,-0.07032900658519757
10.934830337,-0.011374354126863712,0.4157489429002233,3.3065083229026806,2.0234633543515366,0.31897449792077553,0.11702236715705285
11.134815174,-0.36173034424210454,0.9274029483582035,3.294072405129504,2.354860133401868,0.26196979831142464,0.18712083616643882
11.334835274,-0.8843248665199602,1.2633142505773998,3.1216823910695215,2.8491488816131723,0.3102101102379986,0.18990746500860697
11.534897284,-1.4889235402480474,1.2967050980424155,3.017258871849136,3.3135845001849975,0.3432311789616409,0.16399630003138194
11.734816159,-2.0682430637912397,1.101429626255073,3.050707537247053,3.740037225047527,0.3274228859677315,0.17459690948303783
11.934820179,-2.5105622216528034,0.6556792969211356,3.046657008519962,4.21016197583778,0.32878958651118173,0.1798894654813852
12.134812187,-2.670630233260521,0.11254369851550895,2.9961153653459256,4.582747162231069,0.27681449643214967,0.18649015653279796
12.334817912,-2.690626969023088,-0.47563045391273295,2.8481874798790012,5.076142844438752,0.2919607806465183,0.20076301484295972
12.534814896,-2.352392972039878,-0.9463300863620925,2.836520204890775,5.554053340864012,0.32463453325440156,0.19165019287178464
12.734814248,-1.8533178031880857,-1.2407823674474194,2.925877029938415,5.9871545303005815,0.36995010374464576,0.20325283130795335
12.934815965,-1.2453557494805316,-1.2627096273683511,2.9048918141414415,6.472869850854194,0.37185852292145655,0.2014641630674902
13.134819227,-0.7254650653539794,-1.027548738176356,2.997286214134255,6.873481078697682,0.39042853426737895,0.19491711357468403
13.334860161,-0.35737639828000234,-0.6057416598991155,3.0370249107943956,7.398787875270674,0.34857534565511733,0.17521879529135817
13.534815567,-0.1461704046556939,-0.04709641662797731,3.100468514680541,7.6493706516039115,0.38789807486581096,-0.034365797738289475
13.734808503,0.03525147517672478,0.5829449412726788,3.187997582645894,7.446203789815488,0.3143818099740927,-0.18328570853296042
13.934810861,0.37121876577087615,1.1299068358608253,3.0722173134656816,6.99027249025978,0.3217148274617591,-0.2273203339185033
14.134822306,0.8499073672972912,1.4574726305036663,3.1131182055919413,6.578388864383824,0.3717361287297962,-0.21895711171980728
14.334813081,1.4805718481424197,1.489467059620775,3.1300492536768614,6.0927575095335245,0.38287236487196286,-0.19091403621614536
14.534811071,2.0650469366671986,1.257614348178795,3.1201545352156126,5.68006202723533,0.33523120238348464,-0.20508514274424214
14.73493569,2.5181948242399854,0.7905730930747097,3.0868098241050346,5.229115735554223,0.3377870332479848,-0.21871965134069393
14.934844876,2.7191022155348965,0.2685049192337239,3.0169472405099427,4.815776134643005,0.3095343483034704,-0.2233209941379521
15.13491258,2.636132649956993,-0.3773851256405048,2.922263314588683,4.33724896959059,0.32627735567474303,-0.23496610371242135
15.334825827,2.359109617402476,-0.7889023462008659,2.9804074497761257,3.9249880079188046,0.36754588474527544,-0.23662219482985428
15.534815958,1.803144267376548,-1.1243288587065152,2.9628931709654713,3.4080031887332245,0.33598941016449463,-0.22303123880266534
15.73481029,1.2493709969484372,-1.1586235552859758,2.987740826666108,2.9219180447041513,0.34372614305630106,-0.2284655427556131
15.934811669,0.6559870801623876,-0.9678724247736868,2.9612890339226148,2.5160936941670506,0.3303807791516833,-0.2241260685302726
16.13481298,0.3247381260450936,-0.4928763419743031,2.983637137393117,2.093286785946022,0.353426491889847,-0.17777414181282897
16.334818845,0.05944599855611615,0.04235872241711049,3.1711042256344157,1.9279753862161142,0.3795332004240164,0.036539212662040875
16.534833904,-0.18131901688554078,0.654226887505755,3.3289144223778893,2.1898670671038567,0.3135940798303293,0.15377381617522132
16.734810651,-0.6756905350862622,1.0867973852951924,3.176612503750248,2.6502837494181053,0.24783255828170123,0.18194735059058995
16.934818785,-1.2658486734110557,1.2853121743466116,3.0302805743507357,3.0936601122057383,0.3462537651609814,0.16994722381907768
17.134905973,-1.8608575706075798,1.214113236765818,3.057409127154597,3.5139910022838494,0.34512775260836925,0.1656005384805607
17.334814524,-2.3546134274729607,0.8724801563624567,2.987838858477551,3.95361501473866,0.3047406188692959,0.17749028692971178
17.53482688,-2.670699468092468,0.4201451958350767,2.967338997768788,4.374189433834311,0.3002092040820209,0.17482054546374498
17.734877065,-2.759568924568315,-0.21468280101662965,2.9372239527434267,4.837239839971744,0.32582155031798865,0.19726611490567045
17.934897453,-2.5167967078316504,-0.7680100303853421,2.8392610525234776,5.360357036633148,0.31766611994220506,0.20039659325920575
18.134810681,-2.11278141088674,-1.1572438354314498,2.8585859922228787,5.7088484045081245,0.3571904719004052,0.206357896801656
18.334891459,-1.602187970948875,-1.2787911971537411,2.949840778515114,6.241159216956245,0.4179213608748127,0.208064094049127
18.53481271,-0.9794525511431297,-1.168755169095851,2.974975107421808,6.680549577428741,0.34655643076904785,0.1781368763868655
18.734817368,-0.48679739614872874,-0.8278028560687368,3.0579127622464535,7.15737315339015,0.3448175020306552,0.1911064731743719
18.934902692,-0.24625733172868208,-0.33536042470606914,3.01693256427501,7.571751539706228,0.3605385000363187,0.1124191279976458
19.134824924,-0.0652441836497474,0.3090930734006917,3.1859084047900157,7.645056278519601,0.33990969830718254,-0.12746908600419274
19.334932846,0.14700349724372774,0.9254951691516091,3.127688532396298,7.243716880937191,0.3114557008481753,-0.22375256865615378
19.53480881,0.6464805405673577,1.3640074588448898,3.1450152611384237,6.780367758754993,0.35720927059655466,-0.20662881456865345
19.734809252,1.260252561622616,1.4879882113060683,3.0733551561272803,6.327123920738176,0.37503201429626265,-0.21673244729304905
19.934821724,1.7773537749256634,1.451971141141632,3.1442027051712405,5.923693226436905,0.37424959500311455,-0.205743187846455
20.134860138,2.301493169122487,1.065589410867837,3.0763953464544826,5.511268579533996,0.3315469722848457,-0.20428710013135273
20.33480913,2.660814008285809,0.5117496633546951,3.0392242336682624,5.064476400352302,0.3078117067225077,-0.22056976127711722
20.534988683,2.7558215350557727,-0.05462606560057681,2.9770534624578735,4.5331062159481785,0.3210901267804535,-0.22175256258598228
20.734932003,2.5367940902793737,-0.5801794154376284,2.9523503769482264,4.170830462318629,0.3685773153079322,-0.23672815680323162
20.934813837,2.108099526397374,-0.9733800727988932,2.968968323645412,3.700338207952037,0.34135525149902984,-0.2358292883493454
21.134829915,1.518086537053894,-1.149571560200779,2.9757210564403076,3.1999097861934658,0.3610900540649288,-0.23405219385427709
21.334818435,0.9872410059250215,-1.0941197621139116,2.9832278383027946,2.7333185238475783,0.3262639605068301,-0.22556941108978815
21.534834255,0.48836182334985073,-0.7262259663322603,2.933627779658921,2.312283394459031,0.31002012596718836,-0.216878421042479
21.734911749,0.17828928000354433,-0.20048782606881127,3.0867162512632262,1.9896242516700102,0.3715913885989336,-0.08365163086172293
21.934818346,-0.055830802689756764,0.3477745113590335,3.3043801602126828,2.058755960176727,0.3148297668353733,0.09943477131411109
22.13484969,-0.458672186065639,0.9316121980029879,3.2840766886603605,2.4064517883935514,0.252782827791956,0.1909169439201171
22.334903298,-1.0128390925942248,1.2754748613836886,3.0977924830728165,2.8557467386140987,0.2748159333756447,0.18940354545283872
22.534809882,-1.5587747162599466,1.3260391631072,2.9951372754912007,-2.968284555713378,0.3402735385850052,0.1641532371483299
22.734814692,-2.1488182712198345,1.0725616606720425,3.0179594993079903,-2.483558672257508,0.3430947179905054,0.1739084706353726
