time (sec),x position (m),y position (m),forward velocity (m/s),"heading angle (rad), from x-axis, positive is CCW",throttle (unitless; -1 to 1),steering angle (unitless; -1 to 1)
0.139562327,1.5487594775824332,-1.490774343002904,0.13551825662336164,2.5141471216473494,0.65,0.04851677737882987
0.339440369,1.4376983515301798,-1.4144241443477747,1.1820705126563509,2.560378689256829,0.65,0.024981807213960264
0.539440797,1.1511981588382947,-1.2166770207317212,2.176706066273161,2.5095762332068787,0.65,-0.13375177671035288
0.739438464,0.783021689142945,-0.8419329164983393,2.920084113575502,2.2190133512084707,0.6220783784892512,-0.1995616546287921
0.9394347660000001,0.4612549691496347,-0.25900170514955284,3.36435861326903,2.0278539742833113,0.4719805180873216,-0.04547506420919416
1.139435286,0.1543684913556548,0.3714384989214893,3.5884067857155246,2.089183170605044,0.36284197970493615,0.0886351976926812
1.339438381,-0.25085163816714534,0.9099586607006271,3.496697895681259,2.4311846618305197,0.2793834431427584,0.16097260217706671
1.53946083,-0.8198628799253102,1.2745539059816862,3.3004060357991523,2.8540360445101274,0.2800215623711742,0.1737833183712959
1.739515026,-1.4827201785442972,1.3564526845992906,3.15215571870995,-2.9817242009241043,0.32385221115751,0.18966187862220146
1.939437732,-2.034890871104156,1.1709724118887552,3.044194737130708,-2.552752504315352,0.3250613221119025,0.19867830385017646
2.139561755,-2.466482513491738,0.7575020860820925,2.9996612783964784,-2.1194247230285614,0.34504185360569833,0.19779023836791385
2.339438558,-2.674677555841138,0.20373052286041918,2.9788927838271855,-1.6771695865577907,0.37481045235528027,0.20481973456219568
2.539434376,-2.6167188057068462,-0.41338681326542936,2.9802437202650474,-1.2028587270439142,0.37866661411760405,0.21700748169852713
2.73946928,-2.3286958036499916,-0.8950087866753559,2.9937074602029172,-0.78129897886495,0.38895380930953455,0.21786290594015786
2.939438016,-1.8135921231810928,-1.23914952979018,2.9755978376615984,-0.32918483994837716,0.3639308317113468,0.22175501921337556
3.139436135,-1.2319456128166766,-1.3165595105583177,2.9192859491918015,0.1327410312191769,0.34908043466554417,0.23338795195450077
3.3395483710000002,-0.7122546239308803,-1.1444076991476906,2.8850912552646384,0.5745490394026451,0.37630976268813804,0.21871824576912077
3.539436298,-0.28085404413200343,-0.7221817940550606,2.9155484857952008,1.0361150238774115,0.42573317616900436,0.19547017401799027
3.739458258,-0.03206359456239663,-0.19533292278636608,3.2190732375028266,1.2024749466526934,0.4644627909130895,-0.0095519045343069
3.939452884,0.23149552675256907,0.4197312263312199,3.4183017833054965,1.136875104985146,0.3562045538382682,-0.14590586307505699
4.139434551,0.587398763728365,0.9534274676795695,3.3398187541150786,0.7969029162232447,0.26293857933326237,-0.21603834625490415
4.339530429,1.1441969885722674,1.3212033258709381,3.116775798904743,0.3217010865871094,0.2829350444818932,-0.23252883545767328
4.539461071,1.7478444662431993,1.3870864027693468,3.038972828430996,-0.1095262430415819,0.36465851008911476,-0.24127410639845515
4.739460911,2.3119378777141337,1.1845357624745945,3.0151428988162663,-0.5620528940254541,0.380524077782501,-0.24715501250987307
4.939457604,2.733865002682758,0.756052936873931,3.041226776398939,-1.0008035701422036,0.39353105113173475,-0.2502372704850405
5.139585806,2.932588076153925,0.188754480340835,3.0290466097578146,-1.4669553383905454,0.39575135326423705,-0.2567178162035949
5.339450332,2.859440116262401,-0.4062128109468218,3.026025085494509,-1.9173175574584285,0.3787827640990532,-0.2536626640184485
5.539434963,2.5111840764426296,-0.9238674146651918,2.9730572001454205,-2.409395313857742,0.36277325872244776,-0.250863800409991
5.739439959,1.992265775156007,-1.209837750347335,2.9836731963439975,-2.852826467398661,0.37751925299079486,-0.25861391585083765
5.939433843,1.4033823208255887,-1.2376825512235983,2.960267078922813,2.9441555378439315,0.39248782312597286,-0.2675272418003497
6.139432785,0.8688703826028771,-0.9928879674871415,2.9678972788256126,2.4618142899296567,0.4502950481543029,-0.25949330989875474
6.339484495,0.5068082654849332,-0.552371162748032,3.1025125920912098,2.0614797782238337,0.4654306132383351,-0.17061048077865731
6.539503765,0.21544656529339679,0.07395211836321813,3.4516597630470645,2.044359829249174,0.4541562417832642,0.0409830098457348
6.7395377320000005,-0.15356192540533561,0.6679657516127274,3.523948845115263,2.269950052382638,0.34150914496213697,0.12951911027184967
6.939458782,-0.6348820396499886,1.1148497573528409,3.3947364236177107,2.624422135430017,0.263147010924465,0.18548048024916733
7.139433869,-1.275895531372808,1.349254731389448,3.174880856583477,3.0862796482654278,0.28670958905941213,0.18182628586738125
7.339439667,-1.8312742133148192,1.30133734142608,3.080351994172771,-2.8028807562758646,0.3314093581292718,0.19835402512241113
7.539532845,-2.371683804471062,0.9842561865193795,2.9810306108917146,-2.3354526465455385,0.3427681681747539,0.2041147364454252
7.739435117,-2.6933442704740163,0.4923248686518517,2.964881633655324,-1.891639188519115,0.37628574910761287,0.21606733195577044
7.939560511,-2.7717907711335137,-0.09371285912981729,2.99221717192873,-1.45476473107371,0.41487571197366013,0.22344739808305752
8.139434409,-2.5799473278652547,-0.6866894238239027,2.9935639611736202,-0.9814118719044457,0.3783028286526885,0.2160776204831029
8.339438271,-2.1677703931540817,-1.1133800899384965,2.984607268784517,-0.5462546691249633,0.37807907009917385,0.21243429604638592
8.539456769000001,-1.6429822501212064,-1.3159285623226928,2.973283195012068,-0.1137119147700648,0.3704930575212045,0.22485310783106638
8.739463938,-1.0601189931083044,-1.2695301205418235,2.926829787436189,0.3606120332542284,0.3597406784121107,0.22027669758497795
8.939447996,-0.5621658006112283,-0.9712130827375882,2.9321297840619946,0.7958621767642046,0.39824775029739484,0.22585848949501713
9.139445974,-0.24051217956646287,-0.5106524203478017,3.0447257783353563,1.1750968112480562,0.4569364170727412,0.10774812299530204
9.339437256,0.01641185002347823,0.14970114432949808,3.3426276724774238,1.2053588542067473,0.42666477510716194,-0.09797493725571896
9.539442171,0.288315566061204,0.6977402597642705,3.390569900845302,0.9840766190255104,0.31145576299870326,-0.1972789450289186
9.739434288,0.8035008740986844,1.2001366780134675,3.1926363666260666,0.49705311693034254,0.27374832945172717,-0.2115259333754226
9.939458212,1.3628848355126257,1.3817852675662627,3.064128184839562,0.08804249149323377,0.34260032166304044,-0.23001075513863584
10.139455927,1.9322208884988172,1.3156846716649488,3.019374554006128,-0.32998201538679645,0.4307889612184195,-0.2536483212130819
10.339454842,2.4635317947438673,0.9767674757225541,3.023957850514483,-0.8117222296475284,0.3934083415880963,-0.24862125971870813
10.539449669,2.7732592569378265,0.45959502076624315,3.033005116795771,-1.2687148181068717,0.3988215736676327,-0.2463382038923596
10.739461259,2.824262598256954,-0.13922516997928647,3.0221807468007307,-1.7215959985829583,0.3763689934865133,-0.23935500298468132
10.939468471,2.6074970885660567,-0.6948209277703726,2.970390164999659,-2.1924266163151835,0.3569432602264063,-0.24739987308098157
11.139436093,2.1660133094412064,-1.0851009704181904,2.9705796290173287,-2.647940792328455,0.36858489700319413,-0.24434557359601472
11.339434888,1.5719603161704385,-1.242743608422769,2.939972784795073,3.1397884046567914,0.36816872534760625,-0.257266172142433
11.539433505,1.0287065678129028,-1.1249788828834126,2.957308689761035,2.693650541667963,0.42156334020244984,-0.25746453091465926
11.739461272,0.5666750166097401,-0.7586990809366375,3.0007526630518777,2.2185364619620525,0.462722218008271,-0.22717721947424316
11.9394541,0.2558966884494,-0.21126467855594575,3.3167466783699844,2.0260526076108425,0.4644265382301764,-0.04953813815321276
12.139455977,-0.05443114040405041,0.4033632281845462,3.5185132290713432,2.1037538979931854,0.3630971094955588,0.08618896813599197
12.339454514,-0.4757371122229941,0.9633608699913414,3.489616219053181,2.3955492627571275,0.26788727467688556,0.16370583546945
12.539449797,-1.0336032107236772,1.333810849919346,3.235817102931586,2.854178629716644,0.25298033439105444,0.19321028504585935
12.739435582,-1.6520549928427117,1.4183716138478883,3.0770104993809873,-2.988316519822547,0.31639834099517883,0.1922231492544694
12.939431474,-2.2236902707432993,1.2266954598158522,3.0413054956911565,-2.5758570933556544,0.3431679850247723,0.19721879441167864
13.139434341,-2.675687168383076,0.7936838410059436,2.983872411910957,-2.103631059859768,0.3525944825196816,0.22804694471443818
13.339434993,-2.869752997955677,0.26755114099207267,2.975663306670878,-1.6779190690544725,0.401598968102333,0.21780863999593716
13.539457226,-2.8244663931328535,-0.3233257142153715,2.987311179733567,-1.229020416629444,0.40333252614834975,0.22631434641438322
13.739493506,-2.508969494735918,-0.8619416387951204,3.018015213591192,-0.7605331800977948,0.41256610097113555,0.22286088005020488
13.939433947,-2.0114267269743134,-1.1913061096254245,3.004306050455169,-0.3318757537232401,0.3856927525815106,0.2084880167855405
14.139527501,-1.4512985679051578,-1.2805136928961145,2.9911360106247136,0.08715304945061302,0.35131868787097864,0.2222307032791238
14.339464495,-0.8890656761810747,-1.116666346996358,2.92599638613102,0.5624330101690772,0.3841892521705603,0.22657254285084003
14.539435154,-0.46079525237108426,-0.722797955131979,2.967072643659222,0.9939501694575945,0.4265302210853628,0.18659929858131408
14.739530707,-0.18101297752525744,-0.17495128839245497,3.2294675639408696,1.1712497710477219,0.48292762833122743,-0.0008107296339330064
14.939538158,0.10440786350803191,0.43260856868276026,3.4271622113889033,1.0803226681046425,0.38998685534307737,-0.13636413049955945
15.139518973,0.5083239529322027,0.9752510716671308,3.330531006802836,0.7294910639194162,0.27669973039237483,-0.20302449374228593
15.339438478,1.0277798532921423,1.2970456780545043,3.1518154212201313,0.30332236726401535,0.2971637314685541,-0.22128547506579643
15.539564046,1.6665865467704335,1.3557233487744034,3.0322956614778405,-0.16107185484223072,0.3628128007015441,-0.23006541666518449
15.7394484,2.227501647013738,1.1320765236805501,3.05824676777082,-0.6069278077577186,0.38851032379802986,-0.23383486056572245
15.939463875,2.622466603396789,0.7130335589149196,3.06213919146731,-1.031723213259386,0.3975463992041991,-0.2392753686429615
16.139452055,2.812052555879861,0.14208083686177228,3.018567268812414,-1.498033008354117,0.37100565901860066,-0.23952206503845747
16.339539318,2.7155017316040015,-0.47551912551807984,2.9747699688204454,-1.9836987788610427,0.3712986906142501,-0.24307061852214873
16.53955712,2.369657737047598,-0.9547785151028501,2.9704873282781326,-2.424791826824972,0.35978913422885256,-0.24266371703846457
16.739432934,1.8533286124431532,-1.2342281243348492,2.9395022499976218,-2.8847454295636026,0.3403434524370113,-0.2456007329337223
16.939454575,1.2479377659585535,-1.2434662672057701,2.9227466717743344,2.8846476491066415,0.40482606332246074,-0.24854540247221932
17.139446886,0.7728215285323812,-0.9986631268251182,2.7697541992808348,2.4006506944068873,0.36418733522500213,-0.261714531797004
17.339450171,0.43986219392097664,-0.5336239870913639,3.0577815875339867,1.9972333608778525,0.5421453191139465,-0.12061172610466794
17.5394347,0.18535339770439224,0.068350392562132,3.4126086697310165,1.9952529358446434,0.4415030030122267,0.04861012360036857
17.739465661,-0.1575980116596196,0.6734517680296658,3.515644882195444,2.2245365061608005,0.3158442602735085,0.14275257761337262
17.939437179,-0.6502023217121805,1.151911738795436,3.3708143958599592,2.6261227558332374,0.26481765695631393,0.18256619588833084
18.139525904,-1.2524433473478707,1.3793368131572292,3.1592933532246716,3.0677629117623573,0.3165462054704579,0.18554076661410693
18.339529899,-1.8661226992333977,1.32547403458972,3.0908776436754763,-2.8191372138246233,0.32658647411850145,0.19298895951773815
18.539536938,-2.3929244757001755,1.0284245197662674,3.0094573656834163,-2.3604268761396923,0.3296846612045603,0.22083997940526165
18.739447689,-2.7371621237095236,0.5161234677622887,2.947172305212807,-1.872957127429903,0.39451594671002416,0.22247382190152598
18.939536603,-2.8098123053932573,-0.038657557289167976,2.988544578096609,-1.455903101738824,0.3953346355498658,0.21167639693088033
19.139438823,-2.6374495830524527,-0.6081465527305525,3.005058138929011,-1.018579125324639,0.39073608708263136,0.21130159105704444
19.339444677,-2.2639880114038244,-1.0340030948678405,2.9952674538594275,-0.5938255565837509,0.39759017397205754,0.22379164378114513
19.539458932,-1.6915953527254504,-1.2785135956049718,2.985644828286739,-0.12228830380046168,0.35451424526222053,0.22738484056187203
19.739458245,-1.1068668946343343,-1.2402262573477463,2.9222794349203443,0.34654614242437254,0.35822721868009966,0.22060181601887358
19.939437788,-0.6265572363372012,-0.9688925118555566,2.909068544777911,0.7584715705062933,0.3988882945339802,0.22674371816767752
20.139433936,-0.2622982542052434,-0.4665233934485561,3.0465905102232598,1.1687804379684243,0.45820561419783984,0.10966335797286565
20.339435547,-0.019132244927444086,0.12952048936261745,3.3386024956844325,1.1943173192865495,0.4302082777360121,-0.08837663706809436
20.539508921,0.29336301107035,0.7295089230607524,3.3824051950559855,0.9489058005428571,0.3355115596951714,-0.19348002377505333
20.739445775,0.7657790023364971,1.1870254585090878,3.2282249193948136,0.5290980576302661,0.2758833688973028,-0.22936308273218467
20.939438335,1.3237072275170365,1.3825759464337146,3.0776429600571316,0.10239493947468209,0.3338050640498229,-0.22997201546395687
21.139452522,1.9559652977830286,1.3078245745920343,3.0405802520708027,-0.3501322509657279,0.38394009871207224,-0.25035937689627435
21.339546027,2.4628065553772913,0.97994693985931,3.0379525682350055,-0.8022845360562028,0.3927701079892113,-0.2456800429807151
21.539459136,2.7771059036257224,0.46438189438034816,3.02463149665634,-1.25654291100719,0.39315174474013753,-0.24334888335111896
21.739436177,2.83361394410066,-0.1343452695806784,3.0277843736207695,-1.7131681400725693,0.3780881665573938,-0.23583183547131503
21.939459088,2.62373255929902,-0.6950481879851048,2.988612727241925,-2.161477670691835,0.3496880204055912,-0.25085959026928817
22.139435284,2.1912910217357298,-1.0981572821855592,2.98122242562158,-2.6210695928788703,0.3515136592403274,-0.24889924202948563
22.339437131,1.6623239810897859,-1.2622681889831704,2.9200867271778224,-3.0910601270441185,0.3795564877180969,-0.2538137783928851
22.539434206,1.0398015524243476,-1.1372379763381226,2.9338165837626646,2.668400777959734,0.42882860055869804,-0.25812395610679684
22.739440353,0.606683459929203,-0.7835074282260097,3.0084845635516295,2.224454765381428,0.46493660302684847,-0.23391246121486178
