time (sec),x position (m),y position (m),forward velocity (m/s),"heading angle (rad), from x-axis, positive is CCW",throttle (unitless; -1 to 1),steering angle (unitless; -1 to 1)
0.129610795,-2.6439396868172063,0.020435445825870906,-0.024497068988115277,-1.5231110550453975,0.75,0.6390044171606416
0.22960996800000003,-2.592636498406296,-0.06666850969947366,-0.04290016478301477,-1.5644072276395022,0.75,0.05624957007900394
0.329615822,-2.5812320586357704,-0.08383481804506138,0.8271280773497406,-1.5930409217712491,0.75,0.11642179871532919
0.429620973,-2.5742870315967528,-0.18176713475121353,1.6378412435790488,-1.529086221855323,0.75,0.19714620180733441
0.529616297,-2.5316042139717974,-0.3861238459941197,2.4258196018830005,-1.3055127543207632,0.75,0.24371215218061323
0.6296145980000001,-2.4624614105857128,-0.6435271864498759,2.7881502156840647,-1.0790818870442556,0.48589527503403857,0.25702655877843017
0.7296166460000001,-2.312707546902203,-0.8610059991923676,2.7929804118369526,-0.8242119007176234,0.3619466358049885,0.2687751249207289
0.8296189110000001,-1.9878984709585084,-1.0385304420975596,2.8098608894110204,-0.5854315348609875,0.3232104721753557,0.2755141682993304
0.9296175430000001,-1.8085157925488222,-1.1384075639180198,2.7418282828958445,-0.3296764489161468,0.3301457159183647,0.2772739768253094
1.029617135,-1.5402374986218976,-1.1963324489526097,2.769011772398051,-0.06356442169766624,0.3758027776922937,0.27097411164667984
1.12961248,-1.2743438368785256,-1.2206997633012842,2.7781107338673965,0.20676166442407626,0.4046175690698098,0.25892855456193203
1.229649139,-1.0141105149727623,-1.1944300576588633,2.8019709080979487,0.40678861722516074,0.42704339205732705,0.2465416359014921
1.32961457,-0.7020944052383313,-0.9363357126023208,2.911840436987331,0.6256325069485428,0.4278621514879011,0.23589012738337337
1.429614482,-0.5298484307725866,-0.7836173761947588,2.9758746857150795,0.8542601018817213,0.415755486887506,0.23735713487178528
1.529623536,-0.33872946207774013,-0.5456887051122069,2.9919263706320085,1.0444849254104374,0.4312317088764842,0.16574725275426125
1.629613296,-0.21978679734854886,-0.24561220232010267,3.1681538019564055,1.211112990051714,0.43823925071745373,0.07049301617569151
1.729661796,-0.09490619784640059,0.0005634961318124951,3.2939345272444114,1.1410410117124938,0.4297639965283559,-0.043590852567979455
1.8296171860000001,0.02192986672377405,0.3435828794384011,3.3098830532346217,1.0769968802693382,0.38357414440628834,-0.1105232986481345
1.929619411,0.17967181809971056,0.5975343660939972,3.36088407895283,0.8840212530038446,0.392367601147178,-0.15021889598893312
2.029669215,0.46451405760606784,0.9052962694666238,3.2668094909166117,0.6586087231645297,0.34954580684953307,-0.16208612834724243
2.129630387,0.754600832001052,1.0712239650453743,3.117412697901787,0.44992180790111574,0.343355162725469,-0.16104580449428968
2.229634518,0.9610057512489306,1.1925845961571138,3.119206139286985,0.2575997907280879,0.39446804695840787,-0.16416720943351615
2.329619624,1.309808716057554,1.20339364214642,3.124260848822171,0.05344283931879307,0.3553825914695317,-0.16001646382849727
2.429611396,1.55949665400176,1.195851599319741,3.047960150633613,-0.1247162737516261,0.3310665533161136,-0.16633083631462353
2.529619811,1.988731494958302,1.1608817140805396,2.9406338500183975,-0.3121694898740334,0.3388085442780385,-0.17463275145815205
2.629618243,2.196233642406154,1.0101414651169773,2.9630672179334603,-0.5679840434120472,0.3395982002830378,-0.18072634818253092
2.729614989,2.409494962063417,0.8516163212702054,2.8851922359385767,-0.8347763474009909,0.3306930701767589,-0.18751117612901133
2.8296146220000002,2.5743025394033516,0.6067291734634582,2.858511970427241,-0.9702187198308402,0.333204276875247,-0.1986665939247823
2.929635023,2.6827539483733367,0.3516466378685963,2.860456672293912,-1.2376795271976293,0.3581319643697969,-0.20415490809904843
3.029615932,2.7567916960291456,0.11087296408933447,2.739314949958963,-1.4940858846621499,0.3531419801296884,-0.20721925850681075
3.129612871,2.7415338295174614,-0.16322359660961305,2.7765399835727114,-1.7526066306321113,0.3716575915165158,-0.20768841294851267
3.229611979,2.7029890922653146,-0.43706097120853793,2.7762269763056335,-1.8926616986868656,0.38755124002005,-0.2057515728255943
3.329617002,2.4935518469402553,-0.7097412887518951,2.7418894390100124,-2.1415109461206683,0.3960717508827956,-0.20860418989265947
3.429616185,2.309666563857477,-0.9347136010061274,2.779337527192029,-2.4475307758129623,0.3974986145027615,-0.20394759792317022
3.529609396,2.1429243180389568,-1.0371629252584058,2.8593255660543595,-2.6392532728024145,0.40967116869914744,-0.1987628190943847
3.6296877260000002,1.8083735217787569,-1.1408160673970142,2.870647042593044,-2.9383508512146674,0.41274121546006937,-0.20094389170532267
3.729610384,1.5835536139289845,-1.1554574491056866,2.828199924040937,-3.06654630745721,0.38898089668906394,-0.19633572206056127
3.829607907,1.263089086502599,-1.1625813749196496,2.8098707300293633,-3.305953547509593,0.38837188421584407,-0.1905614322177798
3.929607451,1.01676086017992,-1.0493657763934896,2.83781577702903,-3.5218218532437326,0.38803810176755626,-0.1954325541030921
4.029609745,0.7370646741232023,-0.9658659110754426,2.8400868276805356,-3.7849078484198975,0.3698378682915209,-0.19668567393101846
4.129608518,0.5412542783321979,-0.7941564793711468,2.735755805989803,-4.039744048312133,0.37535003711908504,-0.19203215620634512
4.229607329,0.43169707891710724,-0.5868757495099605,2.825343573857155,-4.262444865529499,0.3919584097815174,-0.2021629563786969
4.329611204,0.3307865440037611,-0.25241936135386345,2.8923445604249785,-4.442685965120031,0.44190675093711224,-0.08681189465522987
4.429613679,0.2358001019908521,-0.007210810426198377,3.040440635246151,-4.4673580311026875,0.4431886605304399,0.03684065358161352
4.529682987,0.1621324956382227,0.31459177155322254,3.215708079846832,-4.340527756244007,0.40618829611260515,0.12015485688770919
4.6296195870000005,0.008386410602774468,0.650019545823321,3.1764759551777817,-4.2639405599487885,0.3379753909677615,0.16970924756622466
4.729621456,-0.16589053210904192,0.8911657917695253,3.1962921991392714,-4.076440866384581,0.31012838253095476,0.19996137283988552
4.829613287,-0.3471008557159228,1.1310319798265198,3.114290409420715,-3.802424258837577,0.33111372902596514,0.2210794228926132
4.929614601,-0.6396021298887758,1.3203697134372596,3.2335941783378876,-3.595996362774017,0.33309448997718066,0.2241942428616286
5.029623272,-0.9129440170609653,1.3917637691185074,3.1003907214524746,-3.3354517079362105,0.3676186665047118,0.21319185905690025
5.129672654,-1.1776693260075946,1.5085309286171766,3.0725614627486677,-3.1138504878679605,0.4348849058038307,0.20850662867103326
5.2296143950000005,-1.5093771951508883,1.4981663724319387,3.1360482896144104,-2.986046848617837,0.4212879289376563,0.20137378417554205
5.329615385,-1.8324631975479084,1.3783637732682612,3.1772183569290275,-2.742170101773934,0.403945925218378,0.2023162939107868
5.429615785,-2.0466936444148014,1.1920476977964525,3.1839984304892908,-2.5200614743129957,0.3917486661759251,0.19945763285844778
5.529624839,-2.371287799581287,0.9659402687203669,3.165926226021265,-2.335682858348155,0.3668071001571135,0.21064236831023483
5.629614148,-2.529417840067101,0.7712682149642511,3.159351338632949,-2.130599686324422,0.32765910991355013,0.21518674550612346
5.729623831,-2.642505762802639,0.46406391038701694,3.0646622052282306,-1.8792550149037162,0.32249240598332796,0.20627649057534453
5.829617011,-2.661871788845165,0.19679718431208792,3.0392630490824812,-1.606586942774736,0.3093829058120826,0.2092291662750904
5.929617592,-2.6984913177686964,-0.11848716514758506,3.0124719721147466,-1.462684537537078,0.2890676899722887,0.20975869268334044
6.02961558,-2.671864316662357,-0.34997642527361766,2.8844952692851695,-1.1639631910951924,0.2839972058921325,0.22144524379973682
6.129613568,-2.515547965264869,-0.6807715888084866,2.9500550419761002,-0.9372668398584529,0.29174319118983183,0.23087660170704336
6.229608352,-2.371320198880972,-0.8432191881720359,2.8793585547020646,-0.7447726013471785,0.28588316661051794,0.24003805981474585
6.329614501,-2.181258687352236,-1.0218903441049512,2.835194744625896,-0.4670458602324192,0.31870719938070324,0.2398884516982056
6.429628496,-1.8725301839093695,-1.1366229488193322,2.8641759194518173,-0.2971970534589211,0.358987471698423,0.25035637914113146
6.529618708,-1.611060699549879,-1.2193324745941585,2.8596908782539354,-0.028557211069791068,0.3752898358715255,0.24583256094537356
6.629614361,-1.3092262084469513,-1.1869808676907285,2.889038175586499,0.1978203969485939,0.3922356436160061,0.25929506546553444
6.729666151,-1.0510053913110877,-1.1199417142025776,2.8798926526412583,0.4076423536984978,0.4207056607773638,0.24626749188789196
6.829618418,-0.7708644202734438,-0.9623916876266698,2.855310181723493,0.641620188753834,0.3999856970950367,0.23567350229979395
6.929614067,-0.5904570829049807,-0.7711683607275761,2.9972775810435346,0.8878880624274212,0.41293983716868127,0.2189589302316319
7.02961567,-0.3668347557148338,-0.5529158541981071,3.054874240882565,1.0986485586552195,0.41918781775684,0.1975874070504372
7.129619443,-0.26642890165911753,-0.2517022100072175,3.147840697250618,1.187463329236115,0.44165812850077274,0.052961190771656015
7.229614773,-0.1879990339577831,0.0018607892036470175,3.3484943476647264,1.1296300929360819,0.43314912822800766,-0.05136658306243512
7.329652901,-0.06410380579970579,0.3305476629369921,3.2775696088167794,1.0616323733580735,0.4051441997969893,-0.10670027375170113
7.42961203,0.14623777251238534,0.6642406932515345,3.3004711156868436,0.858219164699197,0.36834661130398205,-0.13938054550894666
7.529617689,0.430763142211502,0.8666937550498734,3.2989197649712967,0.6723600316821928,0.3484955479699208,-0.15108383998244754
7.629615599,0.6870777380541297,0.9899027753981783,3.1929430537120838,0.4488972334647217,0.36247821511010936,-0.15108213026957695
7.72961566,0.9539211109738042,1.0956479615488959,3.1483279507308177,0.21458293012748425,0.36347239157886696,-0.1521682336226617
7.8296141949999996,1.2781892014215746,1.2427319106928953,3.0394396144183697,0.050273286986466124,0.351964149846406,-0.14967524660332515
7.929610243,1.5305354114999101,1.1936521975578769,3.0450386484427128,-0.13286837329888285,0.34767202334407865,-0.15422415983442395
8.029624262,1.8577582771288965,1.117506234576492,3.021938013176752,-0.37257375309545593,0.34827606428139685,-0.1643142773741323
8.129615965,2.1602678867652494,0.9607401650251405,2.900203063116106,-0.6274955529407831,0.3316421618863668,-0.1718704169829804
8.229612276,2.3262768311625686,0.8218879432466379,2.882091281149714,-0.7907671763005941,0.3300722495915054,-0.17164073088780285
8.32961896,2.5851152805636697,0.5341911477317973,2.8340001952713436,-1.0320134871929456,0.3404600076164983,-0.19022043998258586
8.429629386,2.6501179532892722,0.305651602401903,2.780473955452397,-1.263958986332211,0.3349759038704123,-0.1986223919228175
8.529614447,2.70444751323248,0.06245676476853244,2.8088256199597383,-1.4944754436955,0.35291675772457076,-0.20024590364522268
8.629637651,2.6621054322589743,-0.2311796261252245,2.738336195903535,-1.6954949497222764,0.37771340976774115,-0.20715519646103578
8.729614203,2.649177454000568,-0.5129544619054676,2.6960098142890954,-1.9794893034807686,0.3773286616506756,-0.2066055672576177
8.829614133,2.5338119163087702,-0.710283156678116,2.744280520265886,-2.182965024595323,0.3966308808675688,-0.20299994587274853
8.929616286,2.2959326763007195,-0.8767711146022373,2.734982553384149,-2.405076541332894,0.414589799634833,-0.2051191349320439
9.029619224,2.0114259657800777,-1.0950156709728271,2.7665568178213626,-2.6672452388644445,0.4134040135461373,-0.2006626948149581
9.129609088,1.8515732237648859,-1.1522149461305486,2.8477751190210445,-2.9217861069404942,0.40643541509467573,-0.19611695761911585
9.229611801,1.5450132906445024,-1.2186577897203987,2.8444965899386228,-3.14921158369155,0.4223001166705611,-0.19515524057138708
9.32961217,1.3122050466133564,-1.200019911701075,2.7750904627604203,-3.3493777399337743,0.39330355430597846,-0.18668966698322592
9.42961169,0.9774540735306212,-1.071827681220996,2.8468808879136933,-3.5619436583128934,0.38561556984205575,-0.18595135775436317
9.529616058,0.7330876201471106,-1.0108701828141495,2.879760268075205,-3.8463392024661935,0.39333196347635735,-0.19221963784375998
9.629617234,0.5776702494742162,-0.7211998377242591,2.8108785566360814,-4.070935128012542,0.3715561983432466,-0.1955601436910869
9.72961736,0.40524890210743325,-0.5367941956171479,2.839645372617757,-4.305482495123933,0.4102841174834616,-0.16114016330161204
9.829658592,0.2609439326812981,-0.25706551833833075,2.9564941125698847,-4.394253853517542,0.4414697754145791,-0.08924008062967144
9.929624636,0.19614447181791123,0.0164067526106378,3.137137231741761,-4.4735049538491065,0.4340336275920392,0.03274478577391296
10.029612769,0.15353649215792112,0.3347591143604814,3.1862218111700087,-4.375895716749165,0.3810668744935436,0.11415616044485717
10.129624507,-0.02619646874009665,0.635642333164723,3.2271493480355025,-4.212896439981215,0.3402311380617225,0.1649116465953996
10.229609133,-0.1465014483703116,0.8396611810207903,3.231359166791873,-4.156278150975663,0.31482600793056525,0.207447479464669
10.329619973,-0.37160228687194996,1.1286192647890898,3.1670790815943586,-3.921323274548733,0.30830710083289137,0.23196060331544172
10.429625261,-0.6334255068260575,1.312964499419329,3.093601416645521,-3.6075852775556023,0.325332175004026,0.22872109283745445
10.529610634,-0.9572926332187163,1.4449907795230974,3.0473524624928636,-3.4506134340178884,0.37749812218190354,0.22088407075203265
10.629674356,-1.2351183422495058,1.5655457058420426,3.106740781836913,-3.209460952151455,0.4131703381752365,0.2118761036093075
10.729608454000001,-1.496180739219853,1.482096795116012,3.152259888660994,-2.9678205650139797,0.41852655545858414,0.20816238782094307
10.829615938,-1.8093567467239615,1.431447877833137,3.1224190132066565,-2.7739707211546976,0.42256854463885496,0.21378432560532185
10.929613307,-2.078869636635812,1.279006594235422,3.212743920707812,-2.5090878100468466,0.380636655325571,0.21069739419345343
11.029625762,-2.3651505304076808,1.0851664082858796,3.1731424587804495,-2.423928981549964,0.3673981673888315,0.20977897918600064
11.129660145,-2.547287018028029,0.8438867274837044,3.1699692744520886,-2.1264395026810305,0.3598549882400503,0.2160602374413957
11.229672906,-2.733935512684957,0.5213053892072218,3.091594892656575,-1.8693751421569111,0.32842613773834667,0.2148348379946544
11.329668785,-2.7507356902210947,0.26135046629463826,3.0552978037628526,-1.6403153576274458,0.312437013269338,0.2078535693018505
11.429618142,-2.800376488694017,-0.05734782086349635,3.0591120062244155,-1.4750837950565823,0.3054009268618078,0.21964158497230302
11.52961831,-2.6739229957548543,-0.303665496151445,2.9816887302746804,-1.2453080605497764,0.285847659388304,0.22244768209463225
11.629619027,-2.5869192841804654,-0.5858107446761807,2.8603395630443758,-0.9701089215702523,0.2912023166873585,0.2367612963166223
11.729622278,-2.3696231785113335,-0.8334120893227668,2.793881299977525,-0.8027103839191092,0.30061726582346887,0.24301755779059678
11.829629523,-2.1859420662578497,-0.9835989556555448,2.783226349201394,-0.5446571851253261,0.31853082951735995,0.24433512037248362
11.929617251,-1.938474248959308,-1.1286167367107127,2.811096477342372,-0.3414835128937474,0.3524960411734845,0.25310692754365766
12.029626972,-1.6218103431220916,-1.1566679123301962,2.8862232976076423,-0.07353363974699414,0.3959283717984156,0.2518181408015945
12.129611211,-1.3130316259647092,-1.150222550829058,2.8273220888973873,0.17273554956004925,0.39592730751581134,0.24892645640289343
12.229606597,-1.1162521529628084,-1.057453952059277,2.8697150429092377,0.4715083597571208,0.40443221151521486,0.24012673503103088
12.329609292,-0.8448777354556138,-0.9119783268068944,2.923540288839959,0.6377549953172217,0.4183688507769396,0.23118678647455537
12.429668026,-0.6214223528145292,-0.7458451987502099,3.0077948945060204,0.8744564759977184,0.38894920981134956,0.23162397280017272
12.529612310000001,-0.46077287246113546,-0.48795354985265144,2.9954234756415077,1.0642281920231704,0.42034913724362843,0.16465642434794753
12.629611875,-0.3168616393115775,-0.2340593464942625,3.1470895355108612,1.1572523737776308,0.4593633362302059,0.058470204679747964
12.729612566,-0.16227803515251468,0.10635430094852151,3.2327189622483443,1.1651466240515271,0.42772767468404366,-0.04693148266497672
12.829619787,-0.0029556681555251846,0.3838719047762178,3.2484199226612396,1.0753599317221585,0.39046955880845263,-0.10794343457679006
12.929609815,0.1568732945935305,0.6921393693116036,3.3342566621820637,0.8970005878778915,0.36888162018539483,-0.13573507785906305
13.029694059,0.3563748913534876,0.8705345651691795,3.269973693474868,0.7066642824322192,0.36020776292730927,-0.15492327260088296
13.129613959,0.6002824027093948,1.0333784118916205,3.2117936368980513,0.49995791373087395,0.3494554721640258,-0.15844383852530644
13.229611061,0.8748346687434773,1.1977132227123466,3.1668934694100077,0.27431389210962354,0.3567884453066439,-0.1576893280635409
13.329614338,1.240909315711538,1.258731584508322,3.1161838605802092,0.06515544324850199,0.3573695533872877,-0.16455806907970738
13.429668918,1.560953380201454,1.2560080641245133,3.086669726086857,-0.12744224071006457,0.35975101449609426,-0.1524760285689196
13.529657577,1.875362770227298,1.2183475717142251,2.9795244479140712,-0.35824590328301553,0.32445225211095685,-0.19281246215951714
13.629621772,2.123742295535979,1.0855360114219075,2.909719114592622,-0.5554427007296185,0.3251589159501339,-0.19088609422666075
13.729611815,2.3376471428797965,0.927100664189929,2.8690921655601804,-0.7625550796715197,0.32922457155687634,-0.1869448061203973
13.829611672,2.563836527925783,0.6985698223666649,2.8088262223754126,-0.9821677440983152,0.3431484201661329,-0.19145506237103663
13.929669687,2.6773709959752354,0.4332906220539625,2.758705159223329,-1.2367992148417544,0.3526080453656911,-0.2055279905701082
14.029611046,2.7034476462226014,0.15315241570062876,2.775214175400475,-1.49924747760074,0.35105596995505506,-0.20974225117676004
14.129612307,2.714743642312622,-0.07613155005216131,2.7393713775971094,-1.674454827195944,0.3690151456003533,-0.2113346222190081
14.229611088,2.6340658765795197,-0.3874582327444095,2.776600282950768,-1.951097979355877,0.38595525946517073,-0.21997663533352543
14.329663758,2.519582749785738,-0.6577842291583174,2.7124829879018226,-2.1698373007790375,0.3842170594500653,-0.21736540309876176
14.429614918,2.343687258651567,-0.8704804839580803,2.8097683228722996,-2.4277060209381136,0.4105208301722016,-0.21169653812557082
14.529613716,2.139455200388781,-1.0078425949117495,2.8068249640511995,-2.6223871289656393,0.41942661962724404,-0.21305124185881735
14.629642898,1.9401623520532651,-1.1709549912341761,2.828521698559538,-2.8126044446974685,0.4042778900201897,-0.21287438102383274
14.729609929,1.6008894155677664,-1.2305279708846508,2.8181168899089553,-3.0753689801322035,0.4031000706229399,-0.20906437079891105
14.82961122,1.300111256440821,-1.158429386799874,2.803132155362316,-3.296985374345271,0.40691351150552707,-0.20546312800486088
14.929613398,1.0176775019734916,-1.0822763004472782,2.8259191740806613,-3.5377144414249906,0.3878877441860775,-0.2031011261463267
15.029661007,0.7845032915810117,-0.9680526463701231,2.746219311669876,-3.7374988271044467,0.39034668547399815,-0.19271122856778072
15.129611893,0.5953134669277046,-0.777371228521013,2.8229916561757675,-4.029433010716191,0.3864674011161861,-0.20367832433106656
15.229612326,0.40636728000540934,-0.5704140701284623,2.8207938785027427,-4.200428942378042,0.4073016461979675,-0.1711957545289734
15.329613221,0.3259048707547253,-0.26972614290142893,2.8723302595055635,-4.382712696827204,0.4231244475412713,-0.11163700689525212
