time (sec),x position (m),y position (m),forward velocity (m/s),"heading angle (rad), from x-axis, positive is CCW",throttle (unitless; -1 to 1),steering angle (unitless; -1 to 1)
0.128514306,0.03253934844764567,0.3866427089648252,0.01423031459077809,1.740041637608203,0.12002676229218298,0.14323412461067575
0.22855129400000002,-0.029736338871837402,0.4010681697535127,0.08193839699970944,1.63997712313105,0.75,0.15542225490295575
0.32851162500000003,-0.021389483704484926,0.41208038883534337,0.9021645854279279,1.7396838001224162,0.75,0.1981287396762746
0.42853718500000004,0.015333469579515951,0.527103686563297,1.7648554684236446,1.8408315392014563,0.75,0.2561183110074609
0.528505275,-0.16155617775202494,0.7571560920093432,2.4975691983682835,2.062766030320204,0.75,0.28162867147999476
0.628512441,-0.33194484122041884,0.9973720613969782,2.975588579838947,2.387896744859697,0.6031385409059733,0.2551330265093723
0.7285218050000001,-0.5686541099963186,1.1649773863171642,3.0560991378802735,2.716628211219846,0.45275652167049907,0.23152363504508428
0.828511949,-0.8138725759689575,1.2597211943169644,3.109349805793052,2.8568368980851866,0.4203114332359034,0.22586544619323928
0.9285303650000001,-1.1251902032218992,1.3129347270868075,3.093833894092017,3.0331635178679375,0.4050531344247476,0.2145415236160644
1.028519091,-1.4077857569240522,1.3658926961851443,3.1208425366788197,3.3237623795903364,0.40845561055589696,0.21128815298476006
1.128507066,-1.7130765152581127,1.2632738261442216,3.144185514956028,3.528981064410347,0.3961437790845676,0.20988790238942484
1.228515574,-2.081039217790992,1.1243707676413695,3.155266261148944,3.7771679681659562,0.36740051503674154,0.20484788228804227
1.328503801,-2.2578375754558073,0.8680705738778149,3.1004335558996057,4.053067267149029,0.3698243279764249,0.1983780801527918
1.428507919,-2.445026214426761,0.6292489171703167,3.1392762328026755,4.2284707779264155,0.368157623758229,0.20499901974433954
1.528495742,-2.5731563749970086,0.3823686038158525,3.1169024312901636,4.53429884811408,0.33406352024776054,0.21297068349450526
1.628541651,-2.646537558055145,0.1259810552089644,3.074827688107405,4.628284141633462,0.33038372087003665,0.21053333118144585
1.72851068,-2.6006891096112787,-0.23468480647182863,3.0106730056485134,4.983296758474699,0.3529630523155757,0.22258249856070894
1.828520525,-2.4876620296183476,-0.5025644887272376,3.029605696663721,5.175424517148487,0.359112127609074,0.2265832896260365
1.9285156200000002,-2.344656954657864,-0.8139044758191926,3.026806348590225,5.373356553393786,0.38755521717318964,0.23534954214348042
2.028524007,-2.1071709527638665,-0.9751681509884543,2.9728538819636805,5.669672666896022,0.43169454724056,0.23320811696448837
2.128511164,-1.8541482876420678,-1.1661870761330344,3.0441433952107126,5.804276415213511,0.43534713864451857,0.23226628354436846
2.228505804,-1.5999162389933945,-1.2546244432366958,3.0937678943488853,6.100205102008888,0.4343498405902522,0.21330522753016584
2.32850814,-1.2981537070195988,-1.2709236120069187,3.116502188056877,6.392782458624138,0.4573720376743429,0.22456091600428932
2.428514184,-1.0020415418682014,-1.232638591528054,3.1436411294460527,6.564569248546835,0.42393860023269303,0.21557407899545264
2.528516733,-0.7032937290549754,-1.0777640275872302,3.145356226523105,6.8063624256762285,0.42237559436954925,0.19923792021387798
2.628517336,-0.4340418205142555,-0.9020951371889104,3.1334451991401115,6.9967627531024394,0.40078976190777077,0.20090260341583271
2.728510855,-0.14995842679667123,-0.6833964042447187,3.150961888935278,7.259593572079664,0.3988400635054977,0.192231884897884
2.828546511,-0.03528817422628947,-0.4039348435930475,3.192346865221199,7.45291669156542,0.41424791428067537,0.13727772595143475
2.92850953,0.10034386400207382,-0.09844088891102837,3.30695610368626,7.52985033970283,0.48941791698330006,0.006964746220969116
3.028516812,0.20361532193013385,0.19147289939522713,3.4212766996724393,7.499026650360234,0.4509348599009298,-0.0874806150951108
3.128522684,0.28845051015593903,0.5355536829759366,3.4971057279983766,7.368957348484088,0.40239136180514745,-0.13797088459299545
3.228531988,0.5102463179081868,0.8493441154249072,3.4150252572763313,7.197495638943856,0.359296160980066,-0.1625867190503532
3.328521625,0.6961693781256041,1.085026592771332,3.334624186970735,6.9865232615913975,0.33704614981507447,-0.1718325700389153
3.428509348,1.0218174245236873,1.2202411531563304,3.3465544693569504,6.7011979204964796,0.34270843646950383,-0.17229644724392826
3.5285004090000003,1.3494426258051304,1.4103442366841301,3.2912952556407107,6.50618605954642,0.3676257465007144,-0.17414537598395824
3.628522973,1.6956630086322249,1.4454850171961364,3.3061921114159243,6.266120673080978,0.3544939426064837,-0.16719340965771445
3.728500092,2.002877769029165,1.3931878104335782,3.2185477832726863,6.037390916229962,0.36710767399678573,-0.175880094953138
3.828502952,2.303812044192961,1.3187179805716316,3.2433578885145558,5.8922478038651205,0.37786522963664226,-0.1852920250225757
3.928564561,2.546018451764225,1.1813551178899757,3.1949297076570047,5.659163463732472,0.3670102119402367,-0.19133085621048326
4.028509862,2.7583042314959014,0.942980801268895,3.2553332848121475,5.4621359641944744,0.3669793478066225,-0.18740228178207202
4.1285102,3.0025705673478673,0.6972190149431229,3.1734055715383387,5.188725103142878,0.39969482200117146,-0.19800371126493369
4.228513594,3.0385589044172017,0.3463616885541594,3.1626345885641536,4.897427278991014,0.38506308393878386,-0.1989974640661496
4.3285058880000005,3.1604992099955496,0.0783318036694285,3.158833011811779,4.772338622852103,0.39217874364351674,-0.19477522149016088
4.428506015,3.106284285486773,-0.22850588662003232,3.2282246813538116,4.4901301241820235,0.43588740158084477,-0.19502006123613447
4.528511742,2.9743821511137085,-0.5930097899348848,3.198652663898458,4.249486390009279,0.43550965770814004,-0.19489419535846966
4.628535667,2.873161225490845,-0.8496729951671775,3.2385976004056833,4.0447781522256685,0.42720331151323476,-0.18848112799238728
4.728509798,2.6277574087478803,-1.0078484026475152,3.231816955196134,3.837008411808321,0.46627277224801494,-0.19173013507719128
4.828508772,2.3504225642025074,-1.222882964439598,3.3218241863450815,3.620440131439258,0.43266515855355264,-0.1849816299602924
4.928515452,2.107009673805388,-1.3742798353302474,3.297713910734299,3.3498990470826033,0.4112342203228483,-0.18076549388453025
5.028575773,1.698069314709193,-1.3657470467338892,3.304861520080492,3.1090780864782728,0.4035590386831126,-0.1780642938121728
5.128515216,1.3881804099195536,-1.3611877035911282,3.2567827603591466,2.9143247350664723,0.38536390541784155,-0.17007243984328732
5.2285178,1.0825696862189542,-1.2499418914491087,3.2070601119903337,2.634469937215647,0.13974274129058334,-0.23024647808412874
5.328509707,0.8277385077738114,-1.1574849805508978,2.9406088074255026,2.489251207254429,0.2579037414199555,-0.22488873199890974
5.428534866,0.641815883557321,-0.9942620514550623,2.990775215640144,2.163122904115284,0.46286523710236704,-0.15701243146271823
5.528499051,0.4168028887313234,-0.672770450301547,3.0964113442926124,2.0239783556709923,0.48692091565584095,-0.10960048259521364
5.628509113,0.3822608707601902,-0.35508539370983083,3.3347105340482845,1.8993984318092645,0.47013955535935115,-0.03847054438867383
5.7285283830000004,0.28905559901743894,0.006012897765841144,3.4598246589817903,1.890963439533774,0.46285598352262225,0.051592877979892586
5.828502402,0.12405284996291004,0.23255870448701466,3.6308854231581043,1.9980188082395125,0.3918195867315346,0.11135527441995748
5.928515234,0.012500701878428527,0.6186065800552815,3.600091759636287,2.1357838754673644,0.3145072151476264,0.14561051015311907
6.028505475,-0.24040691011569373,0.9018834847486491,3.6124131656191962,2.317570418193112,0.2759108518274698,0.1736760029018278
6.128504732,-0.4956221260115913,1.1974475918193581,3.5191813577384994,2.5871680332038056,0.2553270185537812,0.1831907515242044
6.228505766,-0.8524402107399588,1.337265768688089,3.3322177483175652,2.818742925305151,0.28183427967849367,0.1774842413149042
6.32850642,-1.1214641404734544,1.4613440453554396,3.230638326184015,3.035295549856688,0.32032363191757673,0.16448743985679914
6.428494681,-1.4649427644947373,1.4571882657374462,3.1870818915604815,3.241317884170254,0.3679902975255773,0.1675130843608535
6.528498475,-1.7688906371126247,1.4310589253140202,3.209746379033514,3.451871335250281,0.3665380435181836,0.17475554974100238
6.628509677,-2.021881880733379,1.2902563014097566,3.2000082765597604,3.611197728711502,0.3439839251896154,0.1740193734042816
6.728508152,-2.3379652583934014,1.043135959510594,3.1767211351575804,3.8937118548712646,0.36413024600009647,0.1812777117122889
6.828505742,-2.544119481969029,0.8525819030808932,3.1133731627906296,4.115471748734098,0.33039369308607996,0.1900549696713398
6.9285016630000005,-2.7037935787679888,0.6043343162187442,3.1327549062008435,4.3271860558753135,0.3302350286995348,0.1955191054328647
7.028521569,-2.79250101949135,0.3017764716839996,3.088733507223866,4.619446304981988,0.3680383146856651,0.194461621716327
7.128509204,-2.8131347844818637,0.03778844118439389,3.024294041075421,4.766223937550685,0.34622043010730724,0.18897815811729246
7.22850944,-2.849876863944509,-0.25254786542005203,3.014247547712291,4.995655643146665,0.3697613466117142,0.20725495650410272
7.328505416,-2.705123244165965,-0.5167626676871677,3.0370371290528584,5.232732092305016,0.39022210031146376,0.21503283049542563
7.428521351,-2.5006748312032308,-0.7799763198092627,3.081415095077054,5.522888567040773,0.40135119727821916,0.2168376011304149
7.528547302,-2.2774197028270957,-1.0162887804975442,3.107337811610656,5.726968254166623,0.42134362377621987,0.1977471371395367
7.628510087,-1.9895217781124037,-1.1593951910430857,3.152600759966105,5.889431117254552,0.4580351934872706,0.20611920640597858
7.728517511,-1.7156649426477033,-1.2649313338517134,3.153336739332741,6.138307632889182,0.4414592511846856,0.21604018331625294
7.828508004,-1.3461076837254837,-1.2374493637966444,3.156258845736064,6.396227853300416,0.4267045491840872,0.2064228373696674
7.928529026,-1.0714929469718943,-1.1347295796330528,3.2329139573594095,6.577772641925007,0.4292378716483631,0.20525363333584104
8.028557337,-0.7735255158697724,-1.111555761616622,3.1982179737103955,6.836670647523389,0.4015609511746382,0.19243655719725286
8.128510888,-0.5286798914968227,-0.9338510160091423,3.1807365283625475,7.049436272715503,0.3924322716799001,0.18078388590266647
8.228506,-0.31864086731811003,-0.5721398682867767,3.1325140248843772,7.340673928887958,0.39942750857681164,0.18747952909050208
8.328521655,-0.1821286160412737,-0.30888402349639293,3.235417728264497,7.4976484327842945,0.440760305608665,0.094683160910932
8.428538514,-0.031415899261532945,-0.05808629210510316,3.3751906236668696,7.582257710742709,0.4589503268035127,-0.004622633918894786
8.528523909,0.07696328756458104,0.3220738640755114,3.434874467898801,7.518681976934867,0.4591114666618835,-0.09345192929970562
8.628527964,0.21670233983303466,0.551749752203628,3.4971328553779726,7.460074528946845,0.3670502115115235,-0.14315407163792415
8.728513476,0.4007551150090798,0.8505268684486196,3.5047170950373774,7.228308629511302,0.39090388898513545,-0.17448994554272235
8.82851341,0.5979369813778893,1.1962637338669946,3.554656511362712,7.027057831628971,0.3506073166562477,-0.1850244303432939
8.928524634,0.8536619365598171,1.3793238299324992,3.5116131437278724,6.831796006183384,0.3252663961005224,-0.20146055046328554
9.028503575,1.1981450057465788,1.5521142551651834,3.4373989279852943,6.615173246270149,0.36557128800208216,-0.21754255930152197
9.128514997,1.507528889398814,1.6747085910548296,3.3506824300033617,6.404967395834392,0.3476953105173568,-0.2223351497193377
9.22850444,1.881365240333376,1.5999476596230178,3.296382770609517,6.108326846297167,0.3613287587919402,-0.2143140934449347
9.328506728,2.0927316380412586,1.6114528316759593,3.2145107896701193,5.8668556440944055,0.39728536159869493,-0.19559282329992103
9.42852113,2.4076557066022577,1.4564198443829137,3.179724379237391,5.630387955259324,0.43328856377527664,-0.19178023146445822
9.528497738,2.6647517183081115,1.2025653147929873,3.211713591253405,5.408451919733907,0.4391300750668675,-0.1992722490520126
9.628507923,2.8778760038426965,0.9966797561845371,3.2438265710302665,5.234062825444352,0.41804474395157104,-0.1903361048591838
9.728508146,3.0084467054343396,0.6458670049628257,3.203029359230636,4.9659014880571455,0.42460008958604967,-0.2077061906053923
9.828505969,3.068193108222105,0.34933034975754546,3.263935396586072,4.809717382537869,0.42379435827398326,-0.2073684552302764
9.928510383,2.9882584874632707,0.015493161686408163,3.243665259873436,4.4735477522248654,0.4087594026250652,-0.20014246483009157
10.028506853,2.9672270525701294,-0.322618494274637,3.210993876879022,4.2844550339687695,0.42981078818528595,-0.19133923622032156
10.128516611,2.74008346800638,-0.539373337119268,3.2760396500139666,4.080589593400747,0.4434893035167848,-0.1951103340093998
10.228503288,2.60512004191615,-0.8193004229100452,3.275705393897139,3.8530993112593506,0.4192917129276049,-0.19377358149968374
10.328507513,2.283744929417934,-1.049203130252777,3.3088057751086035,3.5562732638509273,0.42596857898992196,-0.18070016339654715
10.428511379,2.028581756847436,-1.1538783758189732,3.281276944703059,3.435638027731181,0.4144762888202935,-0.18680055124666953
10.528521199,1.7277175011228816,-1.1638961633072091,3.2852408577096344,3.215619309773827,0.35891450213701903,-0.18131352107396667
10.628525249,1.3747121138355378,-1.18632817412883,3.2906757059404157,2.963492219309613,0.34845768616815515,-0.17891279475801974
10.728511096,1.1067798622518457,-1.1189597254034749,3.2300133908168043,2.6914161361960622,0.33620389748359464,-0.186904997705168
10.828509396,0.7357880221532181,-0.9416353282946076,3.1872498310142876,2.5095040422140076,0.3242188228421605,-0.1896560031393285
10.928517643,0.4868334324968546,-0.7474510980442586,3.1018355595422817,2.2760244443640927,0.3338800434685189,-0.1841717664687611
11.02851447,0.34319324986956956,-0.5261406564201645,3.0741195893613633,2.080395949012515,0.366855086640826,-0.18113197390235
11.128507137,0.20241982186701665,-0.18637550496061492,3.1645998122719043,1.8833356970698412,0.4454369047353921,-0.05516190925262793
11.228524509,0.10542368548611783,0.10867022016016874,3.42037262366026,1.9431639820738025,0.4671204692482531,0.040888976707952884
11.328511071,-0.010495038235026918,0.431614997113626,3.5173716538750943,1.9614468316534743,0.4094939501888716,0.11533955824215522
11.428512678,-0.11042869284618374,0.7224381076085263,3.5526660003110027,2.1326517921358237,0.3132837802108031,0.15245104518342098
11.528503632,-0.3689181195638568,1.0362776020083828,3.5509835051157177,2.3072311417470477,0.26726469114913,0.1686455383734457
11.628506832,-0.6065356360978471,1.2715239993363272,3.4371084243105474,2.5250138556663027,0.26168893301705126,0.18476359228039818
11.72851697,-0.9143478915988985,1.435018601032582,3.3316702800047646,2.818140713597304,0.26772180043668264,0.19178946309904035
11.828497129,-1.2564620163073221,1.476998678062044,3.180406781644627,2.9857693441039497,0.30762843427902364,0.17422739915785163
11.928507687,-1.5648171207738186,1.6184192555256514,3.1344635454150924,3.223787326902514,0.3642300901663111,0.16749558726186475
12.028510707,-1.890856413808913,1.5715895602935879,3.1483771346780944,3.5003891086369348,0.37247383188751226,0.17594868525880486
12.128503956,-2.134566213970174,1.4399339558481778,3.0660788237531054,3.6439438636005175,0.3955915600357928,0.17683119756493001
12.228521675,-2.4123983846583603,1.2154367019804573,3.1977839848187037,3.853318032324069,0.4024009561373894,0.18739816199931575
12.328513546,-2.6532249468775277,1.0284385581573023,3.126498085112273,4.056316246969857,0.3707485537321418,0.18825011468275543
12.428508614,-2.777577444581946,0.7239088875892495,3.1860699143058815,4.290628885266722,0.36073859290126054,0.19696898755249748
12.528500292,-2.8704708669401233,0.3971444849922643,3.053490228638273,4.489890228013382,0.363079316040058,0.1988762593763347
12.628514411,-2.874636184589946,0.10617799181185467,3.1620794436009376,4.755608534755746,0.35013323881121666,0.19416890566950876
12.728510463,-2.8417838824523907,-0.17145719675397436,3.06261562638766,4.987945623940634,0.36729843532366657,0.20325355523355704
12.82853626,-2.698103423219119,-0.43711807127536007,3.0986567129591753,5.185373307282649,0.4073121722028496,0.21051792108697157
12.928522332,-2.526379474375108,-0.690488790805663,3.119355331085897,5.530970302176612,0.4092325605517646,0.21086351296385686
13.02851139,-2.3430797163103696,-0.9475328908490583,3.1083667359206273,5.643366546967437,0.4300120151426173,0.21253778687225353
13.128508695,-2.02510208926906,-1.0266167192691737,3.1555083648013804,5.928354322434287,0.4637582209208304,0.21259450826714854
13.228504727,-1.7942161523488265,-1.1315575943220313,3.205022360441721,6.059956135631657,0.4382267255392286,0.21115541999949808
13.328533488,-1.423919093302307,-1.1540904300198243,3.167255413403141,6.37597495901682,0.42261912811830993,0.20912807445847378
13.428509255,-1.1419119701624054,-1.1119749529641014,3.2050040336663703,6.633601225027615,0.4076475700787274,0.19433164894146815
13.528502493,-0.8085604560208421,-0.9897176154251324,3.1277207488907353,6.898722852447811,0.4022933738026582,0.19105613868787824
13.628513432,-0.5126058068267764,-0.7445084011202845,3.104309562035354,7.066720818558262,0.3811966734044007,0.1772676845689495
13.72851291,-0.37762836765547136,-0.5513451443541157,3.207413034470788,7.306160277370076,0.39883233403795415,0.16876988008209368
13.828509737000001,-0.2661962156068679,-0.23397511081727984,3.1911158564871935,7.461465331608559,0.4242829996512871,0.09112201380958043
13.928521048,-0.11924885817037463,0.05373937578249839,3.346129039067677,7.491829801893926,0.4421359547652501,-0.009853153917144843
14.028509863,0.04620286856971782,0.3481253094353966,3.4105858423953395,7.440940159094925,0.432226996441056,-0.08281124270592333
14.128509938,0.20347815742937272,0.6582446191966025,3.4809826653653304,7.329732757992877,0.3992885808548612,-0.1376002663579238
14.22850987,0.3830112916146675,0.913215072555546,3.47438623722055,7.131299986008579,0.34902063104703845,-0.16096914219282588
14.328512907,0.6176268718942957,1.2059225509565632,3.459575997600011,6.901117760670502,0.3422133303924577,-0.16695124032997144
14.428522075,0.922328567143971,1.3688539850581354,3.413191815958833,6.740641845894313,0.3486498042489511,-0.17020632857039383
14.528591721,1.2653226169170821,1.5017172196989244,3.360070603172331,6.447013815703275,0.35338206611398304,-0.17412771048977885
14.628505147,1.5604485460630861,1.5745189512985205,3.2984369465024757,6.268817907787648,0.3807075241196481,-0.1550128867925298
14.728510059,1.8843045980032156,1.5868972619684512,3.348461841731918,6.067583690702059,0.38171753882047144,-0.17468516552479668
14.828506153,2.1552213437012857,1.3818890484671398,3.266792442331176,5.841816735986367,0.3758436238224884,-0.1833274992204462
14.928510096,2.513175242341742,1.2593097394704595,3.2077092068555033,5.649639987900659,0.3796682500402521,-0.18587745582066514
15.02851758,2.7767192914496777,1.019306930513438,3.2654360016129083,5.436341354418728,0.3839104483198779,-0.19196855767805382
15.128525119,2.9661262049269235,0.7634742491710519,3.273979147835819,5.185253815822554,0.38246024074227797,-0.1945459634331464
15.228508531,2.9990976743886018,0.5094371905521472,3.237939605219959,4.942383963027756,0.3863349851339157,-0.18860744430345297
15.328514051,3.0670096962197997,0.22511650038726663,3.2187258851346567,4.744203336435892,0.4100193585740574,-0.1967803181737135
15.428511306,3.0574442395934676,-0.15077689532311103,3.2474591589154067,4.543202417095131,0.40640461797831334,-0.19376341332288124
15.528496227,2.9425169022109965,-0.4759831969885876,3.230170406408657,4.288596498494098,0.4231452783338802,-0.19797239760821703
