time (sec),x position (m),y position (m),forward velocity (m/s),"heading angle (rad), from x-axis, positive is CCW",throttle (unitless; -1 to 1),steering angle (unitless; -1 to 1)
0.12982042700000002,0.7683308586319789,1.6046635277909456,0.04454520433555223,0.6644548286855975,0.15569415344833348,-0.28054139279445894
0.22982502900000001,0.7428734905356321,1.5815565097264697,0.01158732657211654,0.593945670612224,0.75,-0.18959569170678175
0.32982425400000004,0.7396301979944682,1.5893477236849,0.04466814495998488,0.5812843262860966,0.75,-0.22444597734001634
0.42983883500000003,0.8570535840353292,1.6453561996945008,0.7579925183265975,0.5425091770559123,0.75,-0.29105412373307876
0.52982063,0.927274419872513,1.6610294673206891,1.5787731435807917,0.4146283088661574,0.75,-0.351503176615135
0.6298295780000001,1.0980316975313993,1.7687085337000363,2.3110180789311983,0.16215238416198308,0.75,-0.3548912757679794
0.729824526,1.2893922680120784,1.6510259093592192,2.770556052017816,-0.09034404165345905,0.75,-0.3287922655747776
0.829830649,1.669537421919028,1.6112462815003594,3.045312663230029,-0.3790769170550007,0.6662595183609545,-0.3083688304203336
0.9298250050000001,1.9376537538107637,1.4438177278172968,3.1465607185775903,-0.6661617830031494,0.5432416627909583,-0.27221173189659953
1.029826892,2.208344804411452,1.2530081246942955,3.245639732741268,-0.8824225705301032,0.5081452692598438,-0.26399233962988605
1.129816259,2.3692954503554153,1.0270222534918312,3.2991507070683266,-1.106614363556436,0.4830946085427777,-0.25731838547468444
1.22981384,2.4745834261392923,0.6772793396548011,3.224036987325064,-1.4084723405516386,0.44212553548730377,-0.2419246744026199
1.3298242789999999,2.5322244814604384,0.31684509375466147,3.348251441533475,-1.5974566924676954,0.41734803212805693,-0.23897147611820596
1.429820671,2.4327935504767955,-0.006293456538497326,3.3112017021791047,-1.850016688199428,0.40448348961643643,-0.24069137704103472
1.529825433,2.359616876057781,-0.288552159947589,3.2158619322101387,-2.0404692317962314,0.3890067446429057,-0.2281856053114554
1.62982777,2.171783654343727,-0.5589098095939071,3.192481684851031,-2.3008253886578744,0.3752814632494792,-0.23082981641747793
1.729815752,1.9240678640307727,-0.7832417279264977,3.184235103255843,-2.6248894685150064,0.3755027089765343,-0.22595359894830613
1.829818198,1.7097296658127967,-0.992058631836209,3.1578870613494283,-2.726928950233152,0.38242637233850446,-0.22528809250078022
1.9298209640000001,1.3958974507146933,-1.0941542151034434,3.104491330590699,-2.9785287825848963,0.3441597423833579,-0.2255936488678466
2.02982997,0.9970227947860602,-1.0211925736783092,3.176336490685721,-3.2021284131555063,0.336967659459608,-0.22586104662486645
2.1298294110000002,0.7885107459217362,-1.0119128210636188,3.13753946518876,-3.3849986683039526,0.33404176603643726,-0.23176030943930326
2.229829231,0.46158432644356556,-0.8722968878339274,3.0525744567234954,-3.641140739796594,0.3219093594949801,-0.2367549836370533
2.329820945,0.1895493888042186,-0.6702881519707085,3.0148826812448486,-3.9050913380839796,0.36176264736686264,-0.23527374984834679
2.429827765,0.03163499644616048,-0.49281709690860465,3.0734818174654244,-4.128956265706246,0.4184546819283815,-0.19678263904359616
2.529827506,-0.13956481360330827,-0.21594614218591632,3.1972663339783405,-4.236236087007132,0.5002892187015396,-0.08202233708892284
2.629814231,-0.29144801723959685,0.11333379050443454,3.47162921278034,-4.164617551660823,0.4746536815205483,0.011935428086087184
2.7298263570000003,-0.4651779611736115,0.37645171599006955,3.6134967529632607,-4.165764906387359,0.390890897965139,0.06550784787017963
2.829825125,-0.7037351771392353,0.6159266838580405,3.6242568263386756,-4.068885959796205,0.3255993128705225,0.11059037244882064
2.929821737,-0.877653367984817,0.9472916509716995,3.542409633218123,-3.902966132707505,0.25025805994732836,0.1417735406713665
3.029818531,-1.16752981720532,1.1656454134510956,3.453074760786171,-3.6338163512615496,0.22092150704319274,0.1583892464904843
3.129829421,-1.4664138140690794,1.315785852581928,3.3424449483929615,-3.4601606468591695,0.2081536621521172,0.17227639689674884
3.229831209,-1.8225292659825436,1.3798232799359036,3.165163968550846,-3.244586442175171,0.22295593187030505,0.1747280892126459
3.329826746,-2.143621574703404,1.3549857459115786,3.0855174274732837,-2.973631677533286,0.2749122440047748,0.16732548385214793
3.429825663,-2.412208641671811,1.3066495089065489,3.0271536998020268,-2.739687171264207,0.32850307573645054,0.16908092007737804
3.529832642,-2.7107376736057986,1.1975166427750634,3.1050953059975246,-2.545316723141003,0.35777499386685,0.1761577667153864
3.629823692,-2.91993645249181,0.9549241798340027,3.0004826112655536,-2.334207225325205,0.37358139114191596,0.1818022695929113
3.72982481,-3.0678336221409066,0.7172917370740421,2.9884015159147674,-2.157089759462402,0.3920712274761311,0.19269330888257494
3.829821067,-3.255237472753446,0.49944928890627416,3.0553310888934924,-1.834909703130545,0.3873288298896139,0.1936275364949587
3.92982742,-3.236589159867953,0.16775141407985075,3.101524762715618,-1.6870036072240142,0.38780637273093915,0.19613648560733488
4.029838248,-3.3003115599065094,-0.1366311377558891,3.0880764546695096,-1.3795718175757856,0.4152870883673004,0.2008809494573776
4.129827514,-3.202443706551343,-0.4131435929986883,3.046771201030101,-1.2056490788483762,0.40758973228816336,0.19826693696558526
4.229823909,-3.124682513706473,-0.7412284010361866,3.1039251032634514,-0.9134384832077961,0.44962555849169167,0.2125218192695
4.32981752,-2.877469512600334,-0.9946290353669154,3.1600810100734513,-0.6906299987911302,0.48924042169205567,0.20956509457067407
4.429825022,-2.6128814113324594,-1.1594735696650305,3.268646194799252,-0.43581419952022804,0.48846635081460915,0.20735728511077942
4.529857745,-2.2820461303897197,-1.2161029774866643,3.2195991578016194,-0.24088415295738422,0.47378128304581574,0.21230668904404035
4.629833169,-1.980499452907863,-1.3766013569104478,3.2886709743543237,-0.00762117088266355,0.47999448424189195,0.20994456645335663
4.729820237,-1.6833563062775312,-1.2728858018239473,3.2892742893298084,0.19550944179082314,0.46430120745714876,0.20246370080246567
4.82981909,-1.2790722481444496,-1.1937145860785423,3.323519559385736,0.39950320694957336,0.4353722503382288,0.19490238036423443
4.929822879,-1.020102826480843,-1.056105108455227,3.316704180384723,0.6243412200324696,0.40829835773969075,0.18722151410356605
5.029817884,-0.8319136353754424,-0.8457771070995977,3.3651149271594725,0.8641596191980397,0.4075930776152189,0.1848834900096297
5.129818637,-0.616655072270637,-0.6165131556801776,3.294304409844992,1.0818337650034653,0.4312591854725848,0.14223079099114352
5.229829172,-0.45633414595400745,-0.28726750853401745,3.292597404454802,1.268409338283009,0.4625070599732713,0.055937423909248864
5.3298197,-0.36550252609609113,0.0039327057331843,3.4549294143597185,1.1857851285690855,0.519943089174773,-0.06148639735488963
5.429821437,-0.24048881734919056,0.36682934294712677,3.5384238265696912,1.2229393993494158,0.4535704897408969,-0.1259907998451758
5.529815367,-0.06673840523169952,0.7521461621920947,3.5992467836001674,0.9976637889684675,0.4003064302167006,-0.16652939497647906
5.629831234,0.14316132831091885,1.0197800845149572,3.6221367755999805,0.7597975078872933,0.3737491594328709,-0.1868505110451936
5.729829782,0.3350783677617604,1.2405413830325729,3.5633855294669714,0.5899847058241813,0.373415838276023,-0.1861541917675384
5.82982144,0.7158413161061031,1.402537592969798,3.492206007761523,0.43176395110514304,0.3770760995104741,-0.18314786311344106
5.929819213,0.9909942602151068,1.5017524432587115,3.465048539434082,0.21316900726832294,0.3875964547073458,-0.1861932943389521
6.029823381,1.3308394824853775,1.568491394740476,3.378076396779582,-0.043922658959006725,0.403099540332532,-0.1867877274266387
6.129820696,1.707239523584205,1.5101109780932713,3.34918093176705,-0.2506017114391226,0.39509103130655565,-0.18841450822190292
6.229825405,1.9976597901707673,1.3955683847395781,3.303249701175095,-0.4820308086454983,0.39689663912024814,-0.18754566450808907
6.329828476,2.241617863108671,1.1933883087606625,3.3348161268199465,-0.6968293799923984,0.4243185831568777,-0.19109035010337688
6.429832595,2.5044922706619905,1.0303904022948254,3.3484193759755736,-0.8703669958974687,0.4088772405491341,-0.19482145865414643
6.529883934,2.6126156790907538,0.7262742501307514,3.325288589423409,-1.095464791076351,0.4145154212243384,-0.1962079910351297
6.629825938,2.8392834762723673,0.41892654217184994,3.3538482456476917,-1.3525805886211377,0.40753445018896844,-0.1909034256993736
6.729821997,2.8569309984725795,0.05538279443549354,3.3502639417106477,-1.601016087388783,0.3958926348249147,-0.20000134213554946
6.829826251,2.771436212379738,-0.27188961101032566,3.2984121802240787,-1.7579157841391564,0.39139582725063315,-0.18986942108089747
6.929834541,2.750610730126175,-0.6411442662884976,3.270169572333782,-1.9818038984561783,0.41785640694513543,-0.19499959810809991
7.029826503,2.5659747967687943,-0.8235723021641891,3.2885372141272433,-2.2335945921090383,0.4038308992634455,-0.20021995555951683
7.129820714,2.4117178657136655,-1.0626491097263178,3.2800757267061122,-2.4771193349865577,0.4037909456973801,-0.20057877649903327
7.229830411,2.113719076659027,-1.2676845297976889,3.24495528130875,-2.671553048115403,0.42918618202796815,-0.20157011250251303
7.329817101,1.8359327930873122,-1.4456126921835684,3.2760786305402454,-2.8536787923529543,0.4053937781070806,-0.19772075947293125
7.429816337,1.4988867791966152,-1.4527604651174966,3.242541517981494,-3.1170854411143947,0.3742551458627056,-0.2037761449653755
7.529847153,1.1851502299218855,-1.471468014228272,3.1975527333407427,-3.2419245691568523,0.3834335954172785,-0.20369608819502838
7.629818981,0.8382662185598551,-1.39286401424785,3.1696641198337105,-3.57903927269885,0.35971147207907317,-0.20642780813509068
7.729820594,0.6203177360942499,-1.2820796304504527,3.194975514786319,-3.752442522390554,0.35050429490332213,-0.20674745068180367
7.829804033,0.2932921160338412,-1.0733922552275343,3.178545606863138,-4.027317189564914,0.3883294066100804,-0.20674662320227544
7.929824966,0.10226893392337974,-0.814862096821465,3.2442777140858023,-4.237226207487547,0.45573991486238774,-0.142564286507127
8.029824875,0.00010753515632944133,-0.5325294887534443,3.350884739183336,-4.307613408292686,0.48956527410994066,-0.06298332443405374
8.129820158,-0.16632491133078653,-0.20804893143096864,3.567086839408592,-4.319619040808851,0.4567044520643072,0.03076067623226357
8.229828177,-0.3204615498019878,0.1199026821738399,3.6778308062567397,-4.17556168040607,0.3999512362493152,0.08507217689528489
8.329882145,-0.5675215870491457,0.49358879994473,3.710818418825266,-4.110133294771862,0.30134659881538806,0.1227885725149148
8.429825357,-0.729336342280198,0.6591199567246593,3.662119179512125,-3.961107136495632,0.22971808392452683,0.14705872445864912
8.529811803,-1.0706267672431768,0.9555856455087858,3.5131096030026407,-3.6419861630858694,0.21026536262431797,0.16586550612550074
8.629825697,-1.3523783617904896,1.1741018800661553,3.426788554894138,-3.456796804116379,0.20239506595592174,0.15974519737001636
8.72982154,-1.6851895719699388,1.182816406060804,3.2882894178640742,-3.217897203870467,0.23896037273155424,0.15995243410522708
8.829820393,-2.0014398337635,1.2663349796188181,3.1372006961327537,-3.031417821257411,0.29885919360137636,0.1669926795535656
8.929811915,-2.369848315408566,1.2025917038137022,3.0967360244168183,-2.758782539458008,0.3112914411372358,0.16810933609279172
9.029831984,-2.592109663678562,1.1134796234989146,3.040465146212757,-2.6004292612677613,0.3321404235264122,0.17006150327811587
9.129821442,-2.8123794990072524,0.8574766123850538,3.018958758053034,-2.3280213418522266,0.3704620394941848,0.18496728289642092
9.229888002,-3.042309359198207,0.6191062834868389,3.1112635205852692,-2.1435070185335867,0.3710093100795164,0.19109381942566467
9.329832643,-3.121146884084296,0.31101298764954555,3.112253451297928,-1.8559227203419348,0.3534304162813243,0.18799947179284224
9.429830653,-3.203609785111555,0.07674736387385803,3.011483758948335,-1.6954563013014539,0.3805431172752649,0.19876825497472175
9.529865392,-3.193728841804937,-0.2649760520246779,3.142901540430621,-1.3914365784253442,0.3847638394620568,0.20598010706572403
9.629824896,-3.1226593337999002,-0.5590105137367419,3.1269664353419278,-1.218180119492543,0.3941096299905613,0.21005457551184445
9.729822233,-3.037958805032362,-0.7851915625380654,3.137550450040142,-0.942067561225857,0.43621787149784724,0.21093079443007448
9.829826783,-2.8113577594071035,-1.0636538629287058,3.17782132884741,-0.7218913001165971,0.4682690436567289,0.22174921301186917
9.929827591,-2.5493341178275357,-1.2394624351586163,3.1889172845569873,-0.5053841758778684,0.46923918499494915,0.22284990758420734
10.029821466,-2.2386890715284418,-1.383040330816671,3.2233704380559725,-0.20730324830258695,0.46927004828920255,0.22485592657124026
10.129823672,-2.00717996750089,-1.4494290992820822,3.209377533781675,-0.09835189405218872,0.48547907921210254,0.21054044265468574
10.229822307,-1.6046976155217254,-1.3869513340038417,3.3105908960148573,0.22158775276627704,0.46242996833157485,0.2073941457119953
10.329822925,-1.2985467665844768,-1.3546429441206154,3.3208080033448932,0.4173619716420413,0.44910524562742693,0.1998558707194903
10.429816251,-0.9577190692834683,-1.1566543276857235,3.3168000795655486,0.665709354155943,0.44549428491217835,0.19903271954001023
10.529830464,-0.8261889073522017,-0.9930767590552749,3.291807405939756,0.9008522663480832,0.40039841702760576,0.18130816209477768
10.629824122,-0.5883426306907169,-0.6790442544183414,3.340272002392025,1.0983588789014223,0.44020700173537436,0.14468214421545278
10.729830813,-0.4289357145779037,-0.44542063827187794,3.423048205365595,1.187590297981723,0.49249857380276335,0.06518329886167386
10.829875548,-0.296192321991957,-0.09829361347544699,3.4980359953152007,1.2674210684953855,0.4952849725964164,-0.044168465418170946
10.929825126,-0.1283825857840808,0.21093814472683634,3.59134465644827,1.2510153085952842,0.445392090282703,-0.11927107947610248
11.029823059,-0.05846588334514691,0.561726429409477,3.6139632523530523,1.064886563915242,0.3855775473349947,-0.16313676390930376
11.129812278,0.20610243053605376,0.8988532356678627,3.5692088735908363,0.81869349052945,0.3613983578644693,-0.1839606961229007
11.229820697,0.3840895640288779,1.1193295985897824,3.5004948518805983,0.6074408226633883,0.3544668454318062,-0.1862477352653814
11.329836047,0.7957183211437786,1.286788980110999,3.50488259112173,0.3855475759232967,0.36936231674800934,-0.17581611012204015
11.429819701,1.1010201318604416,1.3955155140195572,3.400418682466332,0.1775834888079852,0.3869776511300117,-0.1810237547965016
11.529818147,1.3620324422409507,1.4831492963824473,3.3828698924388623,0.017888394434407512,0.3816504454320564,-0.18810194828468074
11.62981356,1.6701783385675586,1.4357219426243122,3.325847095928409,-0.2459664506924146,0.3803674333667191,-0.19606032572510587
11.729822057,2.022927019999928,1.3627298249661808,3.302613742867403,-0.487797838544095,0.4002136783390255,-0.20091972560523547
11.829825641,2.2834111694662163,1.1570921518389745,3.319968640518881,-0.6989840234919851,0.3917793944128474,-0.19493179202469232
11.929827286,2.536751299042423,0.9810459599873158,3.2661807908739307,-0.842537500666706,0.4024825131466154,-0.1885857360780961
12.029820828,2.71343145172579,0.6653552134709311,3.291910958484023,-1.1065179082931456,0.427601460735461,-0.1998811977690893
12.129819927,2.8750888093290135,0.3513774704531914,3.303324865407229,-1.3180574664682674,0.4057592531644792,-0.2035330652004793
12.229817673,2.9195094162048596,0.03831526723799226,3.2986503577281825,-1.5648409234556562,0.39842174678569936,-0.19613872409755137
12.32982734,2.876692740329812,-0.3078294495284935,3.283289750626465,-1.792272728700884,0.43035788079893517,-0.20441959664709686
12.42982774,2.7706207400927045,-0.5587966293763466,3.3129104202973,-2.0360643003057546,0.41759523471761556,-0.20450111217477698
12.529831222,2.6280741855691505,-0.8760263803255046,3.252630388945234,-2.1818129315408332,0.4128155030212637,-0.19923828718132347
12.629824343,2.385779885039861,-1.1170500257285003,3.2694851899173925,-2.4517411409585543,0.4264668330698851,-0.20189098506127565
12.729833046,2.1503658392963567,-1.3374322596277544,3.2479265958462813,-2.738544117643626,0.4229189937585874,-0.19835377163786788
12.829835128,1.8100480046023115,-1.433422500475261,3.27050978906433,-2.9262921587831316,0.39901292349069284,-0.18877794357981273
12.92982695,1.5748146696153886,-1.502590091732768,3.261603977394714,-3.129389124472214,0.38500567225377125,-0.19476443183584372
13.029823229,1.25529042619624,-1.4978075383574347,3.2340439374653207,-3.3488851298456503,0.3682831274503221,-0.19587686174822444
13.129857854,0.8704424438006526,-1.4650892907599686,3.166525926251337,-3.5657522317850496,0.3595928617310499,-0.20440574552328625
13.229815355,0.6293877932102362,-1.2811330304154291,3.2054514959817384,-3.773301991548836,0.3594220604163833,-0.20988979380650966
13.329812674,0.34598625680145034,-1.023516581960117,3.121951735379078,-3.9721970197176724,0.3719478459043609,-0.21111169111226816
13.429830137,0.18850561000300872,-0.8264285093969216,3.203006122672705,-4.23403626040324,0.462234694421495,-0.14516440911873846
13.529823593,0.08208999504635633,-0.5534114743579339,3.346523362975686,-4.268193178344327,0.4921189111874715,-0.05910426826100022
13.629813467,-0.12912651660327928,-0.22848481081321403,3.6086245882304393,-4.292785116394542,0.5085426859736751,0.03344699159132396
13.729869677,-0.3152714579140226,0.13290100987202394,3.718288184689602,-4.2140036531462,0.37971287825796846,0.08359241554332578
13.829818565,-0.40643057276373795,0.469059836036026,3.755494531927157,-4.065540466951145,0.3140910673210072,0.11989550485221771
13.929832411,-0.7345781674403437,0.7170227330470669,3.6969540788074777,-3.877801949211926,0.25940806986602466,0.14578262025987104
14.02981709,-1.0043181028303856,0.9419691880443278,3.632779779777902,-3.694149745202127,0.2133405503429406,0.15417542159186756
14.129823839,-1.3257950053178331,1.069329783948852,3.470272680982287,-3.511998546471481,0.19792872005318526,0.16969140246407693
14.229819165,-1.6619070656488177,1.2128627775097212,3.2848470106815966,-3.260257825096213,0.2364007158609926,0.168460216993161
14.329821189,-1.9073839506194326,1.2155064735676209,3.1512808673268315,-3.0141049326286464,0.24386757931666933,0.1606619463054621
14.429822678,-2.2494447948255036,1.1612167514363874,3.0115692726321144,-2.800423236972944,0.10801124282664436,0.21454238684404012
14.529816939,-2.532491565748062,1.0571318463834922,2.745766609462638,-2.5629253149274054,0.06839350412730383,0.3024522134375726
14.629824416,-2.744631765816926,0.9297063056512707,2.60146819892632,-2.232018776236058,0.3987763934211886,0.1856179096174321
14.729820302,-2.822411707614638,0.6843582657364902,2.876896974080289,-2.119246392583703,0.5049151078198438,0.15085288672111852
14.829822259,-2.9312808431721424,0.3937053104337826,2.941230589917954,-1.8704381941370773,0.47463044539146443,0.15952641803607415
14.929834567,-3.0349243915524653,0.10788828846976013,3.0936261724301612,-1.647126675884088,0.4092820830553838,0.19060599095047207
15.029820218,-2.988263727391027,-0.19842264106810928,3.151032583187045,-1.4189722239845561,0.36742729360562654,0.2063622641095545
15.129816695,-2.94677878225725,-0.5678058525643985,3.1286528359583623,-1.2018542091300974,0.389548650802747,0.205891113099895
15.229835183,-2.8349968786692683,-0.8126887385422737,3.0499010245691927,-0.9277731565328802,0.4060130257345517,0.20632613144513612
15.329821515,-2.6390483311581265,-1.0483246034220257,3.1139943291014918,-0.7344767319654386,0.4220071619005643,0.2026934720327726
15.429819476,-2.332071165155421,-1.2860188780639639,3.151050028249954,-0.4941363390314954,0.45797017499482123,0.21935953370728067
