time (sec),x position (m),y position (m),forward velocity (m/s),"heading angle (rad), from x-axis, positive is CCW",throttle (unitless; -1 to 1),steering angle (unitless; -1 to 1)
0.139562327,1.532309378837938,-1.5233741429736354,0.14506507425993087,2.474007021678244,0.65,0.04851677737882987
0.23956590500000002,1.5070106201405782,-1.4171932098109334,0.6189760875522677,2.555235727588814,0.65,0.07989161109205661
0.339440369,1.3873041806425512,-1.3756020202640802,1.1665489533566606,2.562815391137152,0.65,0.024981807213960264
0.43944020500000003,1.2976723573706501,-1.2900188753726807,1.7797215624021216,2.515396029977864,0.65,-0.05116421078481121
0.539440797,1.091084726426513,-1.2506158911560037,2.1297639183085733,2.5414642593631465,0.65,-0.13375177671035288
0.639438555,1.0007438910374722,-1.0249339483840714,2.608630340210054,2.4003252120304794,0.65,-0.18229895403600788
0.739438464,0.7934011774033247,-0.8171081144674557,2.9118929210773463,2.2161003309763356,0.6220783784892512,-0.1995616546287921
0.8394341580000001,0.5646330781110103,-0.5934618289674676,3.135701755968384,2.068144286354543,0.5275786820950995,-0.14170352432352884
0.9394347660000001,0.4766992956452962,-0.24712596613410753,3.422248373215687,2.0085491547600554,0.4719805180873216,-0.04547506420919416
1.039436274,0.29646209140356106,0.05483757253289816,3.4847491394106322,2.0032102917530117,0.48774308704285096,0.033958046006137
1.139435286,0.18106550484848322,0.3628434445823496,3.5830323602867336,2.1323631832194057,0.36284197970493615,0.0886351976926812
1.239449381,-0.07696116360970784,0.6644729774272286,3.5889419457914666,2.239580617528718,0.3051437491547523,0.15822363934328418
1.339438381,-0.2514074220676077,0.9390811704274616,3.5212835493985084,2.4126807984973775,0.2793834431427584,0.16097260217706671
1.439434997,-0.5422762843977016,1.1384122614261452,3.417887809170843,2.634424475567762,0.28939133135264083,0.1750258875620697
1.53946083,-0.8224047275367213,1.270918007292307,3.2779389280415336,2.8589108239381935,0.2800215623711742,0.1737833183712959
1.639437644,-1.1769919155366917,1.3343858193188487,3.233817412301198,3.0904200089311833,0.29352227064940906,0.1831854177498996
1.739515026,-1.4719819911406928,1.359265831722705,3.1350330535719624,3.294119006089746,0.32385221115751,0.18966187862220146
1.8394328830000002,-1.7576418246821834,1.3081503218200297,3.089800767674288,3.53979469850979,0.3245761956506209,0.19539756155116697
1.939437732,-2.0081719777276557,1.1390834798887464,3.0804046453585974,3.700918931235816,0.3250613221119025,0.19867830385017646
2.039566877,-2.2232409301852503,0.9675707160197954,3.0236102136027183,3.949236685022606,0.3651712602644417,0.20461545949012616
2.139561755,-2.493727795004186,0.7354010608188224,2.9861496862239885,4.138617243864191,0.34504185360569833,0.19779023836791385
2.239493021,-2.612398358747039,0.4839697120341818,2.9598934735646503,4.386020590109817,0.359445929397972,0.21768612130988244
2.339438558,-2.6711410948356975,0.16279848185227044,2.987968575258779,4.599939925392301,0.37481045235528027,0.20481973456219568
2.43954129,-2.746764869898032,-0.11791692643229708,2.976058864933443,4.88025322244692,0.3811304269081903,0.21260158341174246
2.539434376,-2.6489094286075323,-0.43031888989374195,2.998339851824629,5.10140445852528,0.37866661411760405,0.21700748169852713
2.639437316,-2.512780078429018,-0.6262953011344972,2.985727830240259,5.259843792433864,0.38352860667673494,0.21681656750512474
2.73946928,-2.335492951321418,-0.8448440878251436,2.972252870026936,5.498938897708233,0.38895380930953455,0.21786290594015786
2.839433806,-2.0648235388093337,-1.1650025039545242,2.921046237779606,5.746885045336377,0.370964102822609,0.2166720027141107
2.939438016,-1.8229166744370517,-1.2481825303278635,2.9285327511654415,5.985109363838778,0.3639308317113468,0.22175501921337556
3.039435034,-1.5541835195207763,-1.331296767057014,2.957899278428146,6.18805228538954,0.35711352405685215,0.22141990047915963
3.139436135,-1.188863996340213,-1.347627672817946,2.9220931985710137,6.436476853074358,0.34908043466554417,0.23338795195450077
3.23944011,-1.0161597638738185,-1.237400386353866,2.881288559677503,6.571690625298567,0.35740720252764197,0.2225265720791222
3.3395483710000002,-0.7822721610350405,-1.187466691209699,2.8583428171069603,6.806791009114155,0.37630976268813804,0.21871824576912077
3.439448873,-0.49933900084109184,-0.9792659593803706,2.9148294701558473,7.099568061857753,0.38317522257784564,0.22529286879111
3.539436298,-0.3045749449419103,-0.6916690388406371,2.9228331939919094,7.340384063008284,0.42573317616900436,0.19547017401799027
3.6394471250000002,-0.08772461902742167,-0.4531946776815145,3.082204478686125,7.482843499258719,0.49179553451525393,0.09824245946649099
3.739458258,-0.02909051234783868,-0.16704815488421074,3.205610091294112,7.537319822425738,0.4644627909130895,-0.0095519045343069
3.839436474,0.12783335525412715,0.07297123537320124,3.318775517050149,7.508352864295985,0.41731478227168217,-0.07928013492923675
3.939452884,0.20643979273490182,0.369374102297298,3.4267463221266916,7.369941373460829,0.3562045538382682,-0.14590586307505699
4.039460049,0.4031866924823351,0.6715487273988485,3.3855950108435735,7.265594968781933,0.28950931444262773,-0.19091099602437983
4.139434551,0.5739886422004318,0.9635190712688807,3.329433935677077,7.091391615709519,0.26293857933326237,-0.21603834625490415
4.239440374,0.8379144201483547,1.2298105497788754,3.2321517367409434,6.788886337607542,0.27461838961665347,-0.228757557764117
4.339530429,1.1718548688108026,1.3427589851910289,3.1022689758619295,6.557525100672504,0.2829350444818932,-0.23252883545767328
4.43943767,1.3892022925798808,1.3872768531313606,3.013443936943115,6.411026963349556,0.3264043721236403,-0.23713232938647655
4.539461071,1.7626059683538575,1.3736523028496477,3.019574479495546,6.189740373148349,0.36465851008911476,-0.24127410639845515
4.639443294,1.9891961297596357,1.3178044371838509,2.9877367181834735,5.93100765099996,0.3747266088331209,-0.25256407065841424
4.739460911,2.313194163902243,1.2079271945656367,2.987655699424809,5.715065324802824,0.380524077782501,-0.24715501250987307
4.839434847,2.564825191538229,0.9511105178483009,3.0046605685208183,5.413930920299441,0.3944622154676627,-0.25174299018842916
4.939457604,2.7169928846416265,0.7036639239332807,3.092230785283761,5.271715078407484,0.39353105113173475,-0.2502372704850405
5.039516756,2.862276349594125,0.49159886607409553,3.0384568957769726,5.042743182475564,0.38640460315486475,-0.25975193343449066
5.139585806,2.957826464022586,0.2669752187608083,3.0533237451742963,4.824560074765996,0.39575135326423705,-0.2567178162035949
5.239438947,2.9648480871399143,-0.09958148268450112,3.0027100306191747,4.559094004544862,0.40036727392275084,-0.2629520869749821
5.339450332,2.8183125965483438,-0.40315381515470383,3.00173783541295,4.3640709943861795,0.3787827640990532,-0.2536626640184485
5.439436462,2.6337259698590287,-0.6490718074019126,2.990022127722995,4.078565006082022,0.38289342656047304,-0.2549356245346147
5.539434963,2.522073466032701,-0.9509026121402799,2.9460729820161426,3.9215138306053454,0.36277325872244776,-0.250863800409991
5.639454948,2.3650249947303332,-1.0875336537971765,2.9547074389801495,3.693052136597579,0.3561055694776012,-0.2566562686537713
5.739439959,2.0271549523133374,-1.2382055637609364,2.989452143213528,3.390118972838902,0.37751925299079486,-0.25861391585083765
5.839436732,1.662151538995746,-1.2074765495786288,2.988879630883173,3.195266811675821,0.37334784290586004,-0.27090162311444893
5.939433843,1.399445808501592,-1.2246952900992043,2.9380270347519613,2.969659061424401,0.39248782312597286,-0.2675272418003497
6.039501282,1.2110920709793873,-1.1862835474529423,2.976735468780294,2.6618097795567635,0.42385971581649867,-0.2647450686311481
6.139432785,0.8707695658603183,-1.0472086243458498,2.978896961550774,2.4752630110911924,0.4502950481543029,-0.25949330989875474
6.239438684,0.6672464004968715,-0.8103979567856207,3.011960225210492,2.223653642435799,0.4544455198911233,-0.24075094548046352
6.339484495,0.5934345643345998,-0.5570244854229962,3.131320904088995,2.07877412194329,0.4654306132383351,-0.17061048077865731
6.439434544,0.33320297607452976,-0.256925653660983,3.309243387364243,1.9740590975305126,0.513805408797635,-0.046251372139715904
6.539503765,0.24313831209027173,0.04568051235137653,3.4524977964953094,2.04349839413163,0.4541562417832642,0.0409830098457348
6.639453121,0.08477161723633161,0.36092864865712987,3.4956200233117927,2.135329352794572,0.36421535438588876,0.09260522883100754
6.7395377320000005,-0.0945786160934235,0.6741301883545027,3.5294043120140195,2.2284796741065778,0.34150914496213697,0.12951911027184967
6.83943711,-0.36916635738348547,0.9620063178428676,3.4608059725523193,2.4311727029097745,0.28272361958243825,0.15621439614326363
6.939458782,-0.6453006142843098,1.1325973177757356,3.389979085894949,2.6326187504156895,0.263147010924465,0.18548048024916733
7.039553285,-0.9893965995480534,1.2721554098975172,3.3052914786979195,2.836985804239394,0.2876942838920243,0.1925995265596874
7.139433869,-1.2526834824152357,1.338829056904879,3.1985483947424913,3.0918720861496123,0.28670958905941213,0.18182628586738125
7.2394351310000005,-1.4836858778285735,1.3555640726632114,3.1113448639381276,3.2788835860697256,0.3084322474858474,0.18792114309964064
7.339439667,-1.8262107522480115,1.325407512142605,3.0847799522945616,3.4218576159991128,0.3314093581292718,0.19835402512241113
7.439432427,-2.1831637445955505,1.1809470135813391,3.046581349345096,3.7118704560111895,0.32405584340860466,0.19296256652410906
7.539532845,-2.384112449643504,0.9352207057082741,2.9606936586698245,3.9216879862050766,0.3427681681747539,0.2041147364454252
7.639536042,-2.5373247576615694,0.7952831357749109,2.9678603452988157,4.201710102434418,0.3752277835846115,0.21088631130642738
7.739435117,-2.650836676471879,0.5287417145674013,2.941339385089464,4.430698050023545,0.37628574910761287,0.21606733195577044
7.839433264,-2.8069194891064604,0.18638984871368083,2.983179654154115,4.616788004591237,0.38053429763808816,0.21543157076236186
7.939560511,-2.752671294957292,-0.1339723196199731,2.960420022985331,4.792082071687957,0.41487571197366013,0.22344739808305752
8.03956444,-2.7013692434998346,-0.3909468936023717,2.9789138100235775,5.1077940648614,0.379780077158317,0.21455807221430637
8.139434409,-2.5287175844412126,-0.7476832399847207,3.0516985381461126,5.28652128574477,0.3783028286526885,0.2160776204831029
8.239454921,-2.3909903904532475,-0.9026374011897937,2.9706370237605335,5.496661724226351,0.3897641364715174,0.20628443538952781
8.339438271,-2.1381123892157823,-1.1349180810196795,2.974799583313288,5.7639667246264406,0.37807907009917385,0.21243429604638592
8.439435991,-1.9225761168620321,-1.3110260152816076,2.966895372385231,6.015302125085982,0.3672653960667378,0.2245445361546785
8.539456769000001,-1.6463468530768401,-1.291276035153097,3.03403646084285,6.156973842908435,0.3704930575212045,0.22485310783106638
8.639444075,-1.3405248713618392,-1.335069087223342,2.945626759162142,6.362080901289968,0.36501552376953716,0.21848519873330494
8.739463938,-1.085806134340661,-1.2721798569701108,3.0061856979411026,6.623690547879622,0.3597406784121107,0.22027669758497795
8.839489312,-0.7974470649585143,-1.1683596131309368,2.86199022867694,6.83187109092603,0.3725590893755361,0.22067915951494266
8.939447996,-0.599000703610191,-0.9080920983352329,2.9219542192234162,7.079228241700179,0.39824775029739484,0.22585848949501713
9.039443481,-0.3861522820643736,-0.7579705678040537,3.0011554927700717,7.340903345681844,0.42854433990061486,0.18945175683468032
9.139445974,-0.23654218315467115,-0.493377989216686,3.051785962169689,7.443482724774428,0.4569364170727412,0.10774812299530204
9.239462484,-0.1274049280657646,-0.1466501848180942,3.3184115636768556,7.480300526352887,0.4806652198522759,-0.018465014718025904
9.339437256,0.04474524212749617,0.12070531708749144,3.4058989680273237,7.489666457061588,0.42666477510716194,-0.09797493725571896
9.439449854,0.13753026995904252,0.45188996425463784,3.3528603454038817,7.432543131148149,0.3549114487210025,-0.14887142553253044
9.539442171,0.28268433375727287,0.6673819855418446,3.415335623146886,7.266380662786594,0.31145576299870326,-0.1972789450289186
9.639434698,0.5302157378481815,1.0036467085236331,3.3290570871700793,6.988753779950291,0.2796212432624516,-0.21099684869537583
9.739434288,0.7571472858682043,1.2427360986995555,3.215372314669622,6.781293423502187,0.27374832945172717,-0.2115259333754226
9.839436185,1.036882297095493,1.3387216761033705,3.1300353642514094,6.656551570140919,0.30663179147112873,-0.2170363424825951
9.939458212,1.392576380865661,1.4258189235289838,3.0620369653862967,6.325565046808251,0.34260032166304044,-0.23001075513863584
10.039439038,1.6464507341242152,1.3959333661493654,3.0383911781806745,6.157309458218541,0.35772564626557674,-0.2365458170708317
10.139455927,1.933941193414684,1.305387420978819,3.006079471860274,5.934211145348929,0.4307889612184195,-0.2536483212130819
10.239461377,2.240536910902276,1.237205737865317,3.0895690566003546,5.722857403457905,0.3976854799483943,-0.24691652009539922
10.339454842,2.468298373382219,1.0090380420845984,2.9880448487094333,5.447600609626989,0.3934083415880963,-0.24862125971870813
10.439542697,2.6738493459638617,0.7330947929675593,3.141390740876815,5.253973268524634,0.39874623502871526,-0.24200770124631965
10.539449669,2.764204501948638,0.5247648206298404,3.042484026046086,4.993397395605622,0.3988215736676327,-0.2463382038923596
10.639456829,2.8387422004228626,0.2024757238474053,3.1056404827777957,4.687405038833192,0.378948090622318,-0.23544136832784543
10.739461259,2.858758001550187,-0.18151351759689127,2.9994206115220625,4.5275416765932395,0.3763689934865133,-0.23935500298468132
10.839587273,2.6836321676612203,-0.4067467575842355,2.985412461863394,4.330697105948282,0.37717000477637586,-0.24564739584546377
10.939468471,2.6025317637364633,-0.7318814513517719,2.9409565932286954,4.12606840431499,0.3569432602264063,-0.24739987308098157
11.039438925,2.3600281717971634,-0.9333317804754236,2.9391071407685367,3.8204733245792286,0.3542091927500251,-0.247075727398442
11.139436093,2.1666231562144573,-1.109647673697425,2.989973504069115,3.6448302377656,0.36858489700319413,-0.24434557359601472
11.239520118,1.945689016627698,-1.1993344895967077,2.9332351753603847,3.327434141321896,0.35671498487732556,-0.24947814579566863
11.339434888,1.5816359343973323,-1.2488903804523497,2.957309892856568,3.1993504987334176,0.36816872534760625,-0.257266172142433
11.439487005,1.242435797567969,-1.2300284887480057,2.939353235810205,2.8821668733366548,0.40223980628879374,-0.25872208454589424
11.539433505,1.0288107033778833,-1.1669602159360264,2.9772437821953814,2.7379110068226273,0.42156334020244984,-0.25746453091465926
11.63951532,0.8160259641751743,-0.9293841749137283,3.0074734291943463,2.4534911371619956,0.42862269706756756,-0.24212023684586198
11.739461272,0.5644207285311095,-0.8088169930120741,3.009971772812728,2.19015611193801,0.462722218008271,-0.22717721947424316
11.839455108,0.37964523984065346,-0.49126099756786273,3.1183493993048335,2.037237365606673,0.49588724209802937,-0.15396395833659832
11.9394541,0.2410424140046199,-0.19441494417927133,3.3162560994624455,2.050768028003425,0.4644265382301764,-0.04953813815321276
12.039456568,0.12489570124673305,0.0823672196895061,3.46072403665758,2.0410050938868296,0.39922676676961777,0.025396515136531832
12.139455977,-0.0578596909324741,0.4230774511333992,3.573054871407934,2.0677094507901095,0.3630971094955588,0.08618896813599197
12.239434683,-0.2509841634508898,0.6914871648088061,3.575069059803707,2.1810805656709045,0.2861456408422677,0.13136592618639284
12.339454514,-0.43614263562125216,0.996794598809428,3.4659352550364457,2.3634363435940213,0.26788727467688556,0.16370583546945
12.439434675,-0.7842295102962425,1.2213109462786589,3.378631945847132,2.6362210395879853,0.2562021420047625,0.18751429110122825
12.539449797,-1.0082038601700072,1.3644541444578686,3.253169854126142,2.8062623387632204,0.25298033439105444,0.19321028504585935
12.639456335,-1.2808593364062284,1.4626812473682869,3.159497811358778,3.0436980959753246,0.2806384330950367,0.19417866690242006
12.739435582,-1.6184009327403701,1.452926017712671,3.0930889198857052,3.2853745373320495,0.31639834099517883,0.1922231492544694
12.839434423,-1.9293640085495662,1.3589317864782038,3.0670884268298106,3.527292464307733,0.3280009857514524,0.19888747368915644
12.939431474,-2.2462455231138097,1.2146492675941603,3.030495570753341,3.6823144289690597,0.3431679850247723,0.19721879441167864
13.039500319,-2.508990900861067,1.0349867902619234,3.0378310002522952,3.908047578455613,0.3560475639991878,0.22356947842246794
13.139434341,-2.6384092993005988,0.7869688607800565,2.991877438664944,4.175862926920042,0.3525944825196816,0.22804694471443818
13.239434366,-2.771072205179799,0.5003358311840918,3.004912092330033,4.379863709308375,0.3733451018018665,0.2225872437389395
13.339434993,-2.8793071590506654,0.2949302332380872,2.9571795918374053,4.597251338332042,0.401598968102333,0.21780863999593716
13.439442563,-2.8852826636021796,-0.0881916871091927,2.9919499050057894,4.819071011400898,0.4053682592442018,0.22452949003423128
13.539457226,-2.8481825942228642,-0.32713490933817413,2.9544922080119536,5.059200361094882,0.40333252614834975,0.22631434641438322
13.639448045,-2.7317718952674395,-0.5741748696066779,2.978841338945225,5.264286671149194,0.40620492161685195,0.22176133976266446
13.739493506,-2.536081738116303,-0.8770452784757724,3.060278565067526,5.55867848294937,0.41256610097113555,0.22286088005020488
13.839437037,-2.326239921255918,-1.0844652288291825,2.9594346159623597,5.7596294043822,0.3922930780197719,0.21973822907730498
13.939433947,-1.9515769870135837,-1.1595330471583376,3.020544585643243,5.906561389812147,0.3856927525815106,0.2084880167855405
14.039433214,-1.711157261435094,-1.3205555727377187,2.9705493669074032,6.145637241536228,0.37445816983705565,0.2239103043245519
14.139527501,-1.4699331377601803,-1.2729782467505262,3.0107073438700054,6.385757752335542,0.35131868787097864,0.2222307032791238
14.239442964,-1.150445841046229,-1.215797875544484,2.932696237500316,6.634405323528211,0.35012435775375617,0.23081616191456836
14.339464495,-0.8861574722225599,-1.1382073010623195,2.900415983299262,6.8482455883422,0.3841892521705603,0.22657254285084003
14.439437536,-0.6868052046767466,-0.8995860816798508,2.8811153286218594,7.054256193173938,0.37525943630196246,0.22470176562110034
14.539435154,-0.4725774116203783,-0.724378983667291,2.990055794500134,7.290139572525801,0.4265302210853628,0.18659929858131408
14.639437122,-0.2445688013215257,-0.4490294945669318,3.049303835534324,7.403845094317512,0.4782133844621786,0.10422005140683742
14.739530707,-0.17955337350560713,-0.18974176086962644,3.2202310107218817,7.449498064507243,0.48292762833122743,-0.0008107296339330064
14.839436992,-0.022778775234460272,0.17245067148637494,3.3459228069202682,7.414794277291209,0.42653842047168566,-0.0779411828355864
14.939538158,0.09812915444579173,0.41677367835513207,3.439314094715263,7.344731327403163,0.38998685534307737,-0.13636413049955945
15.039431965,0.3364968721404887,0.7234704298960913,3.4362767287981715,7.183768292792836,0.309143932815879,-0.17941006318214117
15.139518973,0.49761833477920175,0.9468264874909277,3.305739730551937,6.933361271926116,0.27669973039237483,-0.20302449374228593
15.239465965,0.8253706506237612,1.1543221023021415,3.1971501350302076,6.795593488387478,0.2783988206756276,-0.21560570370041687
15.339438478,1.0551265886129064,1.2497184899867213,3.173571582350525,6.563812447024427,0.2971637314685541,-0.22128547506579643
15.439432537,1.3673493598740043,1.3283904664565542,3.0930805669911727,6.314916986654894,0.3242896054421925,-0.23138902855215265
15.539564046,1.615033707902552,1.349598122305943,3.049240949316558,6.118556899041323,0.3628128007015441,-0.23006541666518449
