time (sec),x position (m),y position (m),forward velocity (m/s),"heading angle (rad), from x-axis, positive is CCW",throttle (unitless; -1 to 1),steering angle (unitless; -1 to 1)
0.131497477,0.1879586538942117,0.18575664128814148,-0.0020196980885608612,1.5424220943081923,0.1062760303844173,0.0398550629357316
0.231568137,0.18763564429471183,0.23283981374404078,0.05110264551852067,1.5783405406277073,0.75,-0.13870923789609335
0.33150054300000004,0.21921757038416945,0.2502037639618574,0.09202721049505953,1.5883317525401812,0.75,-0.18851410097031604
0.43150121700000005,0.19773452221007828,0.19023022111363774,0.924698178378108,1.5672426662975765,0.75,-0.2533144524029073
0.531501985,0.20761599304527253,0.39592613522474884,1.7418057932326603,1.3929531588994584,0.75,-0.32252764637729486
0.631506275,0.30730589991267726,0.5713597552378069,2.2561454848494957,1.0470143408743913,0.75,-0.32209242676046534
0.731496699,0.5187262447724754,0.7811757713485025,2.759904967308525,0.7778992397651157,0.7390745229627521,-0.2981549707122249
0.8314965870000001,0.7153149908123774,0.9139491870308261,2.9763020526945714,0.4985850879816976,0.5835650172013261,-0.2689873035566467
0.931554882,1.001974691912337,1.0716163058396926,2.9538839985255394,0.34436503711670685,0.4824557268395444,-0.24567321512214982
1.031499642,1.2626738877564407,1.140546744418668,3.043286361712005,0.10460756907629473,0.4347791607433256,-0.22897004387840164
1.13149689,1.55070074729755,1.1234818669672677,2.9561211474965168,-0.17838403159245206,0.39373672253660036,-0.2255464073270236
1.231559138,1.8566973349096272,1.0758817288464473,2.9073433385757466,-0.4130485930380781,0.3679904909474143,-0.22361306102346218
1.3314966830000001,2.115027309937587,0.9238800086930944,2.857328359865859,-0.5988914008489135,0.34785650884443164,-0.22492974229356782
1.431494669,2.27883737879116,0.7000622457266727,2.868462743001719,-0.8714773498443413,0.37003167847959406,-0.23279532256858332
1.531544656,2.4571150610243118,0.3859808820765483,2.8096322013707256,-1.1143971499967373,0.3709604448240245,-0.23785066596040483
1.6314966960000001,2.5642021916506796,0.2372334262644396,2.8617381379411664,-1.3702937801720645,0.3972737828242054,-0.23840191311209413
1.731503295,2.5964822992583945,-0.05721756498898169,2.8152525752222894,-1.6240201644224546,0.43116173966061994,-0.2406863464420359
1.831499326,2.5015729906301507,-0.32491911129761136,2.821419791560078,-1.802343566774288,0.42551649152536736,-0.2387574978309534
1.93149719,2.425088494590738,-0.6025906827209767,2.878559550956651,-2.107303422415409,0.43328274131249245,-0.23790899072652286
2.031498697,2.285575643804733,-0.7972501817043993,2.865026431484708,-2.320266891206912,0.4497737536508275,-0.2304781694368295
2.131548244,2.0376622906549446,-0.9954646880160838,2.906597637404713,-2.504883710569044,0.4495633809211332,-0.23034195066417057
2.231500371,1.7573326771209477,-1.1404857032109181,2.9406251207941607,-2.7306689160162434,0.4255415724195766,-0.22214750811834486
2.331504805,1.457105235659262,-1.2318387632255299,2.9235080298437763,-2.970550046195562,0.41150849842660797,-0.22785110150626983
2.431499603,1.2010752741055302,-1.2089910517703617,2.8921435207861705,-3.25517312178524,0.40824202818478644,-0.22529578635668254
2.531505852,0.9455963174485038,-1.1618312240201534,2.898011916532982,-3.4117967865471615,0.38099339171045915,-0.2242449146558935
2.631507016,0.663723340490676,-1.0515309521647966,2.8612676401148085,-3.693930817472136,0.39118813715388634,-0.21526201583987972
2.731500769,0.44973156309153256,-0.8934133886664042,2.9027300341954376,-3.918976173825697,0.39648798105773714,-0.2263669921410659
2.831496301,0.26613539856092494,-0.6302843209375351,2.8975704907436057,-4.156409017355413,0.45062321360530094,-0.18406302094243326
2.931500578,0.11858157871331881,-0.43638593914622725,3.018770634958201,-4.224894143818907,0.4920326920801045,-0.10383585622815272
3.031506264,-0.03143988394065172,-0.09508956127433064,3.200218747439949,-4.3499046122843055,0.5051841273886286,0.009948263750502954
3.1315014310000002,-0.19295372386648166,0.1465839921593497,3.3653029304483737,-4.273839859300985,0.43108809166608164,0.07753679619189287
3.231499552,-0.32531223141752513,0.43758248415809403,3.377098003757147,-4.228099163225686,0.3542058449778605,0.12622308129117585
3.331495094,-0.48887529004542124,0.702993635393238,3.350609745212414,-4.009626921327575,0.32331546717827997,0.15991105883345713
3.431496746,-0.8432258033414732,0.9426192025360746,3.299628387794253,-3.800887637417747,0.2915850548337051,0.17904624898022928
3.531575902,-1.0496818659551046,1.0918665455089682,3.27168336614425,-3.5695134406315128,0.3050419771900653,0.18384572928075882
3.631498996,-1.3792706094297622,1.2043554289005005,3.1851235993201628,-3.2899462025966324,0.34638237687668694,0.18027915187483248
3.731508893,-1.6564257000546385,1.2777717208076882,3.176612259521822,-3.100312612118195,0.3887897774093224,0.18030731659194923
3.831499289,-2.025000060044871,1.269483479462163,3.1014875115364506,-2.8801244416689653,0.3917681959735385,0.17857968544753933
3.931505144,-2.2715458502863,1.176418793649944,3.212011126015148,-2.7038389500747275,0.4015130821337925,0.17289875432183996
4.031496016,-2.563153155424177,0.9519674949658452,3.18443509020332,-2.4454229882828202,0.39839331329088656,0.18163689060780427
4.131500047,-2.7896297249576603,0.6943777881248826,3.181721487103126,-2.183230616429711,0.37251490054177516,0.18606632269894302
4.231497364,-2.8725898345896237,0.3967294447061455,3.188946212206695,-2.0024091326623266,0.3606625368638305,0.19051118502792708
4.331497491,-3.0292234308660384,0.104119238326072,3.1354124205942324,-1.7216428486212085,0.34711001160162636,0.18727390590833023
4.431557377,-3.1169258155169364,-0.19465246317055118,3.104979975773762,-1.5205662088939322,0.3306160456527593,0.19107801018094137
4.531548559,-3.08460099034603,-0.4330341238066355,3.0208686035388417,-1.2992210228580845,0.28620454026772835,0.19308881069399553
4.631505731,-2.887338084073947,-0.8107848599677062,3.027918307344007,-1.0535243414315643,0.3141589605220679,0.19598722608359206
4.731498229,-2.7892956909908775,-1.020678915003809,2.991823359666796,-0.8757593380368114,0.31023960724471206,0.2067442510752218
4.831503651,-2.6117885033419794,-1.2085562968179313,2.9059424242310508,-0.6834150414755253,0.33114360975365004,0.21801971340995666
4.931503333,-2.2827089221436,-1.364708993445952,2.92725437871414,-0.41082948254167145,0.3915293997742236,0.23129136111832144
5.031504221,-2.0855474281775184,-1.4553354163773915,2.9400374718819053,-0.20834371761425405,0.42257960209408335,0.22952434415819503
5.131503496,-1.7873855817898132,-1.4785115513253462,3.0201992626748346,0.09635978792292682,0.4458182774975265,0.22500745607340444
5.23150451,-1.4884575967848281,-1.3914328114588472,3.13523300634384,0.3169994033798955,0.4704194848784658,0.2209887553140674
5.331501677,-1.1996535898533867,-1.3029086821277858,3.159572315000816,0.5391400887858052,0.4782949841484495,0.21297988946507973
5.43150142,-0.8582730018993638,-1.1194494370060708,3.221255694468818,0.7530646215577526,0.45116156605419794,0.2006665130261691
5.531504202,-0.743608216382264,-0.8728275096856793,3.2454002036986616,0.9361477379235021,0.462764362289579,0.17745322954014478
5.631496846,-0.5917072264435456,-0.6159654898938103,3.3208248747537854,1.1045261999070792,0.4886314331432545,0.11193472435196576
5.731498913,-0.37913363534537803,-0.23840996424174557,3.469989426661186,1.2430591289191026,0.49000522330827456,0.004153548100440909
5.831502256,-0.2665822299661735,0.04352583574573752,3.552134495141777,1.1782542662790627,0.4654392112410264,-0.07564886600577295
5.931505036,-0.15818098958917295,0.3147725666936593,3.654675198465194,1.0277205658473938,0.43337790762075756,-0.12953792064338499
6.031519758,0.11661551109718538,0.7420578365458236,3.580610484055401,0.9497262248422371,0.37641487894899833,-0.15715755701637732
6.1315397,0.29646711021825134,1.0424614543050397,3.5734001082575793,0.6774943315307003,0.3603743296351816,-0.16574441769766646
6.231542725,0.5924270626508462,1.2300686037840955,3.4614179086953647,0.4837087404814636,0.3708994900615082,-0.16429231139394948
6.33149558,0.9076391117384432,1.3157687081275558,3.3550574462794653,0.318450740164262,0.3601833176281051,-0.16676549382286776
6.431502607,1.1831749992830363,1.3914067269829207,3.303347160110625,0.09583587850104719,0.34105664396253244,-0.16974593305114666
6.531538598,1.5275128788704044,1.4368144281368864,3.244881238565645,-0.07980169577048209,0.3514049659516943,-0.1648710123371927
6.631497922,1.8091968750061576,1.4008687145754866,3.0844622104490296,-0.29814386527964737,0.321097722652324,-0.18127627727153478
6.731497387,2.1371137225143078,1.3062864137904262,3.0498008370765364,-0.4371892472992307,0.3165482479801226,-0.19744229450219114
6.831498828,2.342927916124915,1.0889431596887906,2.9954816055342612,-0.7316545054521962,0.3488832287754891,-0.2117871080040959
6.931500382,2.6665357916406207,0.9234211872835117,2.8848378255962723,-0.9731795861174258,0.35158117031309594,-0.21604467917335146
7.031504185,2.7296045283368575,0.6156558429410717,2.8547174710307113,-1.1458231287033465,0.4439261169873809,-0.23213890618303162
7.131501546,2.8022670308276525,0.3988852794024642,2.8907695404711484,-1.4229532740291675,0.47969972602767497,-0.23824254206461387
7.231557478,2.8730639570539633,0.07322683326949879,2.930542984399927,-1.5814133137849111,0.4283732137085053,-0.22731283906978997
7.331496513,2.8118483566217103,-0.18822702490027157,2.901687336042165,-1.9133847614938184,0.42859685182017504,-0.23669544695471803
7.4315572,2.6297116261630893,-0.46800068149540536,2.9898599673555295,-2.083098772325242,0.47238183053499355,-0.22434673348849077
7.531560251,2.4677358351897047,-0.6977020892449581,2.9067144854866687,-2.4015747266530103,0.4532701938795682,-0.2167608735746918
7.631514727,2.2816524105490172,-0.9251509201609622,2.9927598804321476,-2.563566324656223,0.4456382775322314,-0.22102031672862688
7.731505338,1.9395999047057229,-1.0693140351904173,3.040626934997248,-2.791720475809386,0.436967381539359,-0.2173484118627532
7.831499125,1.6955323802310203,-1.0829757986314312,2.965145986756707,-2.9840353798772496,0.410516157193916,-0.21703078354009817
7.931499318,1.4422889624483883,-1.139132914168192,2.983298536626166,-3.222667110876243,0.39663365261103173,-0.2105325110464403
8.031496017,1.1475310571021775,-1.1194423949374002,2.906909539839102,-3.46387249901882,0.3039719060310068,-0.24129663526448147
8.131501094,0.8011211436706871,-0.9558219077319022,2.806938785010012,-3.7622298303090242,0.3001885895789887,-0.31741272976364654
8.23150431,0.68395630843306,-0.8056010946328666,2.758884586673026,-4.008846000682251,0.40907136870331623,-0.2432719217372528
8.331502313,0.477010238590188,-0.5655461098906424,2.808965049964183,-4.194217242680344,0.46348311179762575,-0.18226310774049373
8.431501086,0.32817838584665127,-0.34525959541132406,3.037849215353618,-4.331360549025727,0.5400308076761944,-0.06363080494154665
8.531503297,0.26552536019871115,0.0189920516544259,3.2131488537837907,-4.3110799928235535,0.499013380318953,0.024217045612113342
8.631500766,0.12505159130606597,0.2227305788656539,3.3889276810940308,-4.256095440621546,0.4345658676118929,0.08667969154069276
8.731502027,-0.05213675838760114,0.5630058900250614,3.3982235314548883,-4.101920156325119,0.37572935357581555,0.13482738407792946
8.831498624,-0.27932789864321,0.8123425916365583,3.354403715783263,-3.950557770484166,0.3238892781439209,0.16358137163950154
8.931548142,-0.45545234690906267,1.0104368878298566,3.3791048589512034,-3.774874962874173,0.31849937513446563,0.183913567148453
9.031509807,-0.775580021374915,1.2107998359382572,3.2217569106830113,-3.5278511309558453,0.338795037382814,0.1928656362796094
9.131573186,-1.0623271246937467,1.3062429142367815,3.2686070072934164,-3.317384904093507,0.3654655515636162,0.18284167119134667
9.231502457,-1.4093364480187136,1.3919249280362223,3.2016473325116666,-3.089730957726152,0.42214538919603267,0.1733651411335993
9.331495067,-1.738611835344912,1.3338886906485368,3.229185184184984,-2.9045265625187953,0.4304928826915475,0.18289533491899784
9.431497674,-2.060732054261275,1.2253501696290094,3.3634891584856397,-2.703893154121858,0.4105724128014129,0.18561702244927505
9.531546159,-2.330768448448756,1.0567988412802434,3.2367174345563767,-2.4095006716224425,0.3929848952254401,0.1866894891682575
9.631494743,-2.5175855543592722,0.8555523183558165,3.235644340626153,-2.2135708836226318,0.38486855047720847,0.18412108031259494
9.731498999,-2.7265375076617517,0.5937211006140162,3.2322649772101903,-1.8984714153857252,0.3642769244226053,0.18102605500356392
9.831503945,-2.809936328179591,0.28518897167089635,3.2237960387060287,-1.7746254796024206,0.35334371122562763,0.17971126586579828
9.931503206,-2.8939585375659673,-0.0496091426824861,3.163495370555327,-1.5736072940686467,0.3393410229240465,0.18163940068706114
10.031504466,-2.8869190299257235,-0.37203701155872837,3.0944889980169896,-1.359250382004687,0.29494004805923574,0.19016553304933867
10.131497833,-2.7895963950264595,-0.595379146375075,3.015810695210391,-1.1154510257996582,0.28868402121619796,0.1946672500294853
10.231502345,-2.588256517265729,-0.8227205898036165,2.935817227621494,-0.9558361190085018,0.30203514159734923,0.20528271519432498
10.331502512,-2.4115507993898015,-1.0243273460144466,2.8861505287159073,-0.7025407140743488,0.305944317068672,0.2156248200252945
10.43150634,-2.1914525173831163,-1.2336788845475264,2.8696407167555202,-0.4255321252498654,0.358509247863849,0.2257751646378681
10.531515759,-1.8929088116896324,-1.4110423719528407,2.908714955604576,-0.2205435963037909,0.41881326883128245,0.2339895233633936
10.631499598,-1.6375115686624329,-1.3331567030626028,3.0091398466728667,0.024217263615047287,0.434478662041559,0.23061979414465494
10.731507811,-1.3258962486445456,-1.2883181284847756,2.9471792102356535,0.31769290291220814,0.4634842476964262,0.22315186967106682
10.831503226,-1.0258710081528497,-1.2173064416778199,3.0525443286012304,0.5371549851113157,0.48773593781641267,0.21977797598719567
10.93150019,-0.7760484913867909,-1.0369829270851265,3.155436818716633,0.7731861026097521,0.4618840864073055,0.20735106871034387
11.031496633,-0.5680021625739492,-0.8217520363480706,3.1665565221448038,0.9932726495611635,0.474742031344711,0.17749183236161742
11.131512986,-0.3979506745014025,-0.5147237494490573,3.2459548544504764,1.1368499239698944,0.48517348838231183,0.13494744606990736
11.231506676,-0.30479498509817404,-0.2306303271862508,3.377679170803339,1.2270042281515674,0.4984625607960669,0.011991984280876167
11.33155486,-0.09710828426261053,0.11024503307182884,3.528887209402626,1.1851265954858423,0.4696846568365826,-0.07537434191751215
11.43149578,0.0311770622665479,0.3902194892053934,3.622176819904941,1.1118357818711597,0.4358822513550575,-0.13827687635129607
11.531502737,0.1604634441609633,0.7118254771682268,3.5707547958245205,0.8604850643259923,0.3816295728413179,-0.16312700002339278
11.631504131,0.4024894162962847,1.0157031461355899,3.450433336680485,0.7203583518658618,0.3649558600348737,-0.1604042355462458
11.731574878,0.7094970733429425,1.1675261108458668,3.4166254688611746,0.480076662822888,0.3988200198637233,-0.1610345477798002
11.831499047,0.947380307710709,1.3527998018093514,3.295391980756816,0.24187477744418184,0.36916919256520797,-0.15813608406251206
11.931498113,1.3401788982266765,1.398129386921093,3.2386888802488887,0.0969756206717215,0.3516295073572703,-0.16170907156419115
12.031507927,1.6273993167471257,1.404993621467177,3.2211538222926803,-0.1186192111130622,0.3464753984557184,-0.16745490304214666
12.13150327,1.9189569975432363,1.3887399237671043,3.10670641643687,-0.29394127024740374,0.32553467698308464,-0.18107622888426467
12.231504169,2.241080138905806,1.2642359091693973,3.076848849435125,-0.565169819695232,0.32779230655120106,-0.19245179421962574
12.331500562,2.4853498631801925,1.0519270267452803,3.0015216902467943,-0.7050287544207271,0.3498807173198139,-0.20353554599156493
12.431500254,2.663810216638039,0.8310425905351462,2.9035091129437176,-0.9499928802797419,0.3534119959397298,-0.21397751712847238
12.531564924,2.7898417684041985,0.5958011107350003,2.862232278941699,-1.243270108628221,0.3850503078158781,-0.22173606950457742
12.631496809,2.8636193068643556,0.30433164906440296,2.8435056653787747,-1.460554608122539,0.4171477369892509,-0.2232857561386229
12.731497919,2.9113829835630187,0.05425013239843805,2.8434163206167464,-1.7157148351494844,0.4532161721799427,-0.2232836724716835
12.831498909,2.8432824092031175,-0.29506908786366576,2.9210170195067175,-1.9232808785092503,0.4540595040940469,-0.22192299107673175
12.9315054,2.689347256100544,-0.5573721689654437,2.910860372941989,-2.0773715751918176,0.47383760020164517,-0.2085363446479752
13.031501414,2.524606726917129,-0.72101331845035,2.9262025293402854,-2.3241798219876952,0.4636918944412794,-0.2166696725057364
13.131500959,2.285065120401973,-0.8735304601320206,3.031827738540388,-2.536668088472384,0.43963997434423735,-0.2122921506245711
13.231557929,2.0472484579182773,-1.0778192457894735,3.025998707493046,-2.8284787835713097,0.44271749786573134,-0.2063172817575385
13.331507306,1.7141650542893772,-1.1327059612544355,2.9989147935234364,-2.981286866861837,0.4125299713648468,-0.20752822067058146
13.431500068,1.4420586587079445,-1.1680175071712966,2.956994868637105,-3.212029672416038,0.3951792434366941,-0.20437677349234784
13.531500384,1.121294707312461,-1.0793273221896988,2.968877524154875,-3.437864693772279,0.375445101767793,-0.20512275260378657
13.631509205,0.8966403185157686,-0.913919769298363,2.8585931439101406,-3.731075067731135,0.38173236758598283,-0.20708796089892417
13.731506393,0.6867533730727032,-0.7966152749874866,2.8324144051033073,-3.964959215422818,0.37018764661994424,-0.21088156179590298
13.831548543,0.39990183953166614,-0.5057815602162732,2.846199848972569,-4.170310959272789,0.42390390185349236,-0.17948594079058894
13.931508038,0.28933164379824644,-0.2248966808606297,3.0488637806683725,-4.354740593555882,0.5103696804603306,-0.07868267242103937
14.031506469,0.17549918742966425,-0.009908580246724016,3.251782967711224,-4.338745715726586,0.48697797935791637,0.014995748394173086
14.131502478,0.0418704850071792,0.26765023898206874,3.3020603958820773,-4.254619274193743,0.42352738824714875,0.07598777722416426
14.231502834,-0.11832822410569006,0.6388478567278284,3.4726683656457933,-4.1628372914726395,0.38702166501402574,0.1306907678266728
14.331498937,-0.298682734279957,0.8496317816216088,3.442817246397973,-3.9902365410142724,0.3243689998625467,0.16844316548295854
14.431504274,-0.6080541247754945,1.1323953075249238,3.3389820606700464,-3.7295673538158716,0.3049231165615714,0.18556158567694128
14.531497977,-0.8728053839173596,1.2223983367460796,3.2534010830536784,-3.5003827209787266,0.3488751922266647,0.19256254619628313
14.631506605,-1.1237515911391691,1.3235584360216586,3.151183761645988,-3.319647857720918,0.3678303952944955,0.18416845489352437
14.731516068,-1.5080865806479693,1.3846645426982314,3.2347059138877907,-3.0754981882168266,0.4079057761933769,0.1851395871434307
14.831502538,-1.8005354789369918,1.3774047118359714,3.283420073241582,-2.844758397919505,0.4390507398290903,0.19174109087680408
14.931496806,-2.0618940479200707,1.2774809363869821,3.2554491705837245,-2.6977075710155525,0.4060487480473266,0.19175143191243119
15.031502429,-2.400304745484544,1.11083010004535,3.2537793755262157,-2.470811392368344,0.38219471689851625,0.1953023550705783
15.131552637,-2.6110977598652676,0.8908237176167463,3.2725651906288498,-2.273146695471032,0.38262289651796744,0.1904839073000789
15.231562486,-2.7218718633951617,0.5481150535797047,3.2182737557829517,-2.0228314959347884,0.3752726671027398,0.18516345612447727
15.331499344000001,-2.938800425571844,0.373640041546288,3.1609226330922584,-1.7882947832037481,0.35499855321492385,0.17985465758681682
15.431499918,-2.9426703361398956,-0.038549650515955186,3.1004534502952383,-1.5607714081243234,0.3337330257448933,0.18570046270073431
