time (sec),x position (m),y position (m),forward velocity (m/s),"heading angle (rad), from x-axis, positive is CCW",throttle (unitless; -1 to 1),steering angle (unitless; -1 to 1)
0.129021265,2.913273659751106,-1.010288869606638,0.0812045765386047,-2.1834812981662317,0.75,-0.5590019266696791
0.22902112000000002,2.9406911404201974,-1.0090417619726153,0.019425094129233135,-2.2296983832878206,0.75,-0.11883903940451518
0.32900690200000005,2.9597088823923303,-1.0204558275832183,0.04190200912609709,-2.1976975194721726,0.75,-0.163752385866492
0.429058443,2.9660774258477556,-1.0168458994405363,0.028207135696377495,-2.1699815618166047,0.75,-0.23755255743264128
0.529026258,2.9968802615901873,-1.050353981934314,0.6552596417474451,-2.1888612360182664,0.75,-0.3041030605324936
0.629017256,2.8346778971112303,-1.0768465726860013,1.5094234422635586,-2.398140868446128,0.75,-0.3662876122719438
0.729018347,2.671879302615686,-1.27327793608493,2.131497056113221,-2.634562272836399,0.75,-0.39027247449606245
0.8290185590000001,2.464270462434992,-1.29669073602608,2.6547833881656056,-2.9257532357642786,0.75,-0.3763092579788997
0.929017576,2.1500032323710223,-1.3374610134530553,2.94962022071124,-3.1793425488781044,0.5789683964138482,-0.3509527548697839
1.029015088,1.818083134113015,-1.314774198577374,2.992784873770939,-3.407727059366007,0.4587965820950318,-0.3302126924105982
1.129020175,1.6201662395445622,-1.2201371150322071,2.954100897151551,-3.6790810865642416,0.3930030218422305,-0.3209656134105316
1.229009882,1.3453532585515786,-0.9803347275117491,2.965259295825744,-3.8976821105881636,0.42492701197826566,-0.2533300387252384
1.329011547,1.146995059528381,-0.7316968458914113,3.1235095150665635,-4.160318402021285,0.4504062662270791,-0.14790959810234133
1.42902252,1.0080965694126693,-0.5036433758016807,3.308571106035475,-4.2135025845252105,0.4845643939413493,-0.011823910846928293
1.529006741,0.8851753155285151,-0.19086303313510938,3.466404448901536,-4.239475068612511,0.4180630439496461,0.08830347390424384
1.629018328,0.6794376533364945,0.06055277687766285,3.5562925612119267,-4.074724605097926,0.40733890953040897,0.1463665299187881
1.729016121,0.43169559043085737,0.36203316761426607,3.5962336091377636,-3.83658447355361,0.31729552144551676,0.17111812441019222
1.829033457,0.15643545557684707,0.588713995359255,3.487731576600928,-3.705978115889651,0.2811856524397272,0.18302769604732846
1.929013308,-0.13749891299224018,0.7181254336911566,3.4184296895062865,-3.466177485549854,0.33627189312396255,0.17562242101413597
2.02900762,-0.5188693708335973,0.8438927939766038,3.2751927386760977,-3.218251431408886,0.3240359309533949,0.1628768623450738
2.1290114190000002,-0.7732598985561989,0.795056679844924,3.2683141200168557,-3.023413097452919,0.30304093317932324,0.1483186708369438
2.22901121,-1.1762631217739408,0.8127093305055898,3.175643593766634,-2.726397706603648,0.236185738785318,0.15731013494444654
2.329018482,-1.4250346435465866,0.6369036173180176,3.081801657921846,-2.650516880485873,0.20129095579164644,0.17006795115777895
2.429012748,-1.6863795543238802,0.46421278433426755,2.9826900547578132,-2.3082928250474093,0.25099634046247143,0.15382673022060014
2.529045376,-1.8257227181023377,0.18454916969203716,2.925636482996135,-2.1121247558061764,0.25294237074444653,0.1758086389013959
2.629014463,-2.0012886850807217,0.03268700366515283,2.866700359933223,-1.9336761128770337,0.2595040436182176,0.170434958384789
2.729009058,-2.0388172605369226,-0.33654664523827355,2.7453610765735577,-1.7487016417097296,0.23640071423265388,0.18257160776922435
2.829023918,-2.0190662442671337,-0.599448218577778,2.7974694937115276,-1.5500073949823516,0.23074215917712274,0.20240214647860397
2.929003728,-2.0161325272596553,-0.8815249320100571,2.728816052861413,-1.2774969209609337,0.23231770483688324,0.2139832844538602
3.029005219,-1.8853323364078842,-1.1140039090015257,2.6501587145286054,-1.0201937964242827,0.2626444248352043,0.2297407618999468
3.129017295,-1.801800337832165,-1.2859278995328873,2.564132328423411,-0.8406363214571165,0.2720069083626257,0.22819840319820547
3.229016365,-1.5652217475042363,-1.4678153974744343,2.6196082505211526,-0.5303449144293749,0.30408909669616047,0.22580260592503051
3.329012328,-1.3042096781554082,-1.6140801526510755,2.587229789103111,-0.3378917145235367,0.3458305719251422,0.23170914748875898
3.429010287,-1.066776467769168,-1.5687879634670856,2.6930107256339064,-0.004103052575815468,0.351984514265057,0.219429849220781
3.52901968,-0.7426881402599982,-1.5855160530917003,2.740497383135695,0.19811397640797793,0.3769895518399139,0.2186199879445224
3.629032626,-0.5489532351006347,-1.4896023891509427,2.7562355301022348,0.4249234995521372,0.3819256950891278,0.22005389858701352
3.729013891,-0.3349847262957501,-1.2875788648884154,2.79687702793357,0.6831934050353513,0.3743231421433042,0.20771869919798946
3.829015854,-0.11599122364268885,-1.1162601284711422,2.8544641751542823,0.9293296348712651,0.383965784803835,0.18678823938819752
3.929021444,0.06115014479171782,-0.8936346219399275,2.9340181208650304,1.1639403181787047,0.39220207232992854,0.19327643034923336
4.029004764,0.18016386629726747,-0.5831624130509242,2.9803167751923514,1.3663496571884117,0.38698336725236243,0.09997251462600026
4.129025025,0.1839828303282964,-0.2862386828964425,3.1227024931848386,1.4659594355437535,0.3660309775462831,-0.02176087115385449
4.229010915,0.25150348063168065,0.03634998339852467,3.114409357535291,1.3860435292164943,0.3422947874628728,-0.12613758512109483
4.329018166,0.32612994075943286,0.3481080661029199,3.1207091053243623,1.196250175399325,0.28754958205627884,-0.18607443412547026
4.429023108,0.4721257575749991,0.5946444489897147,3.0698528315950306,0.9924235675006413,0.2761728296104876,-0.20983056283976023
4.529018752,0.589269590372779,0.8527898328548739,3.045514544681494,0.7220100382775536,0.2976976853872901,-0.22404202404130721
4.62905221,0.9530099094338955,1.0017385550952178,2.9797592133933937,0.5497585329592953,0.29849351524272627,-0.21643647225276388
4.729016631,1.1644116942461065,1.100113054378137,2.9203809585472764,0.277882685305985,0.30713146036636263,-0.21682431353445125
4.829012526,1.4806778107194913,1.2500638688372776,2.8937832636311844,0.0939980556161022,0.33299851568922567,-0.20565039187506895
4.929017159,1.7397679217433117,1.1794295689116132,2.879739302533384,-0.22842738365727433,0.3217144940810454,-0.20947925845682455
5.029031757,2.032782546437656,1.0297963704894464,2.863209328980696,-0.4095137708683062,0.3257838510653923,-0.2061281805146397
5.129018746,2.2950703481904045,0.9009982819349347,2.8704651179744225,-0.6492907479599023,0.336016765616896,-0.21509133427299734
5.229018078,2.497077880278333,0.7170576198704686,2.929674519143705,-0.8465309805396831,0.313137772153743,-0.2189752094370638
5.329023782,2.6634167262927693,0.5255010033307189,2.9260874054339587,-1.050141601766517,0.30511371854156843,-0.22616100278374993
5.429021146,2.7302981908584845,0.2932897579763129,2.8483061933331077,-1.2999945464940195,0.317541033393886,-0.22387398300513597
5.529013181,2.807008422015232,-0.020055570076202144,2.8641696322248866,-1.5163445008839536,0.3284477414748069,-0.22305222539772357
5.629206174,2.803932491324155,-0.36355318981501444,2.85505868204907,-1.8033892364255608,0.3294058564833468,-0.21824849809441504
5.729024105,2.641173876778994,-0.5800922519387497,2.8756849968133626,-2.011421249380417,0.34264550332209864,-0.21825040485930688
5.829015164,2.577153425488586,-0.8274725228600915,2.9097102910468435,-2.26363068762723,0.3464881169692264,-0.22123461297166208
5.929013855,2.326294664134172,-1.0483489153986554,2.8675146980340553,-2.5099187923057285,0.34940863614050893,-0.21733183224329505
6.029014153,2.107091463417441,-1.1822375752320398,2.943436869745285,-2.7025765800463466,0.3545162233278544,-0.2212213238780496
6.129013839,1.816110113549107,-1.2624664534050047,2.8728884333468963,-2.923289586876013,0.35364876655056876,-0.22005442213627882
6.229006251,1.5042036886695105,-1.3092237024230056,2.888148962950913,-3.1216895320440217,0.34414253736879197,-0.21701334268474023
6.329012478,1.2202746112785348,-1.2872032963063302,2.952037104105794,-3.416313751310093,0.3374926956085894,-0.20922827220427626
6.429011836,0.9204705772566222,-1.1583005142138598,2.9811391344376386,-3.627047803263768,0.34390250553597845,-0.21078107602094165
6.529008869,0.7249711691198009,-0.9636607787952224,2.9191567402606355,-3.8629724320410874,0.32650661534753106,-0.20328186376909202
6.629038761,0.552232762066619,-0.8096834638115998,2.951369998425437,-4.05158282302185,0.3278770721838342,-0.1968664717122793
6.729014662,0.38777981021517105,-0.4671557670474346,2.840359629181477,-4.289065528246734,0.326343388067365,-0.195722947838937
6.829010858,0.27342285265869576,-0.2459974736847768,3.05132230371307,-4.481360449961053,0.35764147258596213,-0.07178187018904851
6.929010812,0.17625389142115036,0.047002198625334224,3.1535864024045646,-4.447100963988993,0.36048814521596023,0.08718564536252434
7.029006811,0.09209332322966306,0.3454481662662317,3.2300613900926716,-4.327111511694395,0.31531815420245635,0.15675434218135928
7.129017406,-0.012098120555121671,0.6219926132102309,3.2507751382093066,-4.1977351557081635,0.27531881103002726,0.1868782910401045
7.229014007,-0.19163502131639337,0.9110774887260623,3.1523538324509675,-3.8531360013431155,0.3163325353125067,0.2023430494594956
7.329009244,-0.48550141587561113,1.0895221001687425,3.031432221560473,-3.670851735846054,0.3155538513193842,0.1934158688605766
7.429004719,-0.7449960949402612,1.1688716034003317,3.0517272934867967,-3.4023369453142642,0.32109516080434913,0.1785339681667902
7.529105802,-1.1117786318423017,1.283243963316801,3.0347763548911204,-3.0969751730624697,0.3513560272037333,0.16415242433798405
7.629022285,-1.3480746192539876,1.23315670383296,2.9889652093938426,-2.9582976992436945,0.36032218137062577,0.17251527741946723
7.729024198,-1.661888474183088,1.1802277198818563,3.0756193437898927,-2.7965192700043806,0.3375776569429071,0.17276237381428056
7.829018521,-1.8939910217193714,1.0146901882965134,3.041527993483191,-2.538501272707033,0.3150813774736285,0.17658944513754568
7.929015457,-2.178257825137832,0.8006668446642373,3.0282959681047887,-2.3025807086096464,0.31096070779103363,0.1759707735576771
8.029028865,-2.2603562450463324,0.603244500215876,2.9269393881182477,-2.059687368203778,0.2935572517373903,0.17675367427064767
8.12902634,-2.4137417735771844,0.2999055389212,2.9031069256564117,-1.8667420384971778,0.2899471114572934,0.17338362420580872
8.229012599,-2.440602636948551,0.055983897274053285,2.857438641238475,-1.655293623819571,0.30226407366521485,0.1839192683244976
8.329030672,-2.4882973183036237,-0.2615883483012489,2.8465636029003925,-1.3927922153110222,0.2821633859704794,0.1864078403356533
8.429006518,-2.436704336934222,-0.5567142264918853,2.8308217230675923,-1.1505468473181282,0.2878374651601472,0.18983685428516048
8.529024258,-2.303351389846475,-0.7398632817888553,2.851983283996796,-0.9553470036819158,0.30916550439499974,0.20309257992346486
8.629009332,-2.0483936276029953,-1.0047425969653443,2.745131771887196,-0.7282202722066965,0.308096643359626,0.20214644857440248
8.7290113,-1.9222580036064547,-1.1479774225608612,2.780650724677139,-0.4941592148354469,0.3164298712604757,0.20268316123145824
8.829009539,-1.6169511371681062,-1.2636973975821866,2.786344473909852,-0.27301154076585427,0.35736225090567575,0.2095755480859354
8.92901174,-1.3300056343582778,-1.2663020921166328,2.758425594818142,-0.008275095762461052,0.34238584097579333,0.2069550841217094
9.029007553,-1.0507560183824824,-1.2699797644945017,2.8034343987253654,0.23065967756783298,0.35391266352560585,0.1991573726686327
9.1290137,-0.8438592234304654,-1.2219856873943522,2.7937736019522323,0.4392900963398914,0.3805114692154991,0.2002519866839234
9.229008241,-0.5625784825331386,-1.013293602673826,2.8291470275344897,0.6678387052070384,0.3538392344450856,0.19448005622995282
9.329005793,-0.3731106867602261,-0.8221116239073402,2.8898510285340198,0.9774453124527344,0.34113351361614414,0.185546346499016
9.429014807,-0.19663949773255535,-0.5642551554562866,2.8574670795436177,1.12429020754049,0.369032805571535,0.19379955937190962
9.529011018,-0.12982091706154303,-0.34533461545794064,2.9400480553664803,1.2907976599736657,0.36899281026739444,0.0974035919685993
9.629007486,-0.027760759362012014,-0.02143222229034062,3.054576552020602,1.3080487765008177,0.3401210306444612,-0.013410073063385503
9.729011225,0.031627111003781266,0.22714305885654673,3.0783839256429197,1.3672991327285837,0.35544763985961997,-0.11730151038005655
9.829016235000001,0.14181198008148416,0.5186955205134414,3.12949418417977,1.1653308807743883,0.3020041153160569,-0.18561927506568526
9.92901163,0.29646012728091825,0.838684134131589,3.032155294727398,0.9963723204629495,0.2857345661761855,-0.21361243261884894
10.029015151,0.43569262832938194,1.0453636712950898,2.9704345904357647,0.7617049517958769,0.33383882216348737,-0.2262054659437322
10.129010586,0.6826107659455783,1.253210138671527,2.9508884623708944,0.47875877871683536,0.337883598805377,-0.2191180016646734
10.229019762,0.9962200658047655,1.378818928193197,2.9150630207871076,0.1920850252655842,0.4261956471456486,-0.20880745833395986
10.329014118,1.2496510278912691,1.3880527933240017,2.920234244690976,0.008572400492742206,0.41224636331238007,-0.19787795362350943
10.429005592,1.5506699479623582,1.3631388232965966,2.991606585467651,-0.22399204202055556,0.36560326224880396,-0.1902536063034976
10.529012419,1.8589081208557083,1.2256674672257675,3.0284506816882826,-0.4738836642741253,0.3456468529021163,-0.1926738622349805
10.629022352,2.0932190867602882,1.081376762097399,2.9985567395132118,-0.7390685453921361,0.3224766595419291,-0.19079643613732472
10.729023145,2.2747182773946166,0.9101140055857934,3.040551193848697,-0.8666390581904679,0.31880450287056006,-0.19909834962452536
10.829009368,2.491017252171171,0.623207462858296,2.9682201391578538,-1.0735750977999723,0.29381280340373855,-0.19454695657682314
10.929012106,2.583873758669378,0.3845105846058743,3.0355504724720346,-1.3064518280790876,0.32855582584970944,-0.2106958135826551
11.02901222,2.604507863144753,0.05585058469900363,2.9626328867889278,-1.5439884289159642,0.29683124430715085,-0.21143707305446877
11.129012876,2.6323597806175982,-0.193373445743391,2.8717700831614814,-1.8134730062697195,0.2909166409473768,-0.21349577521846536
11.229005941,2.495395832166432,-0.5240637750944959,2.9600558102111205,-2.024420014142103,0.33480899928919744,-0.21526452720965927
11.329009645,2.363344825044971,-0.7277010956358271,2.882584621797272,-2.2246533862391016,0.32523246234902076,-0.21172736511077733
11.429049415,2.1477571766452996,-0.8938165021143494,2.8912873445892546,-2.464293008957736,0.32572537850051875,-0.21284550176714026
11.529012541,1.9364468564622315,-1.1256516935101495,2.855612969640606,-2.739863469687538,0.3644280397384925,-0.21540063270160226
11.629011697,1.6607018754789096,-1.120886345785492,2.8660133966899797,-2.993049304690545,0.3361865802696993,-0.20878361612111293
11.729003514,1.3603597962762175,-1.134906829722268,2.845519991235548,-3.1635520037163225,0.3263736077920641,-0.21315266150700268
11.829021021,1.0752665646789035,-1.167529216743151,2.838099392529468,-3.3802950691545806,0.33311266753721164,-0.20694736550609463
11.929013869,0.8238800892248359,-1.1162401970598532,2.9031138188976175,-3.649326561299061,0.34523812688993016,-0.21038408452645596
12.029013813,0.6166556534616067,-0.8955471391003876,2.846121247195926,-3.8919627309201665,0.31866021873710476,-0.2128366854791275
12.12900968,0.4251201909261435,-0.6578865994397523,2.841659949254644,-4.081086290625564,0.32429258679533807,-0.20370932889121604
12.228995987,0.24520465984605383,-0.4175068413450386,2.8272158573707626,-4.331852075290359,0.33948511147454663,-0.20887842982972896
12.329019279,0.09483529629674176,-0.17619518139078924,2.9884930436623494,-4.454266480868091,0.35452036507448187,-0.05034786540246205
12.429028797,0.10651165265573642,0.036171062167712945,3.120996083842973,-4.388105241166108,0.3447237965409404,0.06441003784533238
12.529008152,-0.0771285782248162,0.37350554908047057,3.2424978501297206,-4.32921337921763,0.3233154702277726,0.13664429417299723
12.629011636,-0.21526703266789082,0.7147712612104613,3.1556543049850223,-4.144653716183699,0.26914246009137266,0.17999604707507563
12.72901284,-0.4383452383811148,0.9665936985019865,3.177333976559725,-3.9579700369189257,0.261248005191787,0.2030535494200751
12.829020678,-0.5945369256705494,1.1443451868975447,3.106460217895544,-3.6581693839976364,0.27496963088576637,0.20822707979966099
12.92901668,-0.8773717830396458,1.2355400954202398,3.0427078266938175,-3.458119424132796,0.30648905647596436,0.20059880859607457
13.029009695,-1.1813518753086356,1.3653659854552938,2.944547454467602,-3.2308190898787026,0.3284190726648929,0.18854370089927555
13.129013556,-1.4605228822196825,1.3457955445443288,3.0191087161090486,-3.0014151285272193,0.34384604696153925,0.17658959109392403
13.229021137,-1.7619018113504106,1.2691854197250687,2.9793130313281657,-2.7386121877884375,0.34667112283858215,0.17660453707809134
13.32899959,-2.1249272501887804,1.160088387789438,2.9631439991989392,-2.5510881597863997,0.32757232271324616,0.18548621609183608
13.429012231,-2.249559052433819,0.8981048907266839,2.9693790584044724,-2.3137820706509036,0.3098696831368678,0.17483321451660505
13.528973836,-2.4922481119355284,0.7184849410425798,2.956156540010966,-2.0791499464780485,0.34080892487321673,0.18681305477616697
13.629009245,-2.5882916568572703,0.43358781942761065,3.018281565917326,-1.9163418643236778,0.30850069630636523,0.19051559409144883
13.729006402,-2.6630561160681236,0.10928277857083274,2.904496699611002,-1.6856839465146436,0.28468267440053757,0.1940696023754809
13.829074621,-2.6513012659508655,-0.14762063247815016,2.9092250642150304,-1.4875120358200018,0.3222946780274589,0.20196468282948737
13.929012566,-2.6087588930366823,-0.42361130081496484,2.861889707362021,-1.1973008374460323,0.2888884388218833,0.1954758442564838
14.029020006,-2.4694134615054093,-0.6782256964015471,2.7932106936628793,-0.9769929063515638,0.29754003943349794,0.20901598979877123
14.129013822,-2.334593588887531,-0.957226409957205,2.9130530012943985,-0.7407859716183813,0.30784825863854076,0.20539823350757658
14.229029539,-2.0149318962869054,-1.0581226172808904,2.8034712905237997,-0.5189200710264307,0.33592511946784953,0.2093475739520127
14.329013299,-1.7645271752677185,-1.1891856785576354,2.845082132586006,-0.24473995542936194,0.32554484915060217,0.19820049060222697
14.429022467,-1.4603732084036525,-1.3047343155207463,2.8126010269016897,-0.045225523612207635,0.3337421343205525,0.20759801770465697
14.529012877,-1.2203819312284165,-1.2850242408414747,2.8510019438405547,0.1621715111072042,0.3593108448848187,0.2091675628126864
14.629019915,-0.9428314510260084,-1.164397586415514,2.891648230195321,0.3971915725859098,0.3412227375208798,0.20398578308563806
14.729017403,-0.6669501364962848,-1.0265545467518025,2.879649264117468,0.6248380296181797,0.34068150845151735,0.19241165937339588
14.829014959,-0.5132602623883746,-0.8136802602465287,2.8743488001631334,0.8212864033347581,0.3520839526139548,0.200169111629315
14.929011817,-0.2649405554908623,-0.5659981036550293,2.894740602182835,1.1498951414640868,0.33774466461880176,0.19273585444110894
15.029030862,-0.2300188460415077,-0.2773204933201891,2.8993576249383404,1.2760159845274575,0.34676864117831363,0.1343616702618836
15.129004984,-0.09485784525359539,-0.06926252739503827,3.0192249195034027,1.3004578225274943,0.3726514537217329,-0.0167375581182484
15.22900884,-0.11884487413872236,0.28185561029353334,3.0676995607836193,1.2671041368662563,0.33617011086141196,-0.11750858313779602
15.329007475,0.06481196666841595,0.5480105617930212,3.1032816621362174,1.1729338411230337,0.3182118462560324,-0.1529078214797144
15.429019148,0.221356971998854,0.8321085842506892,3.066089708682275,0.9950699835266524,0.3111042143518542,-0.2041598764582974
