time (sec),x position (m),y position (m),forward velocity (m/s),"heading angle (rad), from x-axis, positive is CCW",throttle (unitless; -1 to 1),steering angle (unitless; -1 to 1)
0.12968695300000002,-0.8470427073576523,-0.8611864138481369,0.008920537180679778,0.8981560063435422,0.65,-0.2997692247976138
0.229686931,-0.9033978755583353,-0.9229667148765228,-0.005627185365056918,0.9707645969449767,0.65,-0.015046569527323158
0.329686187,-0.8205648665853341,-0.8703046510769477,0.4010870877364428,0.9043071410682313,0.65,0.03876371791489318
0.42969132200000004,-0.7768703924944742,-0.7520211142023459,0.8910761574378806,0.9473524089199582,0.65,0.09839066354896386
0.529685119,-0.7468666876421374,-0.6658101330087114,1.4302901167814692,1.0755996750871066,0.65,0.12624337697619703
0.6296897410000001,-0.6825555331119781,-0.6139469241830325,1.9724944004178848,1.1947365438341981,0.65,0.07941920108235367
0.729692235,-0.5421458637171293,-0.42512469801378777,2.4369502978508604,1.134444159541486,0.65,-0.008048228679607378
0.8296884750000001,-0.4426758686960971,-0.15716552168728717,2.9290030831201683,1.1296150911623553,0.65,-0.08329916608538704
0.9296858010000001,-0.2689412746675443,0.08344695220914923,3.274876407594891,1.107933648909905,0.65,-0.12025226261058228
1.029691934,-0.17791089398695498,0.4628168596745068,3.464438221594129,0.9544131697889181,0.5682185007999923,-0.15727255371497126
1.12969955,0.0568737589392379,0.681554720524329,3.4794165779425765,0.8437930616828497,0.4334747452117904,-0.18636818719364434
1.229689055,0.31478100748236293,0.9823703617023539,3.523535123058426,0.5993496173099073,0.34534934453246424,-0.2011697320774693
1.329689994,0.5764802098212162,1.157783601212318,3.4648702604935604,0.3896590697004446,0.31494257809510295,-0.21522624955089362
1.429704305,0.9181707771732484,1.229312692966739,3.3636739621138703,0.2156173927024393,0.29415171042469873,-0.22220585479754767
1.5296900070000001,1.2557778976534002,1.287191951188092,3.200891945126814,-0.023955113312846166,0.34001133115659365,-0.2341086163221543
1.629688737,1.6360961094956017,1.2706692695001536,3.163288129513858,-0.3236577103999277,0.42255070503482595,-0.2446634690103685
1.729694571,1.8472163415199365,1.1352335880904358,3.172211547383551,-0.43177592487737404,0.45740949982634643,-0.25412960154860054
1.829684506,2.155183677372952,0.9186911541791452,3.2100411045318338,-0.7695685101491484,0.48930522381911573,-0.25536895996647363
1.929693285,2.336090853897357,0.7381952865977494,3.2069334111160974,-0.9464070155470632,0.518750961179734,-0.24690200431764175
2.029688487,2.4333054185691276,0.4530530157887714,3.250510998874972,-1.1980467111929696,0.5067520456074476,-0.24319769179537293
2.129685886,2.624373200794276,0.14633199747441875,3.2653630405682286,-1.4916161145684224,0.46794236889248664,-0.2352703871429807
2.229693739,2.6377751829972884,-0.1890049455971188,3.2214733056275855,-1.6554886456632716,0.4408308282226337,-0.2326070710376982
2.329685951,2.5189862826918277,-0.5464419075508593,3.253941282996663,-1.866531399017344,0.42203970139268976,-0.23515701756965432
2.429689976,2.436507746823763,-0.8713075814353057,3.1745489669173055,-2.0868372588629316,0.36705545189620253,-0.23423836014212546
2.5297858939999998,2.288241676481335,-1.0071284255588597,3.2124816793857067,-2.310221724054827,0.35701337818864054,-0.23799375109024704
2.62981538,1.9984995168118205,-1.3009998093305448,3.1722383009875417,-2.5742813434019003,0.3341425547174722,-0.24792914271922048
2.729689238,1.7064799158517998,-1.4236065032887217,3.0454882810173416,-2.7852242683694213,0.3153467616445909,-0.2631482681447477
2.829804511,1.4656362836931092,-1.5348477770332545,3.0242579107744922,-3.0218098442302783,0.34823047613948305,-0.2722286303630121
2.929691418,1.1720979344942166,-1.552152981640217,2.9506818586047414,-3.1925566719220817,0.4190401811892035,-0.27677642710343314
3.029687476,0.8676862650598977,-1.4332271944459174,3.0539185835245592,-3.517267313425371,0.4754062228503214,-0.27423299755277125
3.129689194,0.6554410990612664,-1.3236208870337254,3.0732050634231385,-3.7545556536316846,0.5399931465137905,-0.26882359370031633
3.229690549,0.33534183640815673,-1.1330190595482144,3.1079504023879663,-4.003167406582385,0.6029026932895714,-0.2636553239406048
3.329698708,0.1644578996942469,-0.9093795434361753,3.2217041398523487,-4.281177610607994,0.6416474230595035,-0.1497738379034699
3.429768406,0.015269819053407692,-0.5703762658614763,3.4474625878730962,-4.3992344293578824,0.629503029153367,-0.04226405681875026
3.529685932,-0.10646359020463879,-0.1995259778855704,3.6674117200869016,-4.308555784084844,0.5900637662184428,0.055240552414893625
3.629699244,-0.23527109627318638,0.12859458914183663,3.7113311098474897,-4.250440261114475,0.433708409436793,0.08826319914019778
3.7296837590000003,-0.4686629316169916,0.46058659722116846,3.7982527625996556,-4.193496030127094,0.330999144511639,0.11876223800435654
3.829685687,-0.5989880900992401,0.7730029011066867,3.7762285970302023,-3.977578176516782,0.27934973425856585,0.1504138517314249
3.929686175,-0.8113910139128219,1.0014313906596994,3.59937491437047,-3.8240189689579953,0.21286410596175276,0.17212666532915896
4.029689886,-1.1861912591696582,1.2357415130489469,3.4983719634241557,-3.5566343275434567,0.19317913781138293,0.17811469570367663
4.129686627,-1.4515542780308401,1.3585876338047258,3.2682977908806414,-3.294626409432899,0.22792847644807473,0.18369158926595475
4.22968648,-1.8190063622551527,1.409272187655166,3.123615428495761,-3.0910863249424745,0.2455667426631134,0.19282743297905397
4.329689246,-2.111063383265835,1.368780985820488,3.0959633565503917,-2.875033407809151,0.29287770077877895,0.20359363980133421
4.429701085,-2.368766276962913,1.3235557923287924,2.9724618250598973,-2.6594753637070996,0.3707355929310108,0.22207984593023747
4.529739494,-2.676541192511791,1.1621414813990616,2.9660352680417934,-2.409082077188925,0.3871808347201929,0.2366310632422349
4.629696566,-2.854336708472811,0.8934003172187891,3.0407893672463207,-2.210820316011409,0.44283446627023426,0.23490864601890407
4.7296978460000005,-2.984917749187206,0.6740075768045506,3.0484058067231437,-2.014947941928962,0.5216843694976676,0.2434480062538301
4.829687428,-3.1137377209693864,0.3424845165837092,3.174085904567542,-1.7105347169321705,0.5297672070061523,0.22300676956404317
4.929784992,-3.1487578292508807,0.04767176467025455,3.188258750422347,-1.4465363499731967,0.5375690831463529,0.21532564908627658
5.029704339,-3.0817861109978737,-0.27484966933288424,3.2436155969953324,-1.201805237155024,0.5557070114249524,0.20699889636508262
5.129697111,-2.989192987697638,-0.5581768709989775,3.3270648445175808,-1.0569283305115882,0.546249075215997,0.2043504302144719
5.229697058,-2.7832365541459883,-0.8641908060436224,3.337212476970774,-0.8039555605675195,0.5018868343133659,0.18845698149592027
5.329704794,-2.560528340500606,-1.0403011825387551,3.360196571054397,-0.641518792631212,0.46661696235550415,0.18773910784125172
5.429685097,-2.2900155259023753,-1.2675533804853185,3.2977061914596457,-0.4069594714428862,0.43278424881799094,0.19071133397275666
5.529686511,-2.010660675166606,-1.436594400818133,3.3288063211917547,-0.2044368625886616,0.3817066869443332,0.19373230357568744
5.629708394,-1.671476068349735,-1.4087911886019309,3.2825185701928876,0.009643388305833372,0.3620239739062767,0.1929908135402412
5.729691526,-1.3690746405068035,-1.4227814263406426,3.1541182363717817,0.286448006904938,0.34405822546921894,0.19963026330558592
5.8296835940000005,-1.052520689176326,-1.3366058848320508,3.0537732541834735,0.44387738865412213,0.34692873050805206,0.2041202688794873
5.929688905,-0.8046204557746508,-1.1389144881492246,3.0452519398097317,0.7160137719145236,0.3922817231460876,0.20350511404029806
6.029692542,-0.6090846736980331,-0.9316394313523745,3.0554530511150473,0.9356802651908805,0.462796543827569,0.19170631259147894
6.129685264,-0.40959137361247167,-0.7008675831904732,3.244480538063014,1.1907037723576646,0.5814097969249092,0.10195790488459217
6.229688638,-0.2292541164543436,-0.39249632383436206,3.4519261271944095,1.1845228253916966,0.5954394445963602,0.012209781785119441
6.32969809,-0.0835411932089757,-0.0913014516299004,3.6507848888488468,1.137542561938702,0.5405166520142688,-0.07615113630707526
6.429687876,0.047409847248800444,0.24224020012152792,3.755837318848542,1.102810650669861,0.43987647950582814,-0.11387979772633317
6.529687341,0.2543288420614029,0.5437608900032571,3.7646385321416167,0.9996117240406162,0.328640427371375,-0.15042824252877668
6.629686005,0.5346911133730987,0.8745269900866768,3.6367826279952946,0.7674006889868589,0.26708400590513376,-0.18138565943569374
6.729746337,0.8233081229476786,1.042060138144514,3.5214245155114257,0.6233600715091695,0.23118754301065683,-0.19122588495980855
6.829701922,1.0721888308750251,1.2757521572468449,3.430530668157699,0.3944224654718203,0.22488461430976503,-0.2058223883097773
6.929686018,1.3979103758206601,1.3810391975897958,3.2641832473894015,0.15562318297035133,0.2746667814966854,-0.2180948808636164
7.029688935,1.6979706924548394,1.370658478821327,3.194915371783571,-0.06130165590978395,0.34577209480639104,-0.23784726113196197
7.129686494,1.9884716483262428,1.3026840212493271,3.1435359568936403,-0.3502743870065456,0.39428927322543017,-0.2525132567559897
7.229685666,2.282035540347366,1.2319760557945927,3.125721184850261,-0.6011375004721832,0.4721497856915731,-0.25181441527107923
7.329745938,2.4878452758595397,1.0321874303734944,3.1934696261778797,-0.8096096391556512,0.5320838294894544,-0.25221274952885453
7.429777388,2.731541786778658,0.7955872367050488,3.232237320194354,-1.0281377571569879,0.527834910667601,-0.24567695716241708
7.529692619,2.9448482643230784,0.4660733474684925,3.2148925838932807,-1.3089914556554345,0.5205997970327834,-0.23929241273080162
7.629762517,2.907497375384547,0.24119347671536082,3.275131443142459,-1.5326981123051229,0.5270329106151878,-0.2303223470480469
7.72976348,2.929089985818271,-0.10796318539949601,3.3176347103617774,-1.7416857908314793,0.4983610756811861,-0.2181238045332175
7.829688629,2.8763417611636766,-0.52659646358486,3.343375610209561,-1.9060835454491467,0.4592617582614409,-0.21943736114392068
7.929688567,2.6521963252119214,-0.7684026344200272,3.262964655580469,-2.154590565322133,0.43951569107099037,-0.22464615425044443
8.029709311,2.541755472721591,-1.0637730220291495,3.2418405004723576,-2.3894872829240787,0.379745183532508,-0.22722296357394672
8.129690563,2.279624700414326,-1.2292553578641179,3.1713224973541907,-2.5933231957587397,0.35590179144322864,-0.2374826385287601
8.22969392,2.032907818813648,-1.3748021972335085,3.215962466982331,-2.8839657445568534,0.3710870540391091,-0.23817608437771723
8.329684726,1.6929658317839336,-1.4012155631304704,3.149707235662717,-3.0859139096554484,0.3569006136681859,-0.24654906734785126
8.42970741,1.4215036250195234,-1.4449580852338089,3.0764917548839055,-3.254236556851488,0.3943934098820166,-0.25571947663081646
8.529791301,1.0901807673884456,-1.359320938396421,3.103859033649608,-3.47659595992237,0.4653828331482847,-0.25859933739299434
8.629692821999999,0.8194457854523561,-1.2624000716159098,3.10496796986351,-3.7744265593073694,0.5198056537924829,-0.2597080556089821
8.729686088,0.49828776514515705,-1.037382984388916,3.1777958593582616,-4.0611848755075615,0.5695888094833234,-0.2245251793244248
8.829687691,0.3496330526117996,-0.7990084124445712,3.300152475172227,-4.247234730967894,0.6182495562427244,-0.16725588017726412
8.929686002,0.21616906136780115,-0.5043720576066757,3.5567514452320976,-4.354027263221975,0.6043053900722707,-0.04646697826946787
9.029687406,0.03893079059377623,-0.12132368750877283,3.7819925310061002,-4.30228575583582,0.5203992094022518,0.03699945844642099
9.129687967,-0.11851850273243002,0.21618256173104092,3.8066322071064116,-4.242959432989735,0.4418863199559402,0.0793157287266728
9.229685439,-0.28262001251717966,0.5319695983373991,3.8605473077256134,-4.072215503948673,0.33005188114129363,0.11445532963737494
9.329785118,-0.5640041617539335,0.8190330990351967,3.747997427722759,-4.0100427662984,0.25351438429109846,0.14787609301081395
9.42974345,-0.7649586840481648,1.188901406456692,3.6616573688427874,-3.7021508554381697,0.21673286439750175,0.1690807617837832
9.529689233,-1.072732964081066,1.346638965983149,3.55249998297082,-3.5423380586575615,0.19861950977273218,0.17400765989696165
9.629691041000001,-1.3976381275421892,1.4204110522734106,3.391273285602712,-3.253381335101244,0.2113352234530659,0.18050489877772635
9.729715281,-1.7042588038162225,1.4598387445802348,3.218572051623177,-3.137628983836638,0.26352678474862545,0.18099716583735764
9.829687687,-2.0441145982136786,1.4481898537061653,3.091256080107033,-2.780198526323821,0.28993210450178564,0.19604129943691734
9.929687167,-2.3783687266940214,1.3261700831556986,3.051320841968996,-2.6576040922328295,0.35294608806429234,0.21288722078047703
10.029690618,-2.541956098620011,1.1888597461003632,3.0165494064839464,-2.40865839613419,0.41951536710855264,0.2205908248756007
10.12969071,-2.8180273378552485,0.9881059170860651,3.0798258236911393,-2.153666925155922,0.45470659640626804,0.2290636995228988
10.229692145,-2.9740912615701056,0.6596661818837712,3.101059926533767,-1.9633617629263107,0.4796338021276079,0.22586312541080072
10.329702634,-3.0906686813740434,0.39839165890095024,3.127758377171965,-1.722506684397826,0.5179402330903038,0.21353581297344795
10.429699325,-3.157789219168809,0.06235306946990546,3.172778001474491,-1.5502102873160946,0.5274345223149687,0.21240316591516095
10.529691306,-3.0651202044093555,-0.2225567675464557,3.2841260875809084,-1.2908200768793496,0.521063088340481,0.210855131759692
10.629703668,-2.9255123617191656,-0.5965022666428902,3.331712690615594,-1.1064279653154236,0.5084830635569911,0.19845164394473228
10.72970613,-2.712136300762533,-0.8642537035317763,3.363536897613685,-0.8063624326405183,0.4893036091130501,0.19444995730749648
10.82968566,-2.489347895100026,-1.0503770430672303,3.3277485869323766,-0.6539522363269401,0.4599035479929804,0.1927370829149132
10.929685501,-2.2979297440172894,-1.2729515659655977,3.311643192382192,-0.40415894966198823,0.41733286914063256,0.1890735757451967
11.029801066,-1.8967888229139391,-1.4361394122453182,3.3101249555558834,-0.20301464492208587,0.37995690400126,0.19695764999056964
11.12969005,-1.6359808326757759,-1.4860213228415213,3.210226608062267,0.028739167695594724,0.34458438185223195,0.20283361661600058
11.229687957,-1.3163933273734747,-1.4123462001989677,3.1736904163296327,0.19011223594849358,0.3289751225092884,0.20484701215005952
11.32968543,-1.0110306896345365,-1.347892921291023,3.114369564044537,0.4527465704881508,0.3508486747293199,0.20960692940630427
11.429687626,-0.672362396719997,-1.2141781805264684,3.0935170471723556,0.719419166985724,0.3730134644738425,0.21710267540620307
11.529723517,-0.4997563973851174,-1.037651825723901,3.0461829073120157,0.9113615028773182,0.4846011055157307,0.1845986754737288
11.629691132,-0.32821012819188244,-0.7817468739664768,3.267713474724406,1.1012108309078832,0.5851348854168573,0.11996596538368366
11.729686641,-0.17926153769457365,-0.5225080370570607,3.4558375600045275,1.0711847349556416,0.6198766705967785,0.013800746370394657
11.829684523000001,0.03187871937165847,-0.14483615985314713,3.688085804374013,1.1481822325247004,0.5539218866980768,-0.04710030004642136
11.929687018,0.2619090275491646,0.1772279464694403,3.7688116053612646,1.1282148569716186,0.42283872192847205,-0.09739566350112451
12.029690691,0.36700710480999704,0.5308840876911826,3.7859654372998586,0.9363771888367315,0.32887215200897385,-0.14476559600191097
12.129687969,0.6273260222806037,0.8031919195763937,3.7452387088659216,0.8179966566176796,0.2466756385382959,-0.181253403218967
12.229686262,0.8309324215314037,1.0547568070542244,3.5717884137670577,0.5894645498956702,0.19951529739648946,-0.19077646034738224
12.329690222,1.1490989955372841,1.2659830087023503,3.4154630817510454,0.32942207195866957,0.20304718992511864,-0.20128801569335528
12.429708953,1.4808688629884772,1.390181073412026,3.2529037897594053,0.13188411796902974,0.23678986453102696,-0.21752976663048787
12.529688038,1.7888380705340046,1.3299827040146601,3.121452034185355,-0.0474114928058662,0.31553156844065716,-0.2390629172128801
12.629691734,2.090855639532141,1.311091857651833,3.0824683304793847,-0.3537510554857426,0.41490524168553045,-0.24838163385082637
12.729685756,2.415515667056651,1.1698409394616442,3.1300942474272357,-0.5462375254359251,0.4690457946832219,-0.2530272792687111
12.829685096,2.617057831235283,0.988351923148731,3.129636129664741,-0.815608189549183,0.5069895626286257,-0.24854290362197712
12.929689218,2.798734158359646,0.7571261820013768,3.1681175357369087,-1.0419358328853572,0.5650727255935646,-0.25109924059605393
13.02969217,2.9878694493231737,0.46663229431800246,3.1833441170601677,-1.2675318491377066,0.5262413852300227,-0.23598764309682535
13.129688172,3.0150017908841393,0.1474947601033483,3.2830279621964555,-1.5432074878850524,0.5046416676370568,-0.2279599208064146
13.229688926,3.0104055505570693,-0.2221691995110081,3.2682933567733765,-1.7974974857084856,0.5166878290141239,-0.2113278447803657
13.329690259,2.9215632600612484,-0.5151430385207666,3.316918592964994,-1.9918969357873122,0.47125436528615966,-0.20488134536783265
13.429775804,2.763301089215845,-0.7631018372294011,3.25835831960189,-2.213467531657317,0.42647126857488504,-0.20576020475708165
13.529756935,2.5210464275229056,-1.0443500981707325,3.2825557991930334,-2.4332516476447292,0.42689799589748,-0.21388578946327566
13.629756469,2.35136325492603,-1.235606593011596,3.310121952794124,-2.627302081085498,0.3611529686978258,-0.21795240984663095
13.729777825,1.9761732266344747,-1.369033855397928,3.2520990800975023,-2.834225879454825,0.34321276455342,-0.23112433006042848
13.829687753,1.660977860614119,-1.457959966723331,3.154662137935511,-3.0495963242151105,0.36171136760015504,-0.23942048973774968
13.929685826,1.3943610629123133,-1.4829629162881581,3.1578309441071637,-3.342912706061664,0.4005315269063074,-0.25180631718805263
14.02968942,1.077871228401363,-1.3104956211075727,3.1640172763369265,-3.5741778882357615,0.4551563242772605,-0.2510640167578269
14.129695554,0.7680818169236343,-1.1700616441261615,3.158801803943141,-3.785392952189249,0.5167735684991696,-0.24308096247256158
14.229701279,0.565565610200982,-1.013481176801713,3.1687011573813804,-4.039822440186908,0.5358561287096001,-0.23242343397289728
14.329685405,0.3818962675476465,-0.7488509302737233,3.2676031053171197,-4.2843804886258186,0.5880400087018539,-0.15137951299617844
14.429691758,0.25645979675445485,-0.42749417665767536,3.453842929973289,-4.349971222127374,0.6092862692704304,-0.028777146161973178
14.529707943,0.11545198027906786,-0.08142471856273023,3.7343254901569307,-4.349650878324758,0.5390163791574261,0.058132682340700376
14.629685495,-0.034062077461575205,0.2316707535953047,3.834814379106863,-4.220551041934952,0.402160353218117,0.08907925621827487
14.729686015,-0.1785264045890485,0.5984022021450773,3.840856303199911,-4.134693586006522,0.31274165347635013,0.12226732046120393
14.829754515,-0.5018140886293412,0.9332092020613809,3.7541931835731024,-3.9463425672795722,0.2708428256094993,0.15111569215660936
14.929686696000001,-0.7130089189481915,1.1132423311940454,3.638880350359721,-3.780736943173968,0.22159066082492157,0.16784847300524813
15.029770803,-1.0007335491649052,1.3640757153326457,3.5209701405119898,-3.558206039561208,0.22859396785764372,0.17491425214446202
15.129686703,-1.3103287098914187,1.5314405719920663,3.3291084650165996,-3.2616278490238297,0.22444225321091718,0.1845961399531054
15.229691956,-1.716839189527198,1.5766157201869635,3.2257577012442975,-3.1146051780297164,0.24649691326482007,0.206641040291791
15.329738717,-1.957298077819296,1.4734895582640266,3.162811421590844,-2.931445015795023,0.3055005227240421,0.20846937682024352
15.429689525,-2.277387630225377,1.4346359009120884,3.143778996930789,-2.6865901427729932,0.33997455186540887,0.22262794346631698
