time (sec),x position (m),y position (m),forward velocity (m/s),"heading angle (rad), from x-axis, positive is CCW",throttle (unitless; -1 to 1),steering angle (unitless; -1 to 1)
0.12533423800000001,-0.10431265228684408,-1.0378157009577453,0.03260258026542014,0.7489212121034466,0.75,0.36439552579620416
0.225351879,-0.0652425425427755,-1.0523948828836693,0.10275932335390019,0.7914414221409551,0.75,0.13663079011123494
0.32543446200000004,-0.14680417217658587,-1.1607504911952204,0.025930968631009004,0.8447903949553199,0.75,0.16894957369432348
0.425356905,-0.06713625107775338,-1.1043564925047724,0.5021802092670766,0.8027112760800532,0.75,0.22309924159696107
0.525367337,-0.01666446485693334,-1.0100281550301804,1.3837352749547798,0.8890263871713482,0.75,0.2033858316069656
0.625350972,0.17368202462434684,-0.8232320055161898,2.170484874512842,1.012628614317986,0.75,0.11589731256812809
0.7253710830000001,0.23329398824498576,-0.6899181330861455,2.905832829147575,1.1339234890483962,0.75,0.006443851997855285
0.825352606,0.38118920943119805,-0.3600442176813844,3.2993863020185423,1.0195234357565144,0.7251324277168926,-0.08681094326761636
0.9253694130000001,0.5337678966112254,0.014959161936687098,3.500761306129873,0.952994570094035,0.5192584849123395,-0.1319044344844863
1.025346028,0.7402245788891798,0.3019399832342761,3.5640752057787553,0.7693967321873648,0.41241170914937086,-0.15496102220006938
1.125339672,0.9826757867878926,0.4886618290607794,3.6493299882586445,0.5666796069380985,0.3523471019878397,-0.17251519324343756
1.225349501,1.2810597138528226,0.6996178655612667,3.4605856415436764,0.3557905809195299,0.29663657792926273,-0.18101940324301732
1.325344707,1.6535959583143982,0.7295534851067214,3.3952330186786606,0.1486474673945136,0.27823222756000704,-0.18664395506541254
1.425343182,1.9575345671125686,0.7642958315461357,3.2457865825054664,-0.07119577840120364,0.28994849578239174,-0.1982290519531421
1.525362306,2.293097235475831,0.8082451791970456,3.1731011536478815,-0.26072093076767167,0.28943402903677584,-0.20130808988773136
1.625348156,2.594954480989672,0.5813827045815338,3.1894441113431675,-0.5659834186597269,0.3660471796481399,-0.22161412016847748
1.725344635,2.8177873000550986,0.46827129906642273,3.1503808349719686,-0.6759852143611447,0.3767076489185953,-0.2342290150980938
1.825349835,3.142542412716254,0.14413835716130435,3.0906777234153515,-1.0875289508583557,0.5078235626416868,-0.237053625079222
1.925364381,3.243958212013017,-0.15908350086882023,3.115868978030658,-1.238687605652056,0.4516178327978617,-0.2383468346147468
2.025368856,3.306790510597077,-0.3917509052421868,3.1164732500296255,-1.5400861669127774,0.47833092587732917,-0.22978542143521685
2.125346618,3.2234055016960443,-0.7751389253212982,3.1538717768158304,-1.7143187133733964,0.46963903121567996,-0.23340370353695697
2.225348164,3.1914111684106317,-0.9487699193162781,3.1662948799241657,-1.984913039897086,0.47984564436677246,-0.2256098400212725
2.325350491,2.982656829317981,-1.3480830364714118,3.221479527730599,-2.191653240400489,0.5255265080743399,-0.21960900687303947
2.425431453,2.6766903346938506,-1.4824426479598383,3.334839330098608,-2.416966215315184,0.49799616489408494,-0.20964540539120402
2.525343301,2.4553874619178306,-1.647403096689978,3.3847670522812994,-2.7023444009362145,0.4780342472554318,-0.20757874580868774
2.625368249,2.2148539041108535,-1.856374363310615,3.3856700323111486,-3.0115356319325888,0.47050757739982285,-0.20366834555722765
2.7254374180000003,1.8503302628386524,-1.9756246960066517,3.4619634842235065,-3.1569738673762773,0.44800171888553086,-0.19936439623600533
2.825363947,1.476639975330103,-1.899607319709835,3.371252738380907,-3.3263365459410656,0.41954361022610587,-0.19640156845057094
2.925348725,1.1367338460592125,-1.8170514180708353,3.472893751674894,-3.5851276532201433,0.4100418239492111,-0.19688407293755322
3.025400069,0.9249829956900215,-1.6823698291181857,3.372592349684259,-3.7116283785640705,0.4114689197450265,-0.19977048423810487
3.125337725,0.5596332304808813,-1.5171664866211716,3.3635706688239266,-3.9423528563806616,0.408007381126923,-0.19374904225180745
3.225347343,0.45048318755646655,-1.1519544994546496,3.3366995753025384,-4.237961859676351,0.4526171932306697,-0.17598202869230603
3.3253925840000003,0.21604954840328777,-0.9643178499004397,3.5997325883428144,-4.2717742378659205,0.5468061108712177,-0.07317651233053779
3.425435713,0.02352989053746199,-0.5898772332254765,3.61299212761589,-4.289552331222425,0.5136838124477746,0.010933267851656481
3.525349849,-0.07412786150210748,-0.2917114174286527,3.8850215313081153,-4.326745003580394,0.4160298196691082,0.06677952895598879
3.6254399409999998,-0.24954476599947367,0.12433307535653781,3.9975449068072932,-4.167083621793039,0.32975719014415933,0.10739875925694707
3.725354229,-0.4212132730048011,0.4380649305731207,3.9139377272465294,-4.088808319037725,0.24235481421783742,0.13351316835251845
3.825348469,-0.8113131562629959,0.7064345817289955,3.7040519271600565,-3.8553868694845352,0.18959659006324842,0.1545844458298949
3.925355695,-1.0190099757341156,0.9053634985678878,3.609686788553265,-3.544954317966746,0.18370567077635788,0.16240718268404924
4.025434417,-1.3452785207394027,1.0291110626453812,3.4498159592286046,-3.270151568550781,0.18938115997603458,0.15349854577520194
4.125340341,-1.5787996862028437,1.0571529231445969,3.14996506117037,-3.0906486297992575,0.23633332842780527,0.15863031178989018
4.225424828,-1.9499535272937876,1.182899543682612,3.015046676733746,-2.8663688624956767,0.3034293259492182,0.16239995958407227
4.325346752,-2.182327752359932,1.054683581509315,2.8532681151380594,-2.656486537173804,0.07691107686225677,0.2625782641772394
4.42534603,-2.498042569271392,0.7899724671366135,2.699104109440903,-2.377943432440122,0.30393942586261385,0.23750759277767525
4.525406746,-2.653663958123411,0.5608894328592993,2.832936554277832,-2.179557051977013,0.5307618982013599,0.1667698399184479
4.625373179,-2.7799183691981537,0.3784549438139343,2.942962239581456,-1.87444790477832,0.5042249052220648,0.1702045858371805
4.7253770280000005,-2.779207380796407,0.0064860628121336805,3.064620713882687,-1.7104422678853572,0.4388544497002824,0.17875725230726056
4.825360089,-2.783311121875589,-0.18914772373469962,3.229249354086273,-1.552384317365104,0.4250412643827846,0.19143177380843795
4.925363958,-2.7785885518293125,-0.5523859312526348,3.0659841386982194,-1.3142909689993376,0.39572007006931936,0.19693899808942722
5.025347911,-2.7574361944908587,-0.7070086134892487,3.1401530274243092,-1.000785779095708,0.4103362522760604,0.19718076742352758
5.125336041,-2.438378761170569,-1.1224481401415174,3.16773059167766,-0.7655838075649892,0.43563663839993466,0.198141311439548
5.225348446,-2.1749965101260074,-1.2384519890821846,3.1483078253044448,-0.5804752694346258,0.4687306252725081,0.20011169847121266
5.325343866,-1.9867424601358734,-1.5263527803515344,3.2310758998392806,-0.3149549921308711,0.45768212835773314,0.20300585305261643
5.425376721,-1.6645884955702905,-1.4890556540088464,3.2350267737760507,-0.16670139415147395,0.4418962320520605,0.19862199221811516
5.52534805,-1.2610641477515425,-1.4558349302280484,3.1449838433459463,0.10920536663199729,0.4597054986697994,0.19843545345328173
5.625436566,-1.0327057677543394,-1.500996270192697,3.2255981323863665,0.4120338717685835,0.427623879408626,0.19496406324038487
5.725392951,-0.7229582855001148,-1.3062062936965275,3.3602096868706552,0.7113836099625379,0.40289517271174385,0.18242654378080833
5.825453592,-0.4826982059287405,-1.171398171245109,3.2508505584138114,0.7603000339311723,0.410429490569025,0.17307556597894505
5.925360727,-0.23767248544392786,-0.8995820622046248,3.314705321346581,1.0382320055219183,0.4240448488587739,0.17398299061570519
6.025359367,-0.0747518752732125,-0.6326083503003763,3.34968670459551,1.20200700995711,0.46917228096274544,0.11187938159744969
6.1253364359999996,0.06831767874350922,-0.2467266596401044,3.4700564575827526,1.3416261423928777,0.5488219855899156,-0.018720937810906405
6.225368021,0.10690158642558562,-0.0005233150608413804,3.4735578420887645,1.30235183642709,0.4891347057947109,-0.09128515769291903
6.325409377,0.27452939207975324,0.39703692824379916,3.6556578001085542,1.1051393642564338,0.41919290493591815,-0.13365907937555757
6.425350911,0.483366051584483,0.7823128934284206,3.5946914071330034,0.9597101445760896,0.3907862399608567,-0.16190897587219524
6.525358968,0.6401825724961476,0.9921322029343861,3.604981905948698,0.7946850689082917,0.32539638688114436,-0.16837773015460897
6.625347428,0.9305731272800184,1.1957884322862886,3.5264775699804805,0.5632685941048745,0.313098745589285,-0.18723481861513802
6.725419938,1.2394678839582387,1.4096531312850558,3.4049403316950606,0.32820728050637316,0.3308235710355378,-0.18226835048620232
6.825367107,1.5421443712083927,1.4777181737572218,3.3696512583379756,0.1640913339792835,0.34274417052167083,-0.19084518065206924
6.925348033,1.9813239268880354,1.4908564186970812,3.2986345405022384,-0.1323920722318508,0.35562117931579895,-0.20177162619409064
7.02539689,2.181780534131088,1.463215232040103,3.306165393210589,-0.2987560910165028,0.3801942282632516,-0.2054668376042941
7.125442078,2.629968624686227,1.2119355556079958,3.3151660664446383,-0.5351333044338374,0.4193679326105838,-0.21617871649590434
7.225356542,2.7394416336558196,1.1472832490431333,3.22311605299829,-0.7989911239937014,0.4182761298261404,-0.212241294459493
7.325364694,2.9305066722229234,0.742093933847794,3.2708384985404586,-1.049635574726301,0.4445310323148104,-0.22444821052900218
7.425345786,3.156710301240345,0.47176093547335896,3.3323072498110156,-1.2532533667750227,0.4773057658173213,-0.22735083136915216
7.525355971,3.1122548618730015,0.2047225532614539,3.2874113826274884,-1.54566906920758,0.45193416002478937,-0.215823440204868
7.625346116,3.328107677927069,-0.14783095768361934,3.3043966798419424,-1.7669032876849864,0.47703712283926825,-0.2195721877858144
7.72543704,3.145316760331137,-0.49551607661257324,3.3624389183083756,-2.045641596955079,0.5048485757362247,-0.21450507284466136
7.825343878,2.9863290712212396,-0.7457819584287596,3.3172079349870423,-2.161245595356483,0.4776863716119,-0.20377143496740122
7.925368079,2.7370120713624084,-1.0771153446919342,3.4029376140554595,-2.359530483247542,0.46531215549437344,-0.20280266662856888
8.025344362,2.5208284359469038,-1.2561440354931555,3.373414589139206,-2.672761155120809,0.47167437266219714,-0.19515755990159558
8.125336238,2.1454136298375786,-1.4798666024385065,3.5061341428570194,-2.904432871211032,0.42796758956831604,-0.19986578029682128
8.225344648,1.830656502816789,-1.4803093430261391,3.448895051728529,-3.101525167664375,0.39432127060065514,-0.18887574401936816
8.325347076,1.5239746894795565,-1.4707776490896844,3.4204893381908734,-3.3118832330186385,0.38346440470128634,-0.1984796424723568
8.425345258,1.2407471922185698,-1.4727716458007902,3.3192234627127712,-3.5229583956565085,0.36331319853852795,-0.19754442426994676
8.525345537,0.7958396554559581,-1.3428924489401146,3.3574594087221703,-3.6289759519451144,0.36283913063849826,-0.20107891113434637
8.625344656,0.6380138657385314,-1.127438720351696,3.3171407300270834,-3.989588532828196,0.3831218242644202,-0.19162646485303997
8.725345397,0.4252018749179045,-0.9423605260577511,3.1556174281015896,-4.108606444913836,0.43996842312766954,-0.1705275280162496
8.825347028,0.19386508576359546,-0.5815327042525729,3.439162819558727,-4.323987317984888,0.5031197394224014,-0.08628571256627565
8.925347327,0.046753815039184576,-0.21706082136490062,3.6330050595732506,-4.30052923149246,0.48652153899169087,8.507574179937669e-5
9.025345803,-0.12023364414866342,0.0657694508326702,3.775407062350841,-4.192747093039949,0.4208574289338953,0.06206168172902894
9.125337338,-0.35106915425127555,0.4672650659439887,3.691808951227688,-4.097174238993429,0.31339814916557673,0.10099432245826216
9.225341947,-0.563937564404461,0.7199178105196798,3.7198023785753036,-4.115313400366604,0.23973745818432635,0.12438528991498327
9.325350649,-0.7308746000911144,0.9688989766283401,3.7052300717477955,-3.7684090309774043,0.19847429790615542,0.15283112789748632
9.425389941,-1.0639284456094034,1.240333577003465,3.5485825437948186,-3.5565809170168006,0.17948146581853963,0.16247371323085064
9.525348712,-1.3000394963850164,1.2923309822522702,3.267444806803882,-3.3528470149110574,0.20571287946723169,0.1686417053904449
9.625354158,-1.6664557035253758,1.3812297706999692,3.160852146713938,-3.0593451371960874,0.2646824185804638,0.1701808019595997
9.725450031,-1.9777931591485547,1.4023811138213014,3.0785351328433577,-2.802315986593607,0.2998529227804492,0.16805713064048627
9.825345772,-2.197763371907984,1.2033008871516873,2.9958011159432236,-2.669100651258208,0.3489309591586936,0.17834853345318946
9.92544117,-2.5642734808831915,1.136240205596398,3.0900055288170507,-2.3719392741358267,0.39915823341814566,0.18831466715806663
10.025424914,-2.775625755739978,0.7879846471662947,3.127386937263864,-2.2117542073757828,0.40685726775364045,0.191563941386881
10.125335498,-2.923324061226543,0.522566270096007,3.2630169566503184,-1.940125105833488,0.4164117177335039,0.19694486783658732
10.225348165,-3.051665269871481,0.24933867361280457,3.075340604984402,-1.6625700404366115,0.4328355391551993,0.18965198691869434
10.325347023,-3.0284631569530887,-0.036150334983557984,3.0913613978590013,-1.5928385661482676,0.4252132309904441,0.1920700609060708
10.425354569,-3.031843728500521,-0.4053928878963875,3.1869854287391854,-1.239627731529212,0.42203930038586346,0.19605275530162355
10.525352833,-2.8511997171681585,-0.7632216214104607,3.1663136709197746,-1.0549420192624646,0.456641197961077,0.19349402851428907
10.625345007,-2.7222909271600533,-0.8550177812828049,3.298947645156055,-0.8656583275526024,0.4593448628648334,0.2074249265773429
10.725343176,-2.410573122152727,-1.250541028981136,3.30441741852761,-0.6042318706008674,0.4427510235565995,0.20637313548541666
10.825344101,-2.2157275616893264,-1.3825137805396555,3.4090657980165657,-0.3094058108424867,0.4553216458852015,0.21136033586024383
10.925371182,-1.9079140668745953,-1.3854647777987092,3.2118658171873875,-0.17913538050359798,0.4593510791160511,0.20779471296416363
11.025346965,-1.5322623397421673,-1.452613877294225,3.363699135138426,0.0987306305705037,0.4356916632269237,0.19260047807032663
11.125333871,-1.1889964236453159,-1.4716060747404733,3.3240007209232156,0.27057074211985116,0.4272584267917479,0.183031090705862
11.225343492,-0.9672671585003133,-1.1569689278380455,3.3438374238192696,0.532884637021875,0.40779574303772775,0.18839166836414278
11.325358604,-0.6605108954656902,-1.0345952611834752,3.2630760611749268,0.7658655288245623,0.3947493654901807,0.1923462696773427
11.42542347,-0.39407735782556697,-0.7489524827687029,3.245621108154883,1.070286279565317,0.4243758122473044,0.1640974375664557
11.525423570000001,-0.26679500136212014,-0.5044494707876291,3.3595787995578177,1.0710546157405727,0.4780764661200076,0.09578680502660081
11.625406314,-0.1999823541717365,-0.23979857790814876,3.423298516374665,1.2042371221331862,0.5009855288513687,0.005657043019917783
11.725359794,0.035592942670946606,0.059810510074860865,3.542876656038945,1.2404450656673098,0.48873059575605654,-0.06558863161402954
11.825347163,0.26515152414208815,0.3655451203290937,3.679829512509234,1.1266127973574447,0.4175006529371391,-0.12453168654999115
11.925350008,0.3648207395226653,0.8323146953127457,3.7216313275338004,0.9836039107947802,0.3612162037456634,-0.15569836412328097
12.025370977,0.6379893086797552,1.060609508200909,3.649545857289958,0.8300480411698786,0.3328921190042846,-0.17466547310156225
12.125336549,0.8664377671662002,1.3142976406376659,3.606874542472824,0.5365923032894805,0.31842640132580646,-0.18674241796470806
12.22534992,1.2263963115195762,1.3239225976157762,3.4986493140583264,0.3278534579986263,0.3183092055486883,-0.19103186727999472
12.325346644,1.6082618434113476,1.4980647959084852,3.4492106183464797,0.15628697482596446,0.3375566778298475,-0.19752391618344034
12.425362747,1.84751065961039,1.5344013676001005,3.361515675875922,-0.12510095885990433,0.35415371828697856,-0.20727899871253955
12.525343234,2.152229937408355,1.5118626877446482,3.1858084351304368,-0.2969600000665967,0.36791181099905335,-0.20576338157007393
12.625346897,2.4804628131802686,1.4469030840043002,3.2687206069650134,-0.4847137252071258,0.41461310023116,-0.22252732515872745
12.725406328,2.7443479628013576,1.1872703043635147,3.2584964216962837,-0.7442974484343157,0.42802534248287316,-0.23092693339255882
12.825343359,2.896806660916364,0.9811911380878261,3.3921741432564456,-0.9432806729913418,0.4351183215363747,-0.23162615937718917
12.92535045,3.0278020780378854,0.5331109251862174,3.341040063889899,-1.1954098215776636,0.4572739573301832,-0.22813849289133747
13.025346891,3.2143181395359504,0.29918559125860517,3.4039728950599217,-1.5410030737267848,0.46852093957707025,-0.23421146965575107
13.12533656,3.135980405884448,-0.031408994539232335,3.2817311026385654,-1.7100688563150606,0.48088402724186924,-0.22449878480977628
13.225360005,3.0452578294318826,-0.3483738512140069,3.309332368669422,-1.8807131749392734,0.4864435232723696,-0.22211096361912153
13.325361381,2.9164997947589235,-0.6476838772984224,3.4184716283539847,-2.1578649596084007,0.48386263812548386,-0.22208352807318252
13.425432799,2.78956045304827,-1.0499128119681926,3.421229959067595,-2.4034288859693707,0.4618876572151079,-0.2125262439346955
13.525353968,2.5645606249742148,-1.1633848746629325,3.386333007862064,-2.5786561172482894,0.4481524159791996,-0.2071594323503275
13.625437682,2.1498988351104305,-1.417147582778754,3.435196836133501,-2.758737809936275,0.43550950927980814,-0.21114776856402437
13.72536184,1.852819410192728,-1.4166687360037113,3.2756706268431275,-2.993883301417468,0.3839162163190106,-0.1978590903065294
13.825454321,1.5261843923154232,-1.5250982424924233,3.3208829087572744,-3.2573250748046165,0.38386382705789845,-0.20458210156498463
13.925354456,1.2523598903806543,-1.4365140685109232,3.326044298908256,-3.4351136783208247,0.3626081946860977,-0.2010409391658533
14.025392534,0.8287013502638286,-1.3031548980585586,3.2782677092126873,-3.71342439385782,0.3564864633958186,-0.21027531776462044
14.125337307,0.6316240369026564,-1.0817746605700913,3.228435067043558,-3.9711371458644997,0.37416066705507545,-0.20300344457330366
14.225349485,0.4399649563822402,-0.9028451599997921,3.278732276182194,-4.092981472559432,0.4221545508020002,-0.1797488472840549
14.325435159,0.2738907458034501,-0.7129569753159137,3.365075231832714,-4.3048731478557425,0.488530477021798,-0.10153097527493532
14.425356278,0.11743707009237542,-0.2646383907731333,3.689446794530428,-4.321340947469034,0.508651254873295,-0.0032368384105547774
14.525356115,-0.1097924758013218,0.06460042181580286,3.8407663374499856,-4.258168237797789,0.4212597068408661,0.05360345125921796
14.625365005,-0.23592039292707148,0.38743828745488673,3.8440279358399887,-4.027994749062907,0.3213684488016878,0.09209486991867377
14.725341735,-0.48456868690378607,0.6798673018733605,3.7452802185022267,-4.004600662881088,0.24804620002329283,0.11893577114887374
14.825348958,-0.8380224464330734,0.940307104651884,3.7171672637125392,-3.76960243460235,0.19607328743431426,0.14364677706938012
14.925347644,-1.0291245598942331,1.1335698396429765,3.561389201145056,-3.4741895614194793,0.17320207521659706,0.15897188265174805
15.02534328,-1.395682133563147,1.2537787679484158,3.3690922438839013,-3.3354056235995406,0.20288263529228606,0.1523382878983241
15.125340508,-1.768990143814266,1.3284897378242373,3.260567991687799,-3.106432099824846,0.25800868100140173,0.1546888143241777
15.225359202,-1.9798081233651952,1.394478190509514,3.119291936644303,-2.8842832504489375,0.2995049585046937,0.16507175939781438
15.325358607,-2.3449789587352687,1.11068652818554,3.101500325510126,-2.620795849761979,0.330792790977565,0.18254341886406375
