time (sec),x position (m),y position (m),forward velocity (m/s),"heading angle (rad), from x-axis, positive is CCW",throttle (unitless; -1 to 1),steering angle (unitless; -1 to 1)
1.018132407,-0.6896685310604157,1.065617128158453,3.4987340466793766,2.501817588219823,0.368720822265664,0.15984641052339302
1.058133184,-0.8081787791274057,1.1639350305198486,3.4812289736958615,2.5893465188345224,0.3323395547597464,0.15992798034520275
1.098132666,-0.9330005330254445,1.23824965419632,3.454118515055817,2.6714713460342803,0.28698891552698025,0.17186884908549427
1.138132522,-1.0367200740701363,1.2925206964938223,3.426960777376712,2.7482266577469523,0.2659612237819929,0.18267765199649788
1.1781337490000001,-1.1772382692768284,1.3449538417785825,3.356007069509071,2.8504588517008127,0.25473139404161305,0.2033189631021149
1.218132591,-1.3090363973729502,1.402241736838204,3.3238001442421563,2.9606362304510774,0.23969200401450005,0.2034467818961919
1.258130133,-1.4426429236480816,1.4140780286199166,3.266061499768396,3.0465559952847574,0.23416594598193788,0.2023530887647767
1.298130904,-1.5598311767509785,1.4516939629660448,3.1798140112560054,3.1563964889681886,0.2499413667581634,0.1988332803231053
1.338130328,-1.7030210442495781,1.4408329099224926,3.1218385880952573,3.239971162360138,0.27173982411852055,0.199484616697634
1.378188735,-1.8021997648630865,1.433463714218536,3.1374874143323037,3.309177517727075,0.2737276739829899,0.2001486700837166
1.418130127,-1.9416778918974449,1.4236731717398359,3.066066022688692,3.4370405750546733,0.293870570164082,0.2022888276250986
1.45813473,-2.033645171318968,1.375938370704936,3.0299184684885385,3.5006140126828558,0.3241049750107919,0.2060748753934408
1.498149161,-2.096424812833156,1.3592341593638604,3.042780959677485,3.5582139508496757,0.3516383774383441,0.2153398228469229
1.538133034,-2.270055310470906,1.2746731201080301,3.031868710524685,3.6679663009216323,0.37025368207581116,0.21333363097822786
1.578141325,-2.36428549359683,1.2016619571148284,3.049576234731506,3.7805431111347643,0.399613320022189,0.2265173638116219
1.618138416,-2.470282217956578,1.1319445606945888,3.041429621575094,3.860365611009112,0.4374817156098504,0.23971416927089062
1.658130115,-2.5638730710686217,1.0438833568970818,3.0658395826817904,3.9464908898371656,0.450111848301898,0.22804396159853343
1.698133235,-2.6388273545675878,0.9549889186486913,3.0700152849809865,4.049867834679965,0.4547965013740773,0.23107094292856056
1.738140618,-2.721509212454537,0.8669351429199006,3.101713701096351,4.148931371795163,0.47677989904575785,0.2329668352977845
1.7781767990000001,-2.791490291266989,0.7598734073708585,3.1153847841487203,4.2250416884254305,0.5167632325781303,0.2250628787230105
1.818135491,-2.8507277884525797,0.6437230623099739,3.1286943610242983,4.324376995333225,0.5133487510098326,0.22517060962533922
1.858171094,-2.893608914719558,0.5691418282677861,3.1439285441974203,4.408034821483557,0.5138408893657351,0.22321193091087865
1.8981439340000001,-2.935105603375292,0.4000751254939815,3.198838671378704,4.52163597880922,0.5327749637211353,0.22244413299756094
1.9382145990000001,-2.939757334340798,0.28037628969130507,3.207966023983638,4.596152716861612,0.5540730082017868,0.2135733792113166
1.978148687,-2.966515339089873,0.17566516231064785,3.2293139258529346,4.7059680513392825,0.5477902377246234,0.21797418622851597
2.018135775,-2.9915185802355677,0.022620644586959518,3.281695973827486,4.811482618440376,0.5359742247658825,0.2093650358868578
2.058147877,-2.974089986664162,-0.07140816277633646,3.274955179995592,4.855261731718643,0.5553953297461263,0.20849142249770425
2.09814756,-2.9539591637981233,-0.17701079391622293,3.2820144593043765,4.958083740558226,0.547896932954259,0.19834827558644186
2.138191318,-2.9367198739901017,-0.36235202794240023,3.3260693969703086,5.064658984502139,0.5212300175791053,0.19728037383806668
2.178228216,-2.8898897211489696,-0.48824656808420136,3.3357100678225797,5.153573794189588,0.5273267435867169,0.20288239285242948
2.218140104,-2.831379313901864,-0.6000394008152875,3.368191740906592,5.24388256211412,0.5387784041276494,0.20117308861297284
2.258149651,-2.763609434290408,-0.7212782255184033,3.3868165191565653,5.321500706347507,0.499230256657901,0.18885290905308044
2.298178789,-2.707680881766413,-0.840438941003722,3.3860615457022254,5.406483300521952,0.4788706080711427,0.18896739149288508
2.3381360620000002,-2.612730667565658,-0.9418032477241238,3.370688394082437,5.4846627902492,0.4724612140041988,0.18869122398144264
2.378130744,-2.513987074204923,-1.060910721218076,3.3886901645871315,5.566374190258751,0.4614625933912927,0.18281735735533497
2.418171717,-2.4248755564647384,-1.1591803360577326,3.365211955643878,5.651760136117768,0.431036399031913,0.18396010140179667
2.458231263,-2.325773380278304,-1.2393409752999447,3.38206485711482,5.72591458100034,0.4216616530429389,0.18633906709189246
2.498216325,-2.2015716359970203,-1.2977276900241468,3.369885576886788,5.802108104771764,0.4093187123347726,0.1900384421002852
2.538232876,-2.079176331490176,-1.382775789748245,3.3406019956496027,5.885968099546087,0.3890253869173766,0.18886925295297066
2.578142766,-1.9511392531038043,-1.4110991656555936,3.3364826331450814,5.968854908944926,0.3617360433001427,0.1919485941617532
2.618231118,-1.8430543240068002,-1.4497972514563118,3.302363600998572,6.066765094876591,0.34695998975089004,0.1957092394538934
2.658247137,-1.7113016978301805,-1.4950482591345833,3.298588702999957,6.15346140016614,0.3499504375413883,0.19847918403654397
2.69823622,-1.5699322695297757,-1.5113013038445675,3.238617559542292,6.231304726473041,0.3293857710017302,0.19807703642397906
2.7382137230000003,-1.440985787490911,-1.5223880461297816,3.22851064116818,6.3300236301563855,0.31610392180274643,0.19974883135148522
2.778142602,-1.322610101064448,-1.5293522161104118,3.232660604860676,6.40181766125945,0.3192288754014442,0.20194657656953857
2.818146043,-1.1844537089067793,-1.4853448789912609,3.1891730779687286,6.51103169807015,0.3254339035703723,0.20532571737451966
2.8581335770000003,-1.0591371917149635,-1.479754189353816,3.146644763342186,6.597733661871796,0.31764735523620086,0.208641937027358
2.898132405,-0.9362174873377006,-1.4433126489530905,3.140906421721185,6.6857027435578456,0.32478042137372665,0.21118898990700855
2.938134416,-0.8300503640670241,-1.3799055765652455,3.0888482077459565,6.786092124504347,0.3463233393608316,0.21303807928711183
2.9781319340000003,-0.7257603889981495,-1.3316524202838955,3.080626235287005,6.885806623992236,0.36222614793840024,0.21054194873086476
3.018134055,-0.6199353890544068,-1.2649499829286124,3.075456761176325,6.962890985809212,0.3704357092562933,0.21224563689860093
3.058134675,-0.5198812388085078,-1.1947675984538504,3.056695318745576,7.074034720639265,0.39613715844861064,0.21541870249545217
3.098144598,-0.4745232079938454,-1.135108424225024,3.0557504291036395,7.098846534165833,0.4340989626020646,0.21862337127227047
3.138149172,-0.36477763680472447,-1.0344335873029362,3.0940303756707443,7.217895373479445,0.48677235761318655,0.20346994474772773
3.178155411,-0.3021126135059529,-0.9054876681343923,3.1637726012489673,7.290459012241402,0.5516432418146251,0.15826846134930833
3.218204574,-0.21247593719563582,-0.7764349258903679,3.247353954178095,7.372701715097943,0.616818796281669,0.11998709565636095
3.258213097,-0.1407343624112693,-0.6830607100068752,3.355558408525729,7.399798937186727,0.65,0.07643005876884451
3.298134679,-0.08398650251713799,-0.5687423103225456,3.449472112623416,7.445590101055021,0.6197488717926034,0.03691852010354301
3.338131094,-0.028504517651532186,-0.43916618493602705,3.5360556454386853,7.460784818523015,0.6117102136575264,-0.0017791925782735581
3.378134957,0.03698652287100259,-0.3222766538917141,3.625668649444457,7.449661688599009,0.599584860297098,-0.03433316030771191
3.418192339,0.10985680705602544,-0.16175197235014657,3.698728958982344,7.4513559395103135,0.5369259377306,-0.051391164277539994
3.458191595,0.17176243741655817,-0.027326819046782712,3.7452910189307453,7.431654443079739,0.48928216630527155,-0.07192066065140418
3.498131019,0.2180610425877791,0.09542908375358668,3.8020041806915614,7.4271638360627135,0.4455770356765704,-0.09135065567880245
3.538164974,0.2437034049159464,0.1647847311421483,3.816624626105628,7.389992698654346,0.4211563663089721,-0.11078968930039719
3.578133643,0.36062460053289996,0.3702094748410006,3.8065543688400405,7.37367611874041,0.3576427533297216,-0.12719438121919102
3.618132196,0.4148159047595401,0.5300824680987353,3.802748719284848,7.3432482076771155,0.30993198891141926,-0.14622708828421396
3.658131085,0.5016573099429584,0.6478278332403151,3.829538720209918,7.289918325966854,0.2907163751620768,-0.16657799957058178
3.698160402,0.5654852504915785,0.752149626703561,3.7852092269627717,7.2200552207061826,0.26478511148991724,-0.18181501968632605
3.738142583,0.6545413491381007,0.8458761280578121,3.729569774247791,7.153965170107758,0.21861820865558046,-0.1935739156765195
3.778145584,0.79278646577174,0.9962914007008414,3.6592246635476795,7.0610220953395775,0.18359403954694803,-0.20393583950685892
3.818131224,0.8687576656225799,1.1029868259855862,3.5957448483627754,6.947787812480092,0.17678456721066932,-0.21588709233030004
3.858134991,0.9712544240139735,1.1700252554955755,3.536321552460338,6.884173242607427,0.18014466361780213,-0.22112942830972085
3.898133675,1.1269005848240212,1.2633985214556467,3.4379998730250687,6.758460993089122,0.16142114549147893,-0.2224500372528597
3.938129361,1.218358847559863,1.3262787781827514,3.3854687395072074,6.683683967725555,0.16475071943130373,-0.22417497021465327
3.978130544,1.3402691462371459,1.3793965836727506,3.2859331759763832,6.571242252071022,0.1791603910966788,-0.23224848583237628
4.018130896,1.469462278570049,1.4185852577131262,3.2271827685601973,6.4612011911070475,0.22996095971659394,-0.23559875820057705
4.058135818,1.5937745807133517,1.4425303765572945,3.1614303112353648,6.38759003991111,0.24139831252135824,-0.242285719690185
4.098132473,1.7369083386985533,1.4342795203701941,3.118038543435955,6.308077561930342,0.27703939454904153,-0.24932881253902495
4.138134304,1.8464469824582501,1.450385057715322,3.0848066074893423,6.234525929338025,0.3250935081258815,-0.25584291333401055
4.178131005,1.9763517985104206,1.4299076975105995,3.071961215411986,6.097604598721292,0.3713689610423339,-0.27199250827724986
4.218132243,2.0995311775573184,1.40825137572307,3.086627107370043,6.005406062068321,0.4033023508681066,-0.27405833660660317
4.258144927,2.2153140340423634,1.373325583959226,3.0735020388280123,5.913853791053766,0.44371748718898724,-0.28369398958881265
4.298135025,2.324229873036453,1.3254610877800939,3.084757171821142,5.829147178046409,0.4926637953980068,-0.27649157709768524
4.338133908,2.4559937258389066,1.2626044623829304,3.0871813805551676,5.71250593792475,0.49720720151170067,-0.27615369791844413
4.378147957,2.5250277054536525,1.210427256794667,3.1068264479263976,5.606436311764195,0.5177454133814552,-0.27621927624794607
4.418146507,2.628456388026059,1.126638061123843,3.1258367842735844,5.523603032664861,0.5461849938662625,-0.2764939841045925
4.458224523,2.7332131702415254,1.0344304560926572,3.1475439327351293,5.414501980321389,0.565849760617993,-0.27071238267751063
4.498147223,2.7883939109767835,0.9412977326578603,3.1370251309853328,5.316215799540036,0.5623378580009807,-0.26653348018123424
4.538224463,2.8801946369916034,0.8380151758134485,3.2111204810850484,5.214371077026171,0.5694978775896723,-0.2607787065952005
4.5781339800000005,2.922759361226095,0.7297175090126037,3.234907235898577,5.107817924538386,0.5895844870857521,-0.25568298401618955
4.618134476,2.9637027087514514,0.6113894225377781,3.2568647264222155,5.015035830769576,0.6002071100121673,-0.2494227366456438
4.658156045,3.018932815237269,0.4611704884281877,3.1969705580169125,4.888805938466135,0.5669138800772794,-0.24529991732383252
4.698235829,3.0597748790089248,0.3347676138331706,3.2489261921040145,4.796489069501758,0.567436608352572,-0.24076091313519582
4.738214843,3.0686221157120595,0.2093198826497497,3.310591389357871,4.699867077057622,0.5786054397357335,-0.2340494700471037
4.778135803,3.0856287002944516,0.09094936409440943,3.2806506774996507,4.618417094430719,0.5778230653371702,-0.22534799767392616
4.818134302,3.0668065475695383,-0.048970506738654794,3.293002928907679,4.498769133728676,0.5438365086030511,-0.21987095026678863
4.858134082,3.044733060392183,-0.1700944824778382,3.33520738387883,4.428408359424192,0.5289081345051438,-0.2162265408332999
4.898134965,3.019345050306638,-0.28748120472720584,3.3441627937648297,4.349483624525783,0.5234173401625944,-0.20903492887848096
4.938145306,2.9652194429922534,-0.4407363257680724,3.3411641346295733,4.276154717676526,0.5024383890685035,-0.2074429531251362
4.978130383,2.910903806199191,-0.5665681874025087,3.329473354393177,4.187028448400998,0.476801839317934,-0.20783656630603822
5.018154151,2.8512429201814498,-0.6894729456015538,3.3593418448018526,4.118380717116409,0.46949983424427266,-0.21007817923344457
5.058230991,2.7556996661846624,-0.7750937214727875,3.3858159277756674,4.022855720858803,0.44480771865252205,-0.2116155155841837
5.098147749,2.6732417087345524,-0.8793219401366603,3.3490245700867245,3.938106857523522,0.42061609689322416,-0.21490639420346772
5.138135086,2.577872922989142,-0.9753854731286958,3.360205236433776,3.851409891564327,0.40196158171562074,-0.21796318492770814
5.17813374,2.5003964819546614,-1.060198857656918,3.378060935031135,3.7894632696711374,0.3973939842157518,-0.22228238765657762
5.218134171,2.3686310791646963,-1.1593556088145658,3.3571532941120346,3.7017537750766962,0.3754601629098306,-0.21754881495383366
5.258152984,2.247847552175302,-1.207165404154654,3.3293794520610467,3.6233608962961648,0.34166755407021343,-0.22520719961008648
5.298130482,2.1558572464092682,-1.2698143698895203,3.318702246541989,3.5325348668701504,0.3277312494813889,-0.23422330091250615
5.338134261,2.04864768958903,-1.304217155920445,3.287105563799706,3.461436098659578,0.3374248258904145,-0.24234332568437197
5.378146354,1.9089841835992294,-1.360694194123012,3.2574753342418945,3.3554727913356053,0.3260800838982542,-0.2398516438974981
5.418134063,1.7541632000112248,-1.3851996741893136,3.2281794288477488,3.274862701397422,0.3173448443999821,-0.247003722517455
5.458132028,1.6373472311670607,-1.4035445214011482,3.2346773107686566,3.182951529382326,0.3328163366094556,-0.26115784403990355
5.49821158,1.512319682657335,-1.3910434133271579,3.172363125431324,3.084467032748645,0.36230866462986994,-0.26056842154067444
5.538131895,1.3829256009922886,-1.384259935211637,3.187428385310366,2.982320030561548,0.36271305109938573,-0.26553812666606375
5.578145173,1.262914191564859,-1.3718586857299575,3.172791256891844,2.900856711747642,0.38969096408671255,-0.2682948453570718
5.618131859,1.1335990388498762,-1.339587159520321,3.1657545423351188,2.804972951072463,0.4399909988050032,-0.2709598897103038
5.658262584,1.027159260818186,-1.290856610374518,3.159554733102579,2.731875585279742,0.44783035062487225,-0.2662145515279353
5.698232307,0.8890138245709529,-1.2295698034458042,3.1513193826932318,2.6106363599577818,0.46280697469228405,-0.2662680007353869
5.738134502,0.7909679025296731,-1.1747124056134128,3.1456212826968275,2.5035087851385276,0.498643748992282,-0.26660544339479497
5.778136233,0.7123303941987087,-1.0883374880702559,3.182190822687524,2.4069012619524304,0.5389863057238927,-0.27172427850608083
5.818185987,0.591151364299849,-1.0193517721416683,3.2054530444137335,2.3296993060210918,0.5460812653654303,-0.24175002443762864
5.858127753,0.5103448600971149,-0.9104395396915635,3.2302666970976746,2.2172903441567784,0.5855998200706857,-0.20761771000871745
5.898135534,0.4309179936555567,-0.8054374466936647,3.2661546851777863,2.122627751872311,0.61138230932666,-0.1737730189213387
5.938225891,0.3625309323132449,-0.7191213804681941,3.3712114722626345,2.072773469090911,0.6347585141401171,-0.1398576839478969
5.978135347,0.2989974590115527,-0.5946093307685784,3.440891464966424,2.0163109592597706,0.6133806160381563,-0.09763303931640888
6.018132108,0.2257000259812727,-0.4619978043749637,3.5726563841391457,2.010093519316432,0.6109741049655587,-0.05517440203739937
6.058131621,0.16952571374021877,-0.3308532335600982,3.667963624309641,2.0079843415479584,0.5983461592284903,-0.016659018618115067
6.098136832,0.1000473909332517,-0.18708516814276338,3.7160211197695063,2.050107814700575,0.5522312858704895,0.0064858829587381255
6.138130291,0.041802825098093556,-0.06080099035078716,3.783391139533597,2.033965929538412,0.4955551240097038,0.02918658116633791
6.178183269,-0.024612938016636176,0.08853964920666783,3.830933529605812,2.079323251903228,0.45254836001431137,0.046688960730108225
6.218130762,-0.10983003743891609,0.21319523103267038,3.853729646427401,2.114037010516419,0.43094745969703374,0.06183456595664524
6.25824942,-0.18095458399984582,0.33701630930032767,3.8748583171270714,2.1493402817929814,0.3689488193499841,0.07559423541378052
6.298204489,-0.2807183728279734,0.4733917205629817,3.884796456898714,2.1891120573041976,0.33429719269715574,0.09206591921995547
6.338134196,-0.3677529230476516,0.6204938783257772,3.8704467410893546,2.232435385763503,0.307862672914266,0.10606220700895305
6.378159795,-0.4343850370873362,0.6971880169119417,3.8679216823592437,2.294537243366429,0.29281108506458836,0.11886756435279336
6.418131709,-0.5594079665520351,0.8427096109593168,3.8111832432536015,2.363592104486634,0.2520852059915946,0.12242395564050634
6.458126225,-0.6550922163226969,0.9545131816950614,3.8018352073064166,2.4364317486554232,0.22588256960557593,0.13356914212376675
6.4981249420000005,-0.7622191858974259,1.0634355802099602,3.734872713552917,2.515134521544475,0.21387842064974463,0.14839869361985475
6.538239385,-0.8875960392653498,1.129373316931534,3.6569255628929724,2.6285853101344983,0.21161859070710973,0.15126854044687033
6.578130649,-1.0289888195456633,1.2101922466952633,3.5990031852133235,2.6953988317785176,0.18160546855992044,0.16048560715940205
6.618132196,-1.1259930944649197,1.2522789502705693,3.5483195619907635,2.7686973379026703,0.1781336572791072,0.16266559639834352
6.658133535,-1.2687198649879223,1.3417163152448206,3.450480842954525,2.8918759884397,0.1884964834440428,0.16417839862477934
6.698135178,-1.4065910468584426,1.3866456118620138,3.3753145176214723,2.9711682451006283,0.1987511522688552,0.1708815439366687
6.738131469,-1.539728089034594,1.4015991750237524,3.315695463597,3.0710216409913613,0.1936966999578782,0.171897223598644
6.778131961,-1.660405818642039,1.4207172249566145,3.2548443175008,3.1612872388608126,0.211602744639115,0.17462368000493078
6.818133556,-1.7865076816210108,1.4278717045422502,3.18053474258079,3.268781076770618,0.23324881202051143,0.1777982110754708
6.858135163,-1.902624956362373,1.4187606027270159,3.1610212300826475,3.360005389411939,0.2697837120283053,0.17367771543087918
6.898145642,-2.0609850003575407,1.3971812936504768,3.088124454621832,3.4305300069697875,0.2731564023436441,0.1805238458288317
6.938131554,-2.1256707928263507,1.3448822256911046,3.0353494344732317,3.547380792249294,0.29297684610414365,0.18720898330025437
6.97813252,-2.25661198868707,1.315979829106592,3.0229606354163328,3.5835727497329253,0.31932404027232864,0.1951740326375767
7.018131818,-2.361866157205437,1.2597024523939118,3.0263662607605113,3.6909103569259103,0.36291013199153443,0.2071220555909576
7.058158662,-2.486120718351576,1.1785621921267007,3.020811747394869,3.7926602929146696,0.38092065401985126,0.21168792392774274
7.098131807,-2.571875142274259,1.1129431632042233,3.0127215219777685,3.8798069458900435,0.41370714492170246,0.21651566825029464
7.138132969,-2.659321024955993,1.0232034707403679,3.0323984740303156,3.9670817817863995,0.4449055141054501,0.21849011059116655
7.178130111,-2.756308629174242,0.9415078631358031,3.0249143587835676,4.04846947748907,0.46185979499021773,0.21446221214651404
