time (sec),x position (m),y position (m),forward velocity (m/s),"heading angle (rad), from x-axis, positive is CCW",throttle (unitless; -1 to 1),steering angle (unitless; -1 to 1)
1.008517263,-1.3625187237405691,1.3527058712734692,3.116687410845768,-3.0267483595725717,0.40751088668203217,0.20455200926743713
1.048506277,-1.4979573069218635,1.3443005008745903,3.1525781505890507,-2.9219721541791057,0.39794234158083513,0.21074441557349902
1.088513366,-1.6538089893776304,1.3081069659219768,3.1542951356619566,-2.805654363806649,0.39453116252448067,0.20958333340892676
1.128507066,-1.7410806971657549,1.2736704505881982,3.1528655174039475,-2.7563044292267738,0.3961437790845676,0.20988790238942484
1.168503753,-1.868462738838283,1.2275356346320665,3.1335258444206042,-2.6451636569409973,0.387277599450328,0.20528330113689788
1.208514577,-1.964487393572304,1.1637914774112528,3.1214545106661875,-2.522680427666785,0.3700878183399091,0.1976784594187219
1.2485924210000001,-2.0655621297618887,1.1089147360510025,3.0954964852738085,-2.4529369566449266,0.36853317706764493,0.20443687354358914
1.288510547,-2.148405881134772,1.0170194367501002,3.09111103629966,-2.3532573420088956,0.3786695133187611,0.20386746765578906
1.328503801,-2.2541649116265767,0.8979051488271771,3.0984204843109207,-2.252820558307576,0.3698243279764249,0.1983780801527918
1.368502603,-2.3202173856246247,0.8213734417938381,3.0958923848752744,-2.180251283167523,0.3653766075487922,0.1988248742620395
1.408514892,-2.3944860115876865,0.7353609720679148,3.114180080993005,-2.1068098890849076,0.3624863539049885,0.20247714024710967
1.4485049380000001,-2.4662381163804654,0.6075906578234062,3.108047335241093,-2.006308249409835,0.3659818422290909,0.202554361546601
1.488500425,-2.523080344084031,0.5048014212555529,3.0933030611245127,-1.95084340546862,0.35405058571569054,0.21047231585503434
1.528495742,-2.5436070294175726,0.3544472385450221,3.0924736738611793,-1.8149451972129262,0.33406352024776054,0.21297068349450526
1.5686121590000002,-2.585030893246335,0.23854326405398055,3.0765286464783856,-1.697059574290728,0.3395521201205114,0.21457925979841788
1.608517529,-2.589854862129749,0.15216290108703556,3.06484521768877,-1.668134535831921,0.36239724088467173,0.2165086328585181
1.648525506,-2.603051155545017,0.029142369114764657,3.0532299078401364,-1.5532423555837436,0.3297647748705041,0.21104575889573157
1.688550641,-2.6048999272418913,-0.08242791689468229,3.0333354387626965,-1.4588534003136029,0.3330400768034978,0.213030887225208
1.72851068,-2.5742740143487657,-0.26490045639649346,3.035888832136065,-1.3363846312155772,0.3529630523155757,0.22258249856070894
1.7685167270000002,-2.562140520170706,-0.33768415500650606,3.018256882023608,-1.26719756886864,0.35110989861465886,0.21870636040353408
1.808508656,-2.518547212284337,-0.4521593821277531,2.982943654067111,-1.191347008643176,0.35143795943176004,0.22362227907781004
1.848509768,-2.4987969784962867,-0.5664315768679715,3.001906683189349,-1.061666742404804,0.35730303194790364,0.22202091189211726
1.888507559,-2.402205132100854,-0.6683955520508698,2.979323216600094,-0.9750257390882883,0.3943771497273859,0.23384587569159573
1.9285156200000002,-2.341885165499319,-0.7747846106419602,2.984384054266886,-0.8760980441989628,0.38755521717318964,0.23534954214348042
1.968503353,-2.2318629819567897,-0.8651015552777803,2.97688740823248,-0.7494493587911512,0.39469152042849875,0.23497045109660186
2.008523131,-2.1753371153673746,-0.928548558206031,2.9853732493067917,-0.6890477561358965,0.418367793351238,0.23333446503773753
2.04851227,-2.0865421004698206,-1.0229819249191279,3.022966739491175,-0.5916867733163257,0.42233749158666256,0.22868665240987313
2.088509539,-1.980180647652218,-1.0774870318013352,2.996262332083402,-0.5090784671637301,0.4204515016635055,0.223213968103409
2.128511164,-1.8769196584667855,-1.1244076500060236,3.0316044725631808,-0.4163234409105837,0.43534713864451857,0.23226628354436846
2.16851014,-1.7578399460116025,-1.1665553847304146,3.05370747630179,-0.32192995026323007,0.45524417872750317,0.2334664734384512
2.208517182,-1.634868686626745,-1.2093604060857885,3.065113110702452,-0.20626102823129577,0.45472613401881395,0.22005031509956757
2.248502813,-1.5221942217048352,-1.2429496852212245,3.0828352682639633,-0.1274552406430473,0.43400187258802614,0.22219330958169486
2.288499833,-1.3496946380535484,-1.2539730739760162,3.0844870937016227,0.006831316984992293,0.43641155591173836,0.22397967602518315
2.32850814,-1.2938204948139231,-1.256034977201425,3.1115088613908686,0.06982984838339654,0.4573720376743429,0.22456091600428932
2.368504736,-1.1524533047967012,-1.2401908420362924,3.1011006145598605,0.1653872128237589,0.43545182121528014,0.21614583050306732
2.408518737,-1.0443685318680551,-1.2310571169071816,3.1059262028529715,0.25475805046725825,0.4191023291349168,0.20825948829690807
2.44850372,-0.913844570773283,-1.1797004617872642,3.137653069592262,0.34262419918659254,0.4208699999257343,0.21537480192094208
2.488509531,-0.78833935062614,-1.1500423549634875,3.1435766168927946,0.43922731542704063,0.441938222888215,0.21395469738057477
2.528516733,-0.6843638410405996,-1.0761261687233117,3.1749276379977682,0.5239278629181691,0.42237559436954925,0.19923792021387798
2.568507494,-0.5840811831399003,-1.0219595808777007,3.1497286811431056,0.6123637299934895,0.4032898624466705,0.20219466415962312
2.6085147280000003,-0.47378215669866725,-0.9613989081932374,3.161022937404211,0.6827848936725405,0.4019912746167591,0.20576275169318764
2.648580924,-0.3407278757388872,-0.86303544852551,3.16086104932409,0.797195360265144,0.4101147167387781,0.20915532778315668
2.688503442,-0.3012895101703582,-0.799339943275025,3.1392411071294624,0.8724452113525853,0.3956517648014505,0.2004763137863258
2.728510855,-0.1923250164986266,-0.6636616352933568,3.1813736726500816,0.9727670305119884,0.3988400635054977,0.192231884897884
2.768545366,-0.11819652258699331,-0.5550500576638673,3.1721667805787006,1.069827790128089,0.39931766437128957,0.17643702921418808
2.808535893,-0.08081711012604673,-0.4728159189777981,3.141856270274579,1.1275954894703044,0.4137080530865338,0.16372519901447147
2.848503268,-0.01222210762455699,-0.3378789115601321,3.199932741574696,1.182658162119827,0.42020408170778784,0.10347925176063873
2.888514104,0.03159077962451664,-0.223552548752202,3.22182170978118,1.244234067034393,0.4494781661508816,0.05126060215400976
2.92850953,0.08998099044848323,-0.1165850876420109,3.256561472776531,1.266021937467651,0.48941791698330006,0.006964746220969116
2.968597781,0.12132629243088582,0.02504377213207693,3.310529910155986,1.2610491444611742,0.46095325092106804,-0.03117844966058779
3.008520373,0.15704952980462664,0.15381906745758292,3.3688149667118155,1.2318013067468023,0.4542955210985389,-0.06973145315439236
3.048503232,0.17228301262118134,0.26461769927113865,3.404523634879588,1.1839526221368035,0.44481148077746513,-0.1021329199840983
3.088506568,0.2537280873340596,0.4024623445853861,3.4058711840399583,1.1512179528360276,0.4409861684974555,-0.1262088583796283
3.128522684,0.31374713788202035,0.5088270726738786,3.4376167401579796,1.0874883051651463,0.40239136180514745,-0.13797088459299545
3.168518708,0.3673888452936807,0.6277213319079048,3.440915269831656,1.00521244704089,0.37263733875525756,-0.15164686212142908
3.208518011,0.4534988436314739,0.756997444713803,3.44000102127435,0.9151248393051287,0.3618687141095385,-0.15977601826160198
3.248513103,0.5829780283725947,0.904664619136142,3.436668717194738,0.8209346893916071,0.3613543649662919,-0.16482459953330342
3.288518684,0.6274595410072503,0.9592684698665026,3.4130301464472166,0.7708478413047257,0.33823502680395695,-0.168871020748313
3.328521625,0.7375855678741203,1.0774199681949783,3.394902795387176,0.67584804589004,0.33704614981507447,-0.1718325700389153
3.3685065180000002,0.8440990989151768,1.1507637764053424,3.376831805069302,0.5793596866151391,0.34117681710288084,-0.16875768717259942
3.40852711,0.9364596054720269,1.2217789654936395,3.361717410844978,0.4912287599956334,0.37159381585802975,-0.17529080746819106
3.448519094,1.0572096646345535,1.3035322091599322,3.3421530053763324,0.4034810644103124,0.3460039191555877,-0.1727567583037783
3.488601415,1.1685457114681923,1.3241829994503698,3.3034538741218227,0.31644405397316633,0.3483830158747055,-0.17416310597594994
3.5285004090000003,1.316730475309489,1.3710404001850405,3.2934922825487436,0.22426965646280234,0.3676257465007144,-0.17414537598395824
3.5685623040000003,1.4694287059403557,1.4214886513917029,3.2760052325398608,0.11491596215697499,0.36132380327722313,-0.1699887888235039
3.6085137449999998,1.572126822877136,1.4137942728067394,3.273521148259492,0.05733706480271494,0.3556416654376973,-0.17247543420120015
3.648507919,1.684499376550206,1.4406817217321968,3.2558201253851053,-0.037060916073095855,0.3685998525918941,-0.17614145383445073
3.6885201800000003,1.8258021739103452,1.4204396226594145,3.2507889343165957,-0.11174334424770622,0.37897946003704214,-0.17195463772359845
3.728500092,1.997548265199602,1.399040955404858,3.23258878921813,-0.23743240645763128,0.36710767399678573,-0.175880094953138
3.768502475,2.09873502506028,1.3790704604632296,3.2424966422537547,-0.28727313181050235,0.36831886609014747,-0.1797393222258992
3.808511578,2.22472772006615,1.3343988072002133,3.2475318609050223,-0.36728588031145887,0.3727946586220459,-0.18291339438979617
3.848503168,2.330236000650305,1.2710624456502793,3.226108439392937,-0.4542587026782029,0.3701117027462035,-0.18146489746778302
3.888511527,2.4366815722202633,1.2420508199969469,3.2101630205832223,-0.5492497160154219,0.3626533429587831,-0.18977929428948423
3.928564561,2.5722084585372706,1.1700679951896198,3.230778483233539,-0.6304188039808973,0.3670102119402367,-0.19133085621048326
3.968505129,2.6407347436365423,1.0707000861860456,3.151329093903597,-0.7339915189987186,0.38564606644434263,-0.1938795914281361
4.008511025,2.741479769442769,1.0025721069183888,3.2168424981987402,-0.8211438475324998,0.37964822742119625,-0.19373951318176214
4.048510424,2.8225274214820995,0.8965343089972506,3.219499166519484,-0.9157250649794765,0.3722974158147068,-0.19497911745841148
4.088513615,2.9109652610421137,0.7858277370642442,3.20622142803359,-0.9968677108011289,0.3968018847797291,-0.1962798848760432
4.1285102,2.9824004941781173,0.6689964435465159,3.225155617518356,-1.0889312331689467,0.39969482200117146,-0.19800371126493369
4.168513338,3.047686578686963,0.580316078482044,3.1917886315806006,-1.1885346718830687,0.3801458264194347,-0.19399527800019617
4.208503447,3.0967238866400155,0.42328426163781785,3.206756006124142,-1.3113297965773423,0.38589987800250647,-0.1977161710721216
4.248503054,3.1168889812452805,0.2951240720630401,3.1544846728587923,-1.4175121479257917,0.39688908406483864,-0.20050544207645885
4.288631178,3.1195002744972453,0.19215251162002767,3.188050649827146,-1.455363637326328,0.40173771671944114,-0.20488979751112243
4.3285058880000005,3.1421070666264033,0.08645658079119323,3.187337557503653,-1.5708617644246825,0.39217874364351674,-0.19477522149016088
4.368504657,3.1589429341654602,-0.0686009052861409,3.176175707226091,-1.6712024384269968,0.416615568782343,-0.19176238575516957
4.408511046,3.124167882380703,-0.18769030970709027,3.1909900255292705,-1.7535090298681584,0.42160461470938343,-0.19656515797438848
4.448503388,3.103520830129775,-0.294138136509743,3.2061943710854157,-1.8323770020263142,0.4520765600686085,-0.1937837672391916
4.4885092570000005,3.084379776204024,-0.41064171080001094,3.1918753118877117,-1.9242810528470573,0.42641697189480027,-0.19139487600197425
4.528511742,3.012946875639646,-0.591217133656198,3.184839254970796,-2.035013969608673,0.43550965770814004,-0.19489419535846966
4.568519331,2.9695325100492194,-0.6399728535714003,3.2328406135390964,-2.1139255950363363,0.45598004831628486,-0.19826093568059158
4.608522568,2.9060770498542077,-0.7734370991455726,3.2039623586200805,-2.2073374591696395,0.4377528317199797,-0.19481348959277178
4.648524136,2.8232535104726826,-0.898470286313828,3.2309000091220663,-2.3317175645303614,0.42861439223752706,-0.18772056089288602
4.688507552,2.740246282231258,-0.9757556972615765,3.244973380666937,-2.4030144042767794,0.4352809654927335,-0.194339133641462
4.728509798,2.638492125455029,-1.05866432495348,3.2607550712270346,-2.493436663719165,0.46627277224801494,-0.19173013507719128
4.768503521,2.54319907654551,-1.1255918579291386,3.247033519788281,-2.574493827110848,0.4226701696664028,-0.18037394426648767
4.808517515,2.434108521030122,-1.2275294455074441,3.2856005639187025,-2.640552848611651,0.4295682056331601,-0.18557047203629243
4.848520581,2.319729123320231,-1.26567011163808,3.286141493128164,-2.743647026113356,0.44291255070728647,-0.18434521920147195
4.888504183,2.2068131096719243,-1.3272526611605355,3.311039238163285,-2.824307231969387,0.4270533926952987,-0.18195030299212886
4.928515452,2.072835640808674,-1.3756962141879678,3.297422250002636,-2.914124445215429,0.4112342203228483,-0.18076549388453025
4.968523544,1.945490443857823,-1.3722944752674882,3.2938167899470114,-3.0064050802355524,0.41604530817521085,-0.17917923073748715
5.008504333,1.7767087873564182,-1.3836418778587174,3.284912420864943,-3.132547462091821,0.4161682523741334,-0.1799661828918503
5.048504481,1.6833480558605993,-1.4078642824723517,3.2968388300503024,-3.1840011847067844,0.3975722086200073,-0.1778021616629426
5.088509176,1.5696030143123256,-1.4006100668519712,3.298618245950475,-3.25604042440888,0.3851714236087653,-0.17637253399335057
5.128515216,1.4153779755292974,-1.382440955847946,3.2689395994499644,-3.3480493559895352,0.38536390541784155,-0.17007243984328732
5.168529016,1.3037783789086765,-1.3601181012496586,3.244065613417962,-3.425251526757534,0.2578429044813498,-0.19762011487262912
5.208525401,1.1822809535218046,-1.3312363550277981,3.1715697793357904,-3.5314888948785064,0.17570325525386118,-0.21765044824311597
5.248509181,1.0617870015082436,-1.268449120941151,3.096135546588617,-3.6340106977261217,0.12109036750117418,-0.2441378545273221
5.288578283,0.9456591116093938,-1.2113959240692882,3.0394825218080226,-3.760898603157023,0.11638091814949933,-0.2732710729982229
5.328509707,0.849608178220653,-1.1405057071559153,2.939373598376953,-3.880967376376156,0.2579037414199555,-0.22488873199890974
5.368499849,0.7329785494666082,-1.0475691113618142,2.9668000665071785,-3.998072537284753,0.33866155072408893,-0.20042988788858884
5.408521757,0.6925120915513931,-0.9783809437009638,2.964023781223527,-4.072345283267116,0.4195650510161351,-0.17234227547127148
5.448522402,0.5741230774704014,-0.881990624452363,2.998778848859166,-4.15575013980878,0.4606551381582404,-0.15575997122406404
5.488594092,0.5369369751816269,-0.79274047575346,3.0413536926505254,-4.204320746284294,0.46792986259810165,-0.12281610001708557
5.528499051,0.4662241898885014,-0.6505669100981804,3.1065847499321206,-4.280878885750146,0.48692091565584095,-0.10960048259521364
5.568582177,0.4436670927771063,-0.5548158968124659,3.1888040827221213,-4.307135682949692,0.4841977311418834,-0.08783475475515602
5.608500798,0.37304107868033226,-0.40894629747987404,3.252524726200591,-4.380445941387945,0.4801084825833658,-0.06307274651776341
5.648502668,0.3252850456388502,-0.29408661462462826,3.3650116116830127,-4.361306384439348,0.4785130048686538,-0.017163202877829145
5.688508738,0.2888189844106191,-0.18857532172952748,3.4060133689889813,-4.400302509682102,0.4819480139194166,0.01685262072393106
5.7285283830000004,0.25166199081539614,-0.059954239886844056,3.4961984370583465,-4.401882244460468,0.46285598352262225,0.051592877979892586
5.768506115,0.20587160950695585,0.06855344321876165,3.5505728604029323,-4.343766742034984,0.41815721018721824,0.07940184499517335
5.808511075,0.13793812691136523,0.22935822584894952,3.5988167972547283,-4.317314565745289,0.40865454354366737,0.10152854235275857
5.848502183,0.08492469198584185,0.34729871334696305,3.590470200370166,-4.279105368917872,0.38651275416102043,0.12027818236369764
5.888598103,0.03160005376874409,0.4894012198081906,3.6384219363746566,-4.243795105990201,0.3472903790693469,0.1315349744602943
5.928515234,-0.061425894761730465,0.6422555718135129,3.647269819539427,-4.170507927736697,0.3145072151476264,0.14561051015311907
5.968557813,-0.1094654916721209,0.7322420536650152,3.6609417237786945,-4.099259684818679,0.3009305908814269,0.15881871906510522
6.00850436,-0.21802853031048158,0.8316613297768443,3.6364767767495003,-4.024251770082017,0.29101463091532764,0.1700125861434289
6.048503186,-0.293808921974616,0.9737298170666566,3.59182991407145,-3.9451385812694575,0.25449328161360557,0.17178945446780686
6.08850855,-0.40784879298393684,1.045692622300457,3.541870375453586,-3.8448627740309926,0.24870638014699584,0.18167527093018682
6.128504732,-0.49709581015582993,1.1554040590243015,3.5121890633215016,-3.733202797968716,0.2553270185537812,0.1831907515242044
6.1685031200000005,-0.6114027957294551,1.210785594103576,3.444590059813293,-3.6343477997293814,0.2667312805489079,0.18208615414264578
6.208510059,-0.7286204772691183,1.2810141720590182,3.394599329387621,-3.5566135079337076,0.26797091503415527,0.17868176234636415
6.24850392,-0.8570404919465344,1.3577589201298788,3.3320253373145547,-3.4553459844369576,0.2803326851371893,0.17552096451970436
6.288504594,-0.99064475296917,1.4079973298399777,3.288214804920005,-3.3581207180634913,0.3113706555247413,0.17185899313189473
6.32850642,-1.1119626884546652,1.4149777830243897,3.247462130790294,-3.27891109654958,0.32032363191757673,0.16448743985679914
6.368513709,-1.2324999048864556,1.4640124286761,3.2303523556494933,-3.188977650768816,0.32854020133559986,0.16459133315085134
6.408510687,-1.3578575240454407,1.4459396506246156,3.1990105391145724,-3.107613964899694,0.35103934558535094,0.16639690511017236
6.4484951200000005,-1.516468283736832,1.4410318051951352,3.1946829828802894,-2.9912904315481628,0.36712998871382496,0.16952696573704867
6.488563745,-1.6169955628154196,1.434946368493605,3.1997030670672317,-2.9603208260657072,0.3634304724185658,0.17066235713215888
6.528498475,-1.7709501151218572,1.3978937011880936,3.1947117670231853,-2.8262857179299337,0.3665380435181836,0.17475554974100238
6.568509273,-1.8672789447435987,1.3645297673017767,3.1938998634689266,-2.762435299179393,0.36969268399743116,0.17131257940138922
6.608507105,-2.0190951556657755,1.2908234845232434,3.17403480099303,-2.659042960175219,0.3616121259663633,0.17995616521497584
6.648505955,-2.0932225750044022,1.261661646977792,3.165159636628583,-2.5960667071717864,0.3500964097702225,0.17430961866138953
6.688517046,-2.2046645645232554,1.210423646930386,3.186600997888185,-2.513313839851997,0.3524304629588589,0.18315242668005327
6.728508152,-2.331899686611051,1.0984063092115097,3.186040029351416,-2.4321112101121423,0.36413024600009647,0.1812777117122889
6.768556649,-2.39032703913056,1.0445843729281226,3.1852103114109656,-2.3739535166994026,0.3544034665527103,0.1834699662718129
6.8085088030000005,-2.4932790953040973,0.9645884008733439,3.168695542834914,-2.250869345235229,0.3354354388684278,0.1870947097149353
6.848505744,-2.591177186772822,0.8258132047255118,3.1297986082339246,-2.1638466298212156,0.33280332066444934,0.184859654896299
6.888507191,-2.6227960303732396,0.734873005167715,3.1284103674500106,-2.072591974733344,0.354557879666046,0.195487574716862
6.9285016630000005,-2.712914723502298,0.6074336574257674,3.1031255818478334,-1.9640484213387892,0.3302350286995348,0.1955191054328647
6.9685023390000005,-2.754048362543615,0.4755532527490582,3.101522080058312,-1.8596015004070585,0.34136337781901516,0.19469622213596494
7.008513939,-2.786309748751791,0.3545227616998661,3.079622188426185,-1.772192608750512,0.34979869690712484,0.1945922095922077
7.048523444,-2.8064134670617045,0.2760479738550374,3.0889584079203534,-1.6977390710820188,0.356071671415096,0.17895899317438216
7.088518431,-2.8050671005832943,0.15594849975105324,3.0714239303136086,-1.593968575033753,0.3462289124985975,0.18343902103613138
