time (sec),x position (m),y position (m),forward velocity (m/s),"heading angle (rad), from x-axis, positive is CCW",throttle (unitless; -1 to 1),steering angle (unitless; -1 to 1)
1.018096379,-1.5725105046045915,-1.1490108669130636,3.0383056490447444,0.004373023659263363,0.44674206936660965,0.2150530470167382
1.058095125,-1.4526753343223653,-1.1800046477729598,3.0549633226821804,0.09658191873847953,0.44646448907230624,0.21438840892880276
1.098162926,-1.3352826652111494,-1.1279116073948505,3.08028806738839,0.20323339907808305,0.45049859174776014,0.21362543344030674
1.138100522,-1.185167723341933,-1.1094726354039963,3.090004224032561,0.28437629850480545,0.4708845273262964,0.21290750245521303
1.178088179,-1.1032227302585877,-1.0617417178804307,3.1166499978782736,0.3815553175899814,0.45668642512378443,0.21350598934155543
1.21814052,-0.952991231851276,-1.0437311268540115,3.132290108324779,0.4760046753523638,0.4559563933451049,0.21165013352152337
1.25809721,-0.863887791010187,-0.9742470052918789,3.164487811428804,0.5623039189997947,0.46168082139183414,0.20930939910148727
1.29809939,-0.7422541716098123,-0.8931310745249482,3.170514675279102,0.6653260041609874,0.4562430682656282,0.20847482817523993
1.338102213,-0.6444748483341584,-0.8297841309344859,3.1679630779271477,0.7461510579013448,0.45048731950787463,0.2067056946793942
1.37813983,-0.5557780379773161,-0.7410060292092132,3.205185953266289,0.8299386394670424,0.4434988941982479,0.20473856605909715
1.418210448,-0.4568440600045714,-0.6387136514855749,3.2195362208863534,0.9242221677045599,0.45941702081362623,0.20364654842950522
1.458098012,-0.3856535460407459,-0.5254482577538344,3.25237008418302,1.0133784182932322,0.4778315224203029,0.17977371866203185
1.4980881830000001,-0.3287006277288916,-0.4274144025968197,3.2734784129644483,1.0843428415140326,0.5065641787715702,0.13693137975886346
1.5381074460000002,-0.2586486602294739,-0.30647749161544013,3.3349893826284704,1.143117192569444,0.5388498836013905,0.09385233933468176
1.578129669,-0.2047184745509307,-0.1694580983964652,3.394832478058204,1.1464559639554017,0.53524284610622,0.0585692967547571
1.618105334,-0.15112379853653873,-0.04668870415924346,3.4798526694894294,1.1822928479630324,0.5405258293818985,0.015559409111734996
1.658096853,-0.11206807993392316,0.09581634219854604,3.535579357194891,1.1735451293596069,0.5431919735756472,-0.020968028631157647
1.698086001,-0.053644367116376775,0.21674366402877748,3.6153475118650302,1.162591326254759,0.5394146296822293,-0.050161431331376495
1.73810228,0.005037190957972261,0.3453441090561041,3.6753901053450115,1.1272869432528667,0.4910523442376935,-0.07158762784846394
1.7780934460000002,0.060680658299998184,0.47753075484585134,3.6978741174321583,1.123158022432235,0.4593600669379733,-0.09279367022289978
1.818102707,0.12926399888488918,0.6156273553192655,3.711926399326647,1.0554999440174115,0.4362196512110258,-0.1082049587215839
1.858098397,0.2268731279861302,0.7043984386313479,3.7518076005207006,1.0034280224232122,0.4255540189726118,-0.12044733136518046
1.8980903050000002,0.2915121384202889,0.8754536043911348,3.72958795298685,0.9424816020222725,0.378745231909751,-0.12575035676104293
1.938094413,0.3926196498501182,0.9749783713361008,3.7230540786754966,0.8961515401627803,0.35862811345185114,-0.13624385596354732
1.9780883930000002,0.46922159663201535,1.1034254067779619,3.7179352153797076,0.822402422088809,0.3471202168031566,-0.1456883436687897
2.018097181,0.5611343788194797,1.2057581767338255,3.681564838123931,0.7641074146093837,0.3223538647640061,-0.15350911366123146
2.05810098,0.6934204210274504,1.307290162721337,3.6026332664656184,0.6907891766366746,0.3041302789250489,-0.16037821960780674
2.098145754,0.7920930973562444,1.3991039782561623,3.5853527477643437,0.5821215551917251,0.29573004387783797,-0.16565472568877124
2.138101656,0.9269393019039723,1.473359440301946,3.500575408672385,0.5004339466054202,0.3118363295898144,-0.16836897187773717
2.178090855,1.029384982890884,1.5638564772603056,3.4656678775344663,0.4373048323918983,0.2931601187577622,-0.17056103256653074
2.218097069,1.1605865686718924,1.6061646872638295,3.426768935845072,0.3463448522401864,0.2890807677182266,-0.1708231653279813
2.258097866,1.2699043752374528,1.658433595974882,3.366261392075513,0.27143975192507025,0.30388838871091045,-0.17154088596797346
2.298143314,1.413061313133603,1.6998630402929467,3.3349956591211853,0.17213522162296352,0.30988613538847304,-0.17306657821888297
2.338094486,1.5476990214630824,1.7289589830638563,3.2769384868750846,0.09550090247105254,0.2963884927227663,-0.17341552208685454
2.378087415,1.686281769613955,1.7385572977608952,3.230269900353087,0.006252695322067563,0.29343715945737325,-0.17824972843304762
2.418095821,1.791407270404619,1.733845229437896,3.2002639577204914,-0.03846179179272028,0.29968290135523373,-0.184465036308729
2.458098667,1.924676041678183,1.7036912653706584,3.1626053534024305,-0.1322671951797507,0.30779001420094654,-0.1942179743031136
2.498090787,2.059549076298731,1.7031032311709609,3.1304658103844787,-0.2274192708325947,0.30238713676553763,-0.1985586451911811
2.538104793,2.16430313212907,1.6830306154520953,3.0594493297474292,-0.32062955254630354,0.3051537895334094,-0.20375178482810785
2.578131749,2.2742179850602606,1.6368124735037628,3.029299383095395,-0.4098616957668223,0.3252405459359948,-0.2085419879785925
2.618091421,2.3981997363481704,1.5995277059509052,3.007790558993802,-0.48482808378319703,0.3469768736223594,-0.2201195944523519
2.658094504,2.496572432882271,1.5166507656519626,2.9933074720059514,-0.5829319055218252,0.35896771922038045,-0.2230124784586252
2.698114109,2.5879590578467697,1.4590440266033824,2.9692430142232884,-0.6868673368903777,0.38262158744186714,-0.22643090832808488
2.738106415,2.6580086734375024,1.3761754925790817,2.9734343246960067,-0.7718373261907209,0.43478769459872074,-0.23274443705168849
2.778096181,2.758303241484148,1.2873567336768856,2.9612063324919795,-0.8779664620910422,0.44346854604257,-0.23407425985732372
2.818158688,2.8377120553684967,1.2124899141157948,3.0101133150340282,-0.9698563443405,0.4702728891651571,-0.23499159677746662
2.858094114,2.8944107275201865,1.0983788402996142,2.97364352990251,-1.053108983627731,0.503052596991933,-0.23484216763007534
2.898088784,2.9707992473119575,0.9963711700798598,3.010555182576583,-1.1611851229559842,0.5318587633993869,-0.23479441356726835
2.938125842,3.004257886580984,0.8869922960333151,3.0803274418183735,-1.235288330614318,0.5304819716537156,-0.2330990437547685
2.978087807,3.031421071457153,0.754497395843328,3.113993652868995,-1.3286314622499287,0.5572508428330584,-0.23159418253983913
3.018094056,3.073249875637785,0.6425125322624937,3.1506660282058787,-1.3970094214728945,0.5842127725400907,-0.23010123587643033
3.058094508,3.0691881189653274,0.5229142242822931,3.175572228886796,-1.5051730797107983,0.5605400486832778,-0.22931880634573643
3.098162139,3.085021938515605,0.3831973648180272,3.2095434987480287,-1.6012927723005894,0.5577709381567839,-0.2279330554350774
3.1381043220000002,3.0783026619443534,0.2520765139534658,3.2553743353745594,-1.6818140310672345,0.5620356560300944,-0.2269449492433112
3.178133386,3.0760466542102103,0.12953966073677375,3.296023373878095,-1.759260380516109,0.5619414718587169,-0.2201562501230471
3.218101447,3.0359541696117414,-0.012407189317255053,3.3133803167473945,-1.8526077779626877,0.5446614041467359,-0.2206373750543307
3.258096572,3.0046568605006745,-0.13866191164453984,3.3340403221539034,-1.95049000884861,0.5356739838829041,-0.22143908802849885
3.298166433,2.9276457763337005,-0.268089784894637,3.3437940533539177,-2.0008836817890487,0.5355895496979801,-0.22240135325246504
3.338108839,2.8877438691540607,-0.3800993749962684,3.362655171962075,-2.1330348340869163,0.5184888551908221,-0.22568710390529512
3.378145659,2.8239137747095815,-0.49015572733149315,3.3435963314857515,-2.211927134381842,0.49609520208278823,-0.22236205012683782
3.418103799,2.749150810928425,-0.5884070918672489,3.331208486458292,-2.3013169524437824,0.5019536863657394,-0.21815870206260374
3.458100743,2.6400354650070526,-0.685394713014846,3.341209872358892,-2.3907680125782025,0.49018298235048935,-0.2182681451650092
3.498132849,2.575804870553347,-0.7843497185775309,3.300724781007417,-2.471611273338946,0.4725052476270538,-0.21446302764079855
3.538110299,2.4778886959593818,-0.8835537100484872,3.296256964086788,-2.564512697099307,0.4776827087384276,-0.21042887340003102
3.578143771,2.348492954048004,-0.9445095399499428,3.2782765895092827,-2.647555542727577,0.4795766651194925,-0.20752701051559166
3.618089714,2.236815744329165,-1.0221206684379853,3.324723608864483,-2.732893682483009,0.45767002616934493,-0.20175776066791257
3.658094376,2.1058273714344073,-1.0693667251376167,3.2662827988407215,-2.8057570302435173,0.44202993191771933,-0.19958433778231402
3.698172139,1.995806594726404,-1.1149452868250107,3.248462983316621,-2.918519674043517,0.4393023657052128,-0.20140785340164108
3.738098269,1.851587384513666,-1.1302614226000698,3.25303917547646,-3.003981170522875,0.41202780382492116,-0.20227174121033054
3.7780884710000002,1.736778970794798,-1.1450811567699835,3.234028721682965,-3.0754448667714787,0.39073168213871057,-0.2034302113128942
3.8181157050000003,1.6013941689073623,-1.1579053091156133,3.1841351132529594,-3.1758194367798205,0.3795610616882729,-0.2052268995982351
3.858098255,1.4629144853701315,-1.142712705823739,3.1600146036225993,-3.250554329745435,0.36663723296905576,-0.20583044551387414
3.8981083080000003,1.3370248912036036,-1.1442958984771472,3.1468955918921555,-3.330841862441744,0.35690112334141744,-0.202431638952617
3.938122898,1.2023862182131426,-1.1048232784235683,3.0923203560849846,-3.4379596552546854,0.34871745305535196,-0.2037089583432576
3.978085198,1.0901883432771193,-1.0906771993858255,3.0545975097858826,-3.5228391855502785,0.3366023067045204,-0.2071598164427381
4.01814191,1.0050632232566832,-1.0342073994503336,3.044309891403416,-3.6375514647786824,0.3482600955737275,-0.21105664168465885
4.058088992,0.8984906808643016,-0.9794429634202787,2.986991965662839,-3.7179605867673815,0.33647574618348863,-0.21515761705407896
4.098095982,0.7932141786456619,-0.9068823141016403,2.928363473626013,-3.7859823578319243,0.3399700001682801,-0.21852529893231404
4.138104509,0.6992921689023271,-0.8191947950908931,2.9306913217054196,-3.8953901842569145,0.35266292370161395,-0.2213849012413863
4.178094883,0.6170003574051732,-0.7595281057363878,2.926949904527822,-3.9890895411351805,0.3965789469232632,-0.22482476415793085
4.218089704,0.5475408033400385,-0.6674322174226722,2.9465304089795272,-4.074134077770738,0.45939313221918743,-0.1849137793038473
4.258095838,0.47356988470044387,-0.5651710451506137,3.0265804406103807,-4.130067192021018,0.5092642695895827,-0.14605738592088732
4.298107141,0.4057584467694906,-0.46135889614208103,3.1117958682454265,-4.195230229262254,0.5570548435060803,-0.10669972420184817
4.338161563,0.33146908588990825,-0.3613438506890142,3.2315524785932137,-4.204485137595214,0.5623960107044622,-0.07997486508016254
4.378087199,0.28026691968218415,-0.23925531561287747,3.2824689837692778,-4.238896531970025,0.5614835471638543,-0.03996233820350397
4.418093021,0.20870538332384625,-0.11168028052511648,3.392458141004052,-4.242208555500258,0.5596666249635698,-0.005894165118880793
4.458092227,0.1603575153253039,-0.01785739775885845,3.486013422495917,-4.225167600739197,0.5542330257175625,0.02306913406366395
4.498159042,0.09262418308869219,0.13194829437978386,3.5198535038223184,-4.201478349731311,0.5062188372819978,0.03902627383702209
4.538096593,0.041353135857901915,0.25463002206441937,3.562695614665778,-4.186692591850439,0.4636275141340147,0.061175615436460676
4.578126692,-0.04910942913872538,0.36269418942887494,3.631624360811684,-4.183117276222451,0.4301410939146639,0.08090111412640742
4.618094419,-0.14996833546011828,0.4850571349068639,3.604767898084022,-4.128993155858984,0.418031902049546,0.09897673457001335
4.658098199,-0.22647856505486844,0.6139408269657506,3.625168235319211,-4.09899951294896,0.36580091104524765,0.11667770559353512
4.698103183,-0.3206791547912378,0.7211794939784718,3.6358855112044774,-4.018336957122034,0.33510579967655607,0.13164263256299752
4.738157782,-0.40078741565830045,0.823280438821005,3.6484016672802126,-3.9618119768063624,0.33307961734063546,0.14439488517275537
4.778086482,-0.489890533758669,0.9463244787530428,3.6227915277346536,-3.9004155542267163,0.31260346884897366,0.15249805993129123
4.818144351,-0.6056773796710809,1.0210118140862483,3.567421913063221,-3.8107172041155297,0.29361323764110764,0.16173312995887854
4.858094461,-0.7225118125003503,1.1192336454216483,3.5550394802251857,-3.7246234106418665,0.2765497231065118,0.16950303449115658
4.898105644,-0.8698546185690195,1.186746462681861,3.527863664125926,-3.63871995166922,0.28422007960150797,0.17500923027926452
4.938105367,-0.9808763649453431,1.2463142611749092,3.475279097704864,-3.525709296961607,0.2901246261655998,0.17372929421990754
4.978088266,-1.1062122046099925,1.3393863527244512,3.4509210720315577,-3.448333514456475,0.27950562221947445,0.17640220325951272
5.018103041,-1.2218981283018295,1.3713847572393894,3.394077432062743,-3.3321988748533693,0.29098409505102146,0.17769166547265738
5.058101954,-1.3656970453989536,1.3921303230247764,3.38014931479365,-3.2688558128972285,0.31835897128267454,0.17902649929972878
5.098088969,-1.4908737940651866,1.4044913090784263,3.311745118198185,-3.1559575943563902,0.321908070020049,0.18129225033186447
5.1381000629999996,-1.6219455225937072,1.4212209071595072,3.2890217940768385,-3.0938523259133546,0.33582553490669587,0.18151935489707577
5.178088644,-1.7453344237840684,1.4174800653476827,3.2751960002612073,-2.980232558956788,0.3576620582053126,0.18276721734719575
5.218093893,-1.8692188538848529,1.3965573115453431,3.2540968840148006,-2.908473506852823,0.38447989009197675,0.18907644366161905
5.258094984,-2.0073678845063516,1.3641384339202787,3.245412502598078,-2.8147007426367714,0.38692949325570086,0.19008038936879093
5.298105192,-2.113666557476088,1.3128691330084108,3.2500117694279282,-2.7511196093688146,0.400611962645624,0.19105097439254248
5.338103341,-2.2427739056361413,1.2719490582097093,3.2398005879493237,-2.6540003629865305,0.4265576534066572,0.19105796325006447
5.378090169,-2.353604095274116,1.2176026581266717,3.278432261220643,-2.586481837212701,0.4307227110582261,0.1832700313954249
5.418123519,-2.469828072230359,1.1178632819964487,3.2629066399088944,-2.4794541200871327,0.4205165813448253,0.19036875388751945
5.458096728,-2.57380134112131,1.0373685936461552,3.2953650219793813,-2.3673332914532383,0.4341747161830725,0.1965919296663647
5.498158942,-2.6843977876190483,0.9544374682498943,3.291615858357453,-2.293847447532485,0.44547968205137306,0.2017675472786666
5.538104804,-2.758599164349078,0.8664338276577735,3.2928968439196837,-2.1964688517194846,0.43163697504101767,0.20571675047616214
5.578086265,-2.8359334611687057,0.7520231947849079,3.2590977775831598,-2.1037911712291,0.42243597805713173,0.20204576779764968
5.618099111,-2.892989890102538,0.6287643992117992,3.2626832173702747,-2.000297195753959,0.42878742014816795,0.19839149892657776
5.658107718,-2.932886044095993,0.5095999725091569,3.2557546843033505,-1.8953658000801796,0.4242600789037846,0.19675303467150773
5.698162153,-2.9875323882379514,0.40648530426894136,3.2256748941846753,-1.8101260908699932,0.41534832323960197,0.19017183203053137
5.738095419,-3.0187215191231043,0.27536605743735976,3.267674956235972,-1.7239727567875283,0.4231707557698143,0.18627233467856588
5.778131743,-3.050765882048171,0.1724309819077316,3.2545062405107097,-1.65326534820907,0.4299330842506632,0.1828865931659225
5.818092677,-3.0465708377096954,-0.0027433557331613505,3.240893825539072,-1.542934002493193,0.41235341312706125,0.18391775574661662
5.858096424,-3.0173534176685326,-0.1270244395504855,3.2431898110512174,-1.4443893383547415,0.38916766762450283,0.1851580068205918
5.898155482,-3.01301712097479,-0.23612670448750253,3.2037146383099078,-1.3673095655134346,0.37916488015653876,0.18607258007883423
5.938100547,-3.015641422772143,-0.37043492557418456,3.2719752368036277,-1.2992549046731339,0.398731943104265,0.1871676620507197
5.978129045,-2.963885831891983,-0.4829682164508426,3.2028746607755116,-1.1897430653598113,0.3583927232567016,0.1813275923948209
6.018094001,-2.9115540075744537,-0.5962493545539872,3.1643567772784635,-1.1254970146206458,0.36109970036688654,0.18390566778643638
6.058099735,-2.8630709129476886,-0.7289758726845895,3.179708876007611,-1.002879745918288,0.33302382937229125,0.18817165863656254
6.098096149,-2.7961769128970357,-0.8369747905185615,3.13580929029995,-0.9162534113151288,0.35173542053795487,0.19667926956620368
6.138105093,-2.7259660303882214,-0.9288384544063812,3.12989103722772,-0.8199962565113171,0.3468644156746744,0.19942336206917696
6.178149662,-2.6344079122115143,-1.0255612004428194,3.084753181942458,-0.7249016689683981,0.3537939983964276,0.20093968115380711
6.21811778,-2.539628579054462,-1.1033396104284239,3.0813096609718107,-0.6394258365572065,0.3821667822095435,0.2011916448298866
6.258098581,-2.4545773615444877,-1.177714074001768,3.0947626413714393,-0.5503020801575761,0.3841739839188519,0.20357014883417773
6.298087074,-2.343053285030582,-1.2416847129735862,3.0872272217354633,-0.4782055324229671,0.3986452905986431,0.2047641761259663
6.338172397,-2.2347733052767023,-1.30639449013276,3.080829057569373,-0.3695415211914366,0.41507094340043016,0.2060798820172083
6.378089224,-2.0958448795077986,-1.3334551576098168,3.1117635380398045,-0.27624491395208406,0.42338573765782145,0.21021014986235112
6.418098399,-1.9994343117159081,-1.3825596874041226,3.091434511692945,-0.1838937434160345,0.43201464244681004,0.21003761875296031
6.458092639,-1.8738294110668285,-1.3799612492177187,3.1430408546362907,-0.10073263525111387,0.44408871180312043,0.2105260143905207
6.498123451,-1.746950564397892,-1.4011596013286811,3.1206468849741364,0.002964264846284519,0.4706806473005754,0.20893965365685602
6.538140159,-1.6277123791419912,-1.3842563407756459,3.1420367747160034,0.09752931807672342,0.465705938938833,0.1994255517204068
6.578138766,-1.4973046629280926,-1.3781367568997072,3.174135017030643,0.18567486893698804,0.45317659756820833,0.202120139139424
6.618092699,-1.3481650899199238,-1.3483206812940804,3.2248585712737667,0.2592201075672499,0.46771450568819345,0.20475098567893507
6.65810262,-1.2322634102432453,-1.327554189116542,3.2244500658748914,0.34793455891735414,0.49118591808554696,0.20772358103683283
6.698108084,-1.1225085064809217,-1.2803387120214935,3.2416582815564126,0.46376782381585413,0.4681559234457789,0.20488075939415717
6.738105334,-1.011045993810568,-1.211508393986467,3.2497467118414067,0.5525404702742096,0.46068837479518854,0.2047953466789688
6.778089289,-0.884687289400351,-1.1543571972048647,3.243333322493023,0.6482332870725732,0.4682301290482853,0.20383290599151352
6.8181013,-0.7835887541359551,-1.060975204228616,3.257091738753009,0.7520832273712657,0.4883338035480279,0.20189826590710058
6.858096457,-0.7008784856160116,-0.9779996649173466,3.2614997402829,0.8196135782285746,0.4610757604764172,0.1895817252646559
6.898223246,-0.6034628095217673,-0.885376338210294,3.2817826544485076,0.9244823120730656,0.46472704020871325,0.1831132133908645
6.938103315,-0.5082564909535021,-0.765717706360069,3.3036646375289846,1.023862018370336,0.4712232647295137,0.177163499603132
6.978094105,-0.4430137763450903,-0.682643955347255,3.3206531475931045,1.0983134833675725,0.48940270579641,0.16145784202300503
7.018098194,-0.3713725165416596,-0.5442364915585881,3.3605373272895487,1.1481249621019336,0.5145001893354214,0.1131741962775793
7.058095935,-0.32177477269021526,-0.42310307028866556,3.4348581093100345,1.1950307163825324,0.5470922210582775,0.06586888987439705
7.098106751,-0.2851239436248268,-0.30909893732585714,3.481832127721139,1.2171132981923234,0.5788104395411857,0.020283394239340616
