time (sec),x position (m),y position (m),forward velocity (m/s),"heading angle (rad), from x-axis, positive is CCW",throttle (unitless; -1 to 1),steering angle (unitless; -1 to 1)
1.009614504,-1.5793689114156835,-1.2216364516413407,2.770616713397573,-0.11246154682141433,0.36738333614863705,0.27365471796317287
1.049608817,-1.4691759655238454,-1.2402607468028517,2.7788373878372754,-0.01092980433851111,0.3773966420871399,0.268714819852687
1.089661347,-1.3721095712737599,-1.2120874716146803,2.770782335266014,0.07575329294038216,0.38793849216429843,0.2642422078624138
1.12961248,-1.2558297210253386,-1.2104342392188947,2.79379538486513,0.18069844119230244,0.4046175690698098,0.25892855456193203
1.169608658,-1.1465912085819523,-1.183800266405108,2.815558015834179,0.27553171597400034,0.4239809598007526,0.24912103089507753
1.209604213,-1.0476007136648262,-1.1496557720984406,2.829641309532573,0.381989238532385,0.4212076208293455,0.2466455642284448
1.249652708,-0.9474574651606242,-1.108886663952143,2.873305863335396,0.4555994895340383,0.4299389329844352,0.24467073328755792
1.289614402,-0.8497259943957789,-1.0484269070443502,2.879834191460768,0.5446401763410263,0.43786457704731097,0.24318278948110392
1.32961457,-0.7558094431297133,-0.9902622045850993,2.920051512583459,0.6401000383101191,0.4278621514879011,0.23589012738337337
1.369610149,-0.6487889232994201,-0.9137710649007316,2.923819834835771,0.716040416193037,0.4165827091380662,0.2361471734939748
1.409613751,-0.5530992820954271,-0.8362684330591708,2.966523998531095,0.8278770390077833,0.4160235286729239,0.23686833753653644
1.449605668,-0.48490487750876526,-0.7565194868258275,2.9727267595625237,0.9073232574709337,0.42180041206612184,0.23816462681696848
1.489608356,-0.42589289964839205,-0.6311966409339118,3.002966486537368,1.014632960482772,0.43173801331815165,0.20369419120353147
1.529623536,-0.3629882882970171,-0.5281246050786115,3.0513487229131395,1.0760088449789356,0.4312317088764842,0.16574725275426125
1.569689372,-0.282214789232741,-0.4485962114654344,3.0771974934526733,1.1133557240547738,0.44456473172626626,0.1269005797853329
1.609622333,-0.24794297421333947,-0.3212418863276638,3.106703230906031,1.1749098876750532,0.45323621006556963,0.0885033470208726
1.649672668,-0.20164130877814754,-0.20796798817310824,3.1367101776487054,1.1888121971365462,0.43262098476522703,0.04392647880800717
1.689618365,-0.14438058176543123,-0.09655233303223076,3.178572069766181,1.1955029916731654,0.4267153547214825,-0.0031935713682652352
1.729661796,-0.11395744055824607,0.04298179035468242,3.2564847362248557,1.1624052094531037,0.4297639965283559,-0.043590852567979455
1.7696912930000002,-0.053619115677012184,0.15942353259790268,3.2849336483576583,1.1304460079434089,0.4477059363052494,-0.0765744661422528
1.809612951,-0.01964833222954686,0.2847852450733589,3.2976714541082193,1.1012340480815737,0.4006342212243438,-0.09915438712259396
1.849657176,0.08518976826724804,0.39146379528114117,3.3349347002483127,1.0338354121118907,0.3790937337941806,-0.12143543829551631
1.889609509,0.13326323415831293,0.5171385901548309,3.313640271909122,0.9867765911873552,0.3747356200048491,-0.13874114075443802
1.929619411,0.22681407098933512,0.612568548094793,3.3161466550504355,0.8986426236319277,0.392367601147178,-0.15021889598893312
1.9696887140000001,0.29709553638676783,0.7163759158844514,3.277160781854563,0.8064369048545668,0.3431237581588022,-0.1527673991654435
2.009692695,0.40957479259859014,0.820835813846777,3.2926130250785652,0.7390312075530838,0.34517606314538646,-0.1591477022714133
2.049627841,0.48975215058562876,0.9088191892248785,3.2467921712446066,0.6393683219061963,0.3549326584909726,-0.16284940711043888
2.089610855,0.5957396068166582,0.9740460649764052,3.216305715276692,0.5573221833306592,0.34717970049349317,-0.15888621554638993
2.129630387,0.7085404999520482,1.028321732387427,3.2191436862350042,0.4768448091677045,0.343355162725469,-0.16104580449428968
2.16969748,0.8068797936142896,1.1039232609782252,3.159375209657511,0.3934107617123729,0.35449656191976353,-0.1621051470332881
2.209616785,0.9266297059220266,1.1439247297866573,3.163158347867821,0.3154320442356039,0.37906403306414893,-0.16389864752267827
2.249606159,1.046336159545426,1.1883007206311251,3.1253512373132266,0.21011413667558468,0.35045713251780874,-0.1536602907048238
2.289650167,1.1795505648817632,1.196772138006461,3.1013869048617226,0.13898470028665053,0.351725722736206,-0.15671344900056147
2.329619624,1.286693322712081,1.227465480840996,3.0937076443409777,0.05318949904484403,0.3553825914695317,-0.16001646382849727
2.369665301,1.4288690975639313,1.2376808796057672,3.0897453050969603,-0.0031552608061583016,0.35876462403071196,-0.16191166246304445
2.409615365,1.5426884558542218,1.2161906422280622,3.046144164381323,-0.10155292314321977,0.34780261875930385,-0.1649474934504588
2.449648228,1.647836975416037,1.2255426252828394,3.039778981598506,-0.17115117497161178,0.3365929127855329,-0.1688677166748068
2.4896156080000003,1.7708863618848352,1.1825706894114651,2.993707963356304,-0.26635655750636233,0.3406232427332347,-0.1726683272473543
2.529619811,1.9092657119384486,1.1603484743087125,2.968442474160278,-0.35852537549269414,0.3388085442780385,-0.17463275145815205
2.569604478,1.9984506356636436,1.1130776542798373,2.9588651066346547,-0.4465228103922167,0.3223635286429086,-0.17669348867574403
2.609627162,2.107227289518857,1.0664927775023894,2.9202485655752497,-0.5078855153639578,0.332289613370285,-0.17929487652761616
2.649635107,2.2042395461940862,1.005842313216671,2.913880402021855,-0.5934893428001705,0.3469565688849423,-0.1821894945497789
2.689680735,2.3014064180915055,0.9211764372458642,2.901205522490094,-0.6992380345053465,0.33009395385470397,-0.18311828816963927
2.729614989,2.3773611588772137,0.8377770042306285,2.8875925435042338,-0.7739697925448348,0.3306930701767589,-0.18751117612901133
2.769697356,2.454912120202584,0.7741411347511122,2.8818860050806596,-0.8898845064922299,0.33699886485566605,-0.1911805398521858
2.809632439,2.530346794562298,0.6635950440395928,2.841900683163778,-0.951186203343242,0.3325181786389046,-0.19722088276610195
2.849667481,2.5856283144460384,0.5656890658583619,2.7881538884047594,-1.04928597172185,0.33310201502814357,-0.19990423600058163
2.889614879,2.660084421480569,0.46059866602803545,2.7986346378242692,-1.1541541240758653,0.3355229456197009,-0.2026722312007274
2.929635023,2.6659399121984992,0.3830473439800257,2.8114936682405496,-1.231316024788688,0.3581319643697969,-0.20415490809904843
2.9696977,2.720293091510021,0.2564087440535005,2.7641342170513616,-1.3399113620172896,0.3577744884964765,-0.20563473161264686
3.009662113,2.724495158902551,0.14823323913390526,2.76719559555475,-1.4276636984115516,0.3540192301448296,-0.20635284508438706
3.049644553,2.7511819496744154,0.03202037863003482,2.7581908678235036,-1.5389769368115604,0.36439976679534625,-0.20804745491548524
3.089611063,2.73545268000908,-0.058963213539887156,2.751430397640761,-1.6111230618965071,0.3704172759355149,-0.20817571957547665
3.129612871,2.7473378116309664,-0.20064257163926127,2.767359169787907,-1.721690282898861,0.3716575915165158,-0.20768841294851267
3.16966362,2.7092106531649356,-0.25711038596628866,2.749602176057485,-1.80919944559924,0.3722587898022887,-0.20845480407591405
3.209668745,2.6885496321745364,-0.37793890002663694,2.7599938615342645,-1.909055762918827,0.3981183078147053,-0.20852632249820408
3.249641542,2.6403182081488716,-0.4710902582645408,2.738400671671224,-1.991011771081938,0.3818397641952103,-0.2065598003516001
3.289650713,2.6061185466471257,-0.5836569536527132,2.778133870295958,-2.096824428002244,0.38534665592498213,-0.20763407195637626
3.329617002,2.529639998374509,-0.6873206456841908,2.750865567842891,-2.1841224719976573,0.3960717508827956,-0.20860418989265947
3.369708115,2.4506720452435897,-0.7742783993309527,2.7689582259452226,-2.2896166981819133,0.41047075910287395,-0.20404815979942792
3.409620592,2.377865966961015,-0.8399117249839462,2.7915238412322636,-2.3909994499375364,0.3951110816272789,-0.20437493803200316
3.449609245,2.309976621193371,-0.9129028582652708,2.793721059358421,-2.4822267279725927,0.4061285814170247,-0.203541478701312
3.489609107,2.218064879641428,-1.0035899554574383,2.7792693829600648,-2.5466207759834627,0.41528102342540074,-0.20368680531746394
3.529609396,2.126247656993002,-1.0510220678206434,2.8337261098643665,-2.6350517404537044,0.40967116869914744,-0.1987628190943847
3.569612654,1.9980485547810538,-1.0846442123403561,2.851068499295017,-2.7173350470460327,0.40587922691805844,-0.19983271808539557
3.609621206,1.8976173813242967,-1.137673855802765,2.8499799957505707,-2.8410725879676,0.41478033863029057,-0.2005858091795551
3.649659877,1.7918088570254176,-1.1551178726422453,2.848346233196597,-2.9232205719725144,0.42172785620377196,-0.20191363355590772
3.6896099810000003,1.6811986066816613,-1.1948203674747355,2.833140400185397,-3.0151332708264156,0.39330885476243443,-0.19501018622076152
3.729610384,1.5605241638863452,-1.193638554103403,2.8516071195537074,-3.127712937735169,0.38898089668906394,-0.19633572206056127
3.7696420760000002,1.4637160766349693,-1.1981863255399021,2.852356377307686,-3.2068098939785195,0.3943923702943612,-0.19772437442194685
3.80961336,1.3340001211870656,-1.1923950648539872,2.848959070050396,-3.3022988873903083,0.40171841700844346,-0.189931582593872
3.849664473,1.210496236188001,-1.1662499532469441,2.8354206265453574,-3.3864797455605373,0.38492478978403877,-0.1914443832041176
3.889612005,1.1260834754264017,-1.1221734019295382,2.8348993762879786,-3.4663228549869998,0.3793726961846778,-0.192458444849357
3.929607451,1.0376616164799877,-1.101063220812036,2.8508097601770483,-3.578317206615491,0.38803810176755626,-0.1954325541030921
3.9696111810000003,0.928990164734185,-1.0596270314109832,2.831566881829004,-3.6498727007902225,0.3752657857263089,-0.19529803495887227
4.009609909,0.8006098117747248,-0.9799662572051774,2.7964607232703034,-3.732155607255297,0.37189425512579555,-0.19628924673144482
4.049607648,0.7331784634637741,-0.925815436671145,2.8018159608964965,-3.8315812525750035,0.37185703658647745,-0.19788989427839868
4.089614331,0.6371579106210762,-0.8338453248538172,2.8070800634710182,-3.910736262162102,0.38708235006521224,-0.19886965062580805
4.129608518,0.5630118016682646,-0.7643854243085858,2.7868339496502275,-4.022997313129265,0.37535003711908504,-0.19203215620634512
4.16960897,0.5018722305357108,-0.6526024384599518,2.775909730539994,-4.104677505493535,0.37684989230428134,-0.19577165014763664
4.2096314790000005,0.4522565772573821,-0.5809414188289024,2.788255778524999,-4.2013886792543715,0.38196888974692655,-0.20006687262723094
4.24960314,0.37976678909659,-0.46596331998661644,2.7646021292665903,-4.288614808034828,0.40823020699256823,-0.20342180163668347
4.289615241,0.341673341045521,-0.39275091264773987,2.842677133523531,-4.382073873521948,0.42374253392535915,-0.13830583446345582
4.329611204,0.3113961497915131,-0.270155815739402,2.90693478104289,-4.429181257596804,0.44190675093711224,-0.08681189465522987
4.369652435,0.2773028847036153,-0.1652638151298189,2.96751582759751,-4.463040148403933,0.47230217076740283,-0.03324949141442255
4.409616519,0.23919040277331236,-0.03742435645461334,3.0149610697738645,-4.466884551890207,0.44918242388065266,0.014494504897173813
4.449603822,0.20984394515722618,0.09061595648039603,3.105521956883428,-4.45881471500061,0.43043453874227194,0.05739424321059465
4.489618678,0.18481171570589866,0.20094622963253184,3.1341600881369347,-4.4425623362444355,0.41142004055578235,0.09274992883034029
4.529682987,0.11043021657659155,0.31730143821913814,3.1751252613620515,-4.4050540247469,0.40618829611260515,0.12015485688770919
4.569685845,0.09452161303558779,0.46541501685624254,3.1774645305332765,-4.346606456559261,0.36651158502627124,0.13683000965413802
4.609614116,0.029666413181906263,0.5549493227437813,3.1929850998208287,-4.30350149065596,0.3410129571674696,0.15989901935510378
4.649605736,-0.017310788930304317,0.7022498735831069,3.187085024517011,-4.237285908563187,0.33528091844948177,0.17892080508730354
4.689657375,-0.0889823255836076,0.7756267984955659,3.2342656103087997,-4.174710512434078,0.341860610957135,0.19400959632680287
4.729621456,-0.17705331533738672,0.8920518804917857,3.2177469133199765,-4.081517413474335,0.31012838253095476,0.19996137283988552
4.769610533,-0.23625442779433034,0.9949573356018432,3.1834030284170987,-4.00359891226029,0.30445261795978534,0.2104406713534046
4.809612951,-0.3051096306219335,1.0843386906455736,3.177457756539693,-3.9088913563529726,0.3040870604430018,0.21821922176825473
4.849610668,-0.39651583452941214,1.1703625754986804,3.1569680067256365,-3.8105633034545514,0.3160726879825423,0.22122489038838625
4.889615243,-0.47428751243973705,1.2337537198117159,3.129996658867141,-3.7276630504217527,0.3184643193671151,0.22378283707897936
4.929614601,-0.6082792007078284,1.3244184305184694,3.089192928045847,-3.6183614133894784,0.33309448997718066,0.2241942428616286
4.969672029,-0.7175662224963685,1.3662755665894857,3.072788112914104,-3.5260529191438503,0.35860914074446487,0.2224491709154196
5.009621308,-0.8392826521715563,1.410431863239874,3.076107594583768,-3.4335158690041427,0.36140492320206047,0.21353383141684867
5.049607947,-0.9535153496911737,1.4489286269889754,3.0695361291218113,-3.339990595281428,0.3735577795808039,0.21254022389847918
5.089664033,-1.073814899805087,1.494872410830888,3.0652949758548056,-3.242503144396157,0.3982114867393452,0.20984206490633328
5.129672654,-1.1999072543109974,1.4905416826135744,3.0741071469262025,-3.157800919052619,0.4348849058038307,0.20850662867103326
5.169693043,-1.320775498270821,1.504904795843573,3.0749219179082017,-3.071852859887718,0.4160957758765388,0.1994692877546737
5.20962365,-1.4537847081715618,1.47579544823757,3.110893698634395,-2.9799444556716685,0.41815417564352486,0.2002397635377347
5.249606082,-1.5655864707376794,1.4450793405622646,3.1113834402005547,-2.9052355459667534,0.42702901194988063,0.20194043757265404
5.289611738,-1.6964051228875499,1.4243554845367685,3.1194732116334842,-2.8397252974217726,0.4195951857727413,0.20106210969359592
5.329615385,-1.817705116547334,1.3719312662635623,3.1426642968644054,-2.7440624416137718,0.403945925218378,0.2023162939107868
5.369688882,-1.9373923900723626,1.3231519658605349,3.1676997020386777,-2.6802520084013706,0.404296023555224,0.20342838532789378
5.409618623,-2.041767933944309,1.2551161156206876,3.17164272901229,-2.579273405120599,0.4094772699511862,0.20473864069122777
5.449710343,-2.1127635568362413,1.1838111776404647,3.180442991212001,-2.5006267701983456,0.3819562496406264,0.2005467206286994
5.489615355,-2.2476177840418137,1.1111011342330006,3.192384068487802,-2.4177313360369643,0.36334031751841683,0.20502378231126628
5.529624839,-2.325886291469958,1.0246995371224186,3.1829338877318927,-2.3500437279327193,0.3668071001571135,0.21064236831023483
5.569640057,-2.416706862668973,0.9372064102079525,3.1965918447728003,-2.253686019019243,0.35299027498441266,0.21346247493916723
5.609621096,-2.4891582594716675,0.8183865289811605,3.1640311397746346,-2.145607047899904,0.3313687197012901,0.21506969494476932
5.649664742,-2.555162879938489,0.7072065111745905,3.1501216726347563,-2.042766980839145,0.32628923026507134,0.21495409884878316
5.689610129,-2.605502985077889,0.6024334455255318,3.118563827529133,-1.976343103397501,0.329077186775404,0.21453059329416646
5.729623831,-2.659508950558688,0.5218671854799731,3.098972645557527,-1.8618873527631585,0.32249240598332796,0.20627649057534453
5.769655575,-2.7047072290680725,0.37484268088020206,3.086706081848911,-1.7876307562817884,0.3092975149484775,0.20629836235369237
5.809625759,-2.7311100476575128,0.25698609792962157,3.0535573697913683,-1.70642361113883,0.3084864096170326,0.2076860641834627
5.849668609,-2.7312687232360062,0.13802657988236483,3.0195651036027464,-1.626427110976828,0.31563137380224704,0.21050978063840328
5.889616572,-2.75359032861826,0.0294877290654958,3.007829892773723,-1.5105527699100394,0.3026921896163089,0.2066525953193659
5.929617592,-2.729699569971299,-0.10798170980641268,2.99328067373826,-1.4366401575871828,0.2890676899722887,0.20975869268334044
5.969664038,-2.7170517166525654,-0.2095387428687451,2.964115777534414,-1.355306143921106,0.29358530713179315,0.21361552342845483
6.00962542,-2.6953507245570227,-0.3462295733746544,2.94508633380131,-1.247150623180328,0.30760013290175514,0.21857207108213875
6.049680257,-2.6690294368061824,-0.4471263811445568,2.9355779819432026,-1.1843600933913039,0.2801975104317248,0.22325053704974634
6.08961501,-2.6013587164203735,-0.549888622531476,2.935153195769559,-1.0781680585846523,0.2871055249742673,0.2274520857580698
6.129613568,-2.535859514926079,-0.647575114514233,2.8999469894159584,-0.9814151138429128,0.29174319118983183,0.23087660170704336
6.169605685,-2.4744939776612442,-0.7420578386585958,2.888437680876081,-0.8942807023586892,0.2881887200002367,0.23673804845128463
6.2096178890000004,-2.41673431688671,-0.8446745864160042,2.8665001244640447,-0.7924965502791557,0.2846907982864193,0.23907819638865144
6.249605539,-2.3341347871228892,-0.9253321738171393,2.8300859280681294,-0.7099305732072236,0.29689027225321263,0.24049857785328926
6.289622729,-2.2383818430027076,-0.9880568377511999,2.817649443089439,-0.603302244630884,0.3181361433942387,0.24225307007298905
6.329614501,-2.1395062180082594,-1.0390110075677224,2.814710337091424,-0.5198314993197101,0.31870719938070324,0.2398884516982056
6.369690827,-2.0385566909171273,-1.090558329129895,2.7856194946344432,-0.45347803624392224,0.32887403702492507,0.24455021671216592
6.409628295,-1.9374285479356934,-1.1459568702183796,2.795793333076282,-0.32384057770897123,0.3477452892982994,0.24874746125029767
6.44966302,-1.8182965864509006,-1.1794558880511967,2.8172391727394497,-0.2381943010820961,0.371912674990937,0.252370177086173
6.489615041,-1.729405949883404,-1.199754430177338,2.8225953937500927,-0.15748839277657536,0.3714099354095373,0.23932722561526049
6.529618708,-1.6116357044260952,-1.1946290415365373,2.845937240322402,-0.059679431969570165,0.3752898358715255,0.24583256094537356
6.569698363,-1.4883785151069882,-1.2163202462642833,2.8378791647693586,0.021782045156220495,0.38579116891154774,0.25141033665225987
6.609658717,-1.3815860954377086,-1.2113609911529888,2.856257676491697,0.12792589459148612,0.39956850252433257,0.26140321661528604
6.649606319,-1.2606621191322385,-1.1731151712617696,2.9008503400032417,0.23357824155464546,0.393627473305466,0.2570361403255533
6.6896660610000005,-1.1589935299224523,-1.146688243181295,2.9011731164923633,0.3283632256133639,0.40316578527259983,0.25208108437585497
6.729666151,-1.02769649708928,-1.1024923828461868,2.909057285452605,0.42179450806152013,0.4207056607773638,0.24626749188789196
6.769704685,-0.9454116161149554,-1.0668110876958377,2.903004779641046,0.5206329762964087,0.4056492427501166,0.23811031643080716
6.809626828,-0.8351046499300337,-0.9881862545551647,2.912187502713874,0.5985756509985043,0.40393984869625893,0.23646213530628632
6.849684897,-0.7377673460018621,-0.9140827324240961,2.9156373118279766,0.6940296142141213,0.4104050707478013,0.23548087150730843
6.8896095200000005,-0.6503522193895126,-0.8400740838136701,2.952914379234252,0.8147268888355721,0.4282960589909507,0.2351388102890886
6.929614067,-0.5615038687041196,-0.7653000248646338,2.9669680226559074,0.8760022002377775,0.41293983716868127,0.2189589302316319
6.969685376,-0.4958848135961252,-0.6803471735618223,2.9885534653777808,0.9576733375721888,0.41363648186328283,0.21073729449248055
7.009624732,-0.4224009826426886,-0.5744561750675854,3.010586581104618,1.053679528370815,0.4152879729125358,0.20194707567707804
7.049605386,-0.3819543788072092,-0.4669451220127226,3.012135050169836,1.13453071834909,0.41640686823922346,0.1670044189053908
7.089618113,-0.3273750955279331,-0.35624414492465367,3.0673013603965242,1.1602681172299738,0.421033962840664,0.10876357174297267
