time (sec),x position (m),y position (m),forward velocity (m/s),"heading angle (rad), from x-axis, positive is CCW",throttle (unitless; -1 to 1),steering angle (unitless; -1 to 1)
1.018324175,-0.8096520449130699,1.139918991486191,3.3823923167993346,2.603224024240873,0.34166735516671426,0.1970844971482118
1.058308633,-0.9702024560923536,1.2392284877812498,3.372896675779963,2.7145867273616062,0.31313363383652043,0.20308610256296544
1.098337696,-1.100680379478407,1.2721669525345407,3.3343754951218716,2.791256036074014,0.29376578942582854,0.2071799815015086
1.138380093,-1.2041504447366975,1.316884086937908,3.3108408569451333,2.902741324317153,0.29170129316321214,0.21574442661057797
1.178312748,-1.2885427876241176,1.371853150440342,3.2394036497074494,2.9884386544482004,0.2844617688274117,0.2135574771058065
1.2183276140000001,-1.4675489581708658,1.3838911557364528,3.18683200834038,3.1038626267525236,0.2804526767618535,0.21250379798756242
1.258307235,-1.5957040680277101,1.390007165133458,3.1806276154685085,3.1688292868307237,0.28641906613389145,0.21063571232154166
1.298316532,-1.7072165332472156,1.395796860690501,3.1294058815605825,3.266934652631222,0.3126926676197257,0.21706742759741077
1.3383085160000001,-1.8265264804547843,1.3607625713150044,3.1064312570022055,3.340531835107521,0.313167155025856,0.2068783635104837
1.378309027,-1.9554317917908548,1.3414091075749008,3.075343391982123,3.4288737480767066,0.30989030476022333,0.21113551089470206
1.418307059,-2.100094185568643,1.2975306697507458,3.069936651013117,3.520126284841108,0.32268902647728204,0.21707705620488862
1.4583108500000002,-2.176600946864396,1.2472259010085154,3.0456806199708875,3.6031291263101446,0.3432334547811719,0.2247246002844839
1.498315886,-2.2884638541696254,1.1990630950834107,3.080325438204099,3.7052161866619366,0.3417855939439039,0.23244860022364164
1.538326507,-2.396145238473479,1.1481287584475752,3.059998675271136,3.770081920318631,0.3367178840935759,0.23263869830285466
1.57842973,-2.494055262229126,1.0716585750911456,3.0536363606556427,3.8879630848066893,0.3648946879873865,0.24312301520172266
1.618359912,-2.5872479710085443,0.9859488476092102,3.022331382050468,3.9723530080406717,0.3766249601063555,0.2343050142324802
1.6585043019999999,-2.6622409951686614,0.8820331805987053,2.9893165182845634,4.078893656049125,0.3791131710321788,0.2361041627514853
1.6983098060000001,-2.7440254559686457,0.8076517189512213,3.0017371853263146,4.179996315542669,0.383923668047388,0.23846727055668968
1.738309643,-2.807176663390408,0.6906862293775635,2.9808453767461427,4.267705228918398,0.40906582074815684,0.24007998315201043
1.778308671,-2.841355922057012,0.576170864287413,3.008493620429833,4.3743331514291075,0.43757877308480986,0.23837168763226044
1.818312459,-2.885826586545461,0.48164423451274807,3.0106394670051135,4.460842619455603,0.43594824923410697,0.23665714392886195
1.8584130600000002,-2.939083299803991,0.37629614156562424,3.0018301112620103,4.548912398045982,0.4541033959825675,0.23586968224780677
1.898311353,-2.9427901575974174,0.25291865414844794,3.041052158053306,4.63343134542253,0.4802126171181412,0.23404735940970264
1.938307473,-2.9582671482226477,0.11928464432021892,3.050290105724349,4.742456170341417,0.47301721318367956,0.2275206879259704
1.978311415,-2.9595132361805354,-0.003206601894788756,3.0929830780106653,4.809692872735011,0.47782155650132885,0.22759407623665448
2.018315799,-2.9412234429232593,-0.08825768702741356,3.092286981487633,4.89571524385666,0.4796770404878927,0.2275990298526397
2.058347528,-2.922235526471256,-0.25232360033420986,3.0992949722911645,5.011239349926781,0.4983663455324538,0.2275022790435491
2.098318413,-2.8744479087334063,-0.3671561220059149,3.109670692405675,5.08737828178892,0.4761040055199534,0.22211350759236495
2.138310911,-2.8244582929832585,-0.49672206935272023,3.124911975579962,5.177431622587977,0.4685779251776634,0.2281469457909637
2.178309697,-2.776520663831501,-0.5900964710463535,3.1218113267411964,5.282288467780237,0.4711445184947417,0.2203590013020744
2.218311984,-2.737416687150085,-0.6799306764031001,3.13165412331818,5.358978957956777,0.47771344469894045,0.21328255298967835
2.258333045,-2.646623371383485,-0.7967216047284831,3.1332893974115885,5.457662483069402,0.45641184243019156,0.2111084966946578
2.29831298,-2.5709747377448973,-0.9015231292056671,3.144712629701818,5.551132355050607,0.45143069518593987,0.2111578044912694
2.338404491,-2.476668938152494,-0.9735119292064331,3.1371834926921376,5.629044749740287,0.46025937275310896,0.21762271727758178
2.37831851,-2.3795816460460353,-1.0835865100652473,3.1843611380303973,5.719039295703757,0.4380822136803032,0.20615503688824333
2.418306699,-2.263670955717053,-1.1296211760932615,3.1870949025623196,5.782700502569134,0.41822801741667953,0.20748975912866222
2.458320832,-2.1203848033876707,-1.2013111786033495,3.1641156854886794,5.912945225281842,0.4145707743228975,0.2101603039782337
2.498320393,-2.0015982242093813,-1.2515058754041577,3.1598641529275517,5.987354401746001,0.4178671242975548,0.21303791597572772
2.538371499,-1.9308551130101037,-1.2773731003253288,3.142513532260223,6.060651051051559,0.38654838445475265,0.21028922923750565
2.578310981,-1.7800618918868492,-1.2990232944527311,3.14569992529921,6.144534397467004,0.3722272160162398,0.20737884622054686
2.618361552,-1.677579614175903,-1.3400663034490614,3.1090900629909233,6.230040893468677,0.36061236960042736,0.20920071009949057
2.658339299,-1.5435513684000106,-1.336506335301941,3.1173497651817597,6.33218950639811,0.38485265627785725,0.21967631209224528
2.698309778,-1.417964260835722,-1.3262784012088988,3.089123993224484,6.423443211008228,0.35373297082459115,0.21621711247266281
2.7382996410000002,-1.2909869845842539,-1.3045546231781573,3.0648137094134413,6.516815640910293,0.3520272280846334,0.21809709364631447
2.778318138,-1.1767785887534932,-1.2870618417238675,3.0312733273573453,6.616145120284849,0.35658434707955666,0.22024072016344323
2.818307221,-1.062992319497423,-1.2392632082798893,3.0386557829811816,6.702591082648022,0.35650695740838173,0.21993142611552366
2.858372484,-0.9414766118992106,-1.2060291686014972,3.016165898831486,6.820964783885714,0.3564523262668864,0.21991921360562516
2.898341337,-0.8348895986566836,-1.1392952283041173,3.0206319698177384,6.9039284105508765,0.3659826630271731,0.2196225709437693
2.938310078,-0.7525953644723526,-1.0672555013797855,2.9990692771757046,6.971720494532797,0.38498054192419523,0.22045836991037893
2.978322003,-0.6952247354520573,-1.0070034068014764,2.9900744842305245,7.039262163921226,0.41147884611544056,0.21037016827523616
3.018313515,-0.5625025804604337,-0.9022139647866829,3.0057286099189384,7.141571699193457,0.43337468423049197,0.19822235567984423
3.058386832,-0.4935524610462703,-0.8344763076219686,3.037022992886704,7.213487449386323,0.4642489360024449,0.18649042185106504
3.098449312,-0.402138155972546,-0.7114011885884207,3.083840966589513,7.301424909185974,0.49418413735026107,0.17904993487585952
3.138395182,-0.3496087856164696,-0.6187447443522406,3.145094777729133,7.365374357010672,0.5145142009190087,0.12458891773594453
3.178311928,-0.29546468530684006,-0.4999645164642858,3.2319606487319956,7.41272493634995,0.5464387364020703,0.0781554026273902
3.218311086,-0.24249157143684735,-0.3874346199592011,3.275220624414178,7.434788022206983,0.5772600790221306,0.03143144483630349
3.258311579,-0.15774885908039088,-0.25591476243500555,3.3878359186201843,7.421261521124982,0.5524164243990126,0.0011002559976808837
3.298311192,-0.11745874719869806,-0.14227952416837458,3.463783790147845,7.419347079967656,0.5300837718073028,-0.031533213293269705
3.338416229,-0.07696602938971561,-0.007726591961427785,3.5216648270719144,7.421681080395177,0.5188389999178225,-0.05689001519392434
3.378309302,-0.001736829635747326,0.1105556872924661,3.600661677357643,7.401493361317328,0.5019088258616148,-0.07830644000636931
3.418310482,0.06618064122493092,0.26138825479774486,3.605697472622357,7.398378289015697,0.4368472782246115,-0.09432140761832884
3.45832146,0.13767542863602883,0.36588192679057574,3.653676950850824,7.377087116544039,0.40060012501820946,-0.11681838403151198
3.498308656,0.20270649476673294,0.478867262860293,3.6595072316183868,7.332005508396302,0.36692279933732563,-0.1376359983666687
3.538308229,0.27886965115389345,0.63827438552929,3.6694194600864307,7.262797602756917,0.36098193878896007,-0.1565624597743709
3.578310012,0.3823664450369829,0.7546271635424292,3.6368176753011467,7.1952905220200165,0.3023053620236703,-0.16851614468572487
3.618307512,0.4599360414149054,0.8400247887317135,3.616457430940263,7.1263748350233,0.27704492719616447,-0.1824405443476712
3.658306896,0.5502655541510991,0.9611301845721095,3.5588249909981644,7.061332063339101,0.2634750292624189,-0.1920364110227608
3.6983079930000002,0.6920012390647757,1.068030740311514,3.525372195862466,6.947895402268046,0.24724389678917122,-0.19996390784476906
3.738365771,0.7954756067521573,1.177095410512396,3.4705600398820686,6.838615482926177,0.23234871257961257,-0.20430828125964606
3.7783142830000003,0.8916843954652119,1.2242893391153116,3.438351167534809,6.798067083493362,0.2372498383346895,-0.20833674682495038
3.818308922,1.0123459809660968,1.295010282195004,3.3688114564780256,6.690587335373476,0.24282045478585637,-0.2049113851352114
3.858366659,1.1237041359422546,1.3434998400842668,3.3187099860487,6.612592056307996,0.2515829861254853,-0.211340076683005
3.898368896,1.247940036804361,1.3910367604902896,3.2669463120851585,6.519439317475237,0.2626496915023716,-0.2207597264021273
3.938319281,1.397707060310985,1.4072140167034637,3.22064027069099,6.430265199107337,0.28556277789863077,-0.2252292409946025
3.97832558,1.52252119120139,1.4238574223053222,3.2419400677123473,6.345922948201958,0.3215757019164731,-0.22723585016624898
4.018308797,1.6256795657552154,1.4428334868161978,3.1717981826547037,6.248721447885367,0.327862607631378,-0.23143880907112568
4.058321435,1.7496730749393887,1.4216429563666488,3.10522563013604,6.157367105590986,0.3500431607462121,-0.23652073232813073
4.098319225,1.8828156483120426,1.415198324683794,3.116742417354412,6.0519406287367925,0.37308883510652574,-0.24088372288780857
4.13830973,1.9979740233495136,1.389381691545811,3.0956206353820717,5.981495280787597,0.3961424008025535,-0.24077835316949708
4.178309866,2.130674769333378,1.3247709908718248,3.1092591688494498,5.871937633495729,0.41094538340614134,-0.24397393874753293
4.218310715,2.2496198371479528,1.267452102153139,3.1363608738032256,5.801138623349986,0.4216796804271262,-0.24637325741186938
4.258356087,2.3500923315991393,1.2252010303981797,3.1163388849913622,5.701808223326146,0.45318766514498976,-0.24704967006657125
4.298311989,2.4591751308092684,1.1292135472984073,3.1228985044898767,5.5994999280782,0.4481918033847656,-0.24919884752863813
4.338308267,2.5412069113352724,1.0614510600860516,3.1332061753883775,5.510317221727833,0.4436193907685947,-0.24901576491172292
4.378310365,2.631294806195461,0.953144960740824,3.1427184964986155,5.431873921160169,0.46723939385957747,-0.24731483974530918
4.418378808,2.6980125693533457,0.8814092880773368,3.1609685027528616,5.339503574092783,0.47488553666067346,-0.24357155226575294
4.4583236920000004,2.782829188242144,0.7985140262075268,3.169365442611192,5.242449945745559,0.45666326341527486,-0.24316115924553092
4.498307253,2.8381971205447414,0.6655846288854865,3.181024079739558,5.162731109755091,0.46062685680231985,-0.24357688058764235
4.538320294,2.889757303364681,0.5356289370793529,3.1880689563964233,5.052943532018454,0.46797506733433464,-0.2457061747238617
4.578310703,2.938063413336785,0.42774868553249323,3.2004667159803875,4.965206068398188,0.48705430906201996,-0.2457274003200593
4.618514554,2.9514497843243133,0.3059234070339236,3.1587559865878645,4.870429654580452,0.45142858078210507,-0.23393192736918259
4.658307383,2.9947908154789604,0.16886705508326544,3.2016091381383722,4.784220206826752,0.44281514192787047,-0.23588972328683058
4.698312342,2.9830878227702424,0.04242365108309734,3.2139547809281996,4.687475518198097,0.4457797600212848,-0.23723135294506614
4.738308227,2.988747623523272,-0.08899385340342801,3.2057045333528937,4.608486277058788,0.448209647151901,-0.2375361999566509
4.778308234,2.9968640514021643,-0.21082638687264058,3.2134625996017263,4.494587319641518,0.42072694182272163,-0.23649693126688637
4.818314291,2.9349779102811913,-0.3534615112258698,3.2127211327854996,4.414204112217993,0.41495648229577686,-0.2364159729174774
4.858308926,2.920622510224754,-0.4498757193693308,3.1853458386662052,4.357819006643762,0.42080915684348036,-0.23630356047871004
4.89831084,2.8698770479139437,-0.5582969421255368,3.1771833581443736,4.22783997126328,0.39794310417565665,-0.23849808150734872
4.938330671,2.8053468958911822,-0.679858767489222,3.185337580239254,4.140936109441922,0.382365213028018,-0.239763422272928
4.97831476,2.7269799979367213,-0.797100412044719,3.1748418153216047,4.0567690331466695,0.396327311515419,-0.23798357495685424
5.018308259,2.6467039064935114,-0.886729281742337,3.1301960666579474,3.96292454529111,0.41073430155863544,-0.236913175498562
5.05832345,2.5777488195243916,-0.986556300238411,3.137380283345372,3.854912909509566,0.3751945105099573,-0.23231063433591792
5.09832199,2.4616859620046148,-1.0776296537180219,3.121905081479301,3.765027516168669,0.36922371392879044,-0.2308822158199309
5.138309427,2.3586053315589255,-1.1379908068202462,3.107845015204349,3.6713433060014498,0.3813900847657488,-0.23182065800945043
5.178370884,2.2629868099363217,-1.1988340959929633,3.0889531625386586,3.589292912787154,0.3785199834898466,-0.222090316402884
5.218391327,2.144073467403248,-1.2719773542689552,3.0940968670542155,3.4977894606206674,0.37199994525191665,-0.22597483341404143
5.258307158,2.0383331937979046,-1.2767242127995801,3.093150087437277,3.4231764455138123,0.3717599645068536,-0.23201822069776726
5.298318778,1.9195586547266128,-1.329234957758909,3.080301633006635,3.3368105154296974,0.3948445672772026,-0.23759470392357857
5.338310848,1.8074540893126743,-1.3454446486754,3.0877632839128384,3.243159919494165,0.3970945988190317,-0.23993724017107393
5.378307865,1.6605518601974973,-1.34148493680172,3.097914115247867,3.1530306738411746,0.3914942142561167,-0.24545456504772353
5.418313907,1.5543419999231296,-1.3425358682745914,3.1003635820656115,3.0325823830914462,0.4070086961331211,-0.25072822102657394
5.458310149,1.4261011362348954,-1.3376491116546632,3.0710109319589796,2.95782977053807,0.438078500816292,-0.25517048920394386
5.498315034,1.3406325799908867,-1.3006846505346206,3.103903353427172,2.8798143828367038,0.4327132220298209,-0.2566351363208754
5.538308402,1.1378947917409716,-1.237055575689284,3.1162643739459233,2.739965325425713,0.4389888116528909,-0.25700657020665857
5.578319514,1.07137653579597,-1.2262561555051297,3.0566218414752973,2.657510155429246,0.47714106991854277,-0.25636709488720755
5.618346436,0.9659180242006996,-1.1702333412058914,3.107348196542582,2.557462781288725,0.5002270838148882,-0.2622620648605263
5.658309207,0.834580110658112,-1.1092702557190421,3.119900538905383,2.443901546601232,0.4715319024062049,-0.2416748027152554
5.698309869,0.7769205437624127,-1.0175384495789452,3.0968560347024168,2.339241041777722,0.4994175731919636,-0.24397779319882343
5.738313069,0.6724928192768196,-0.9414847908194571,3.109186732865775,2.237072878393892,0.5111584518981844,-0.23751088807769055
5.778325779,0.6018026042272626,-0.8388154159586976,3.1476485338809033,2.127302555191625,0.5303293189040489,-0.2064770527954052
5.818307831,0.5312562213879454,-0.7327237375220901,3.165546353869689,2.042088250494455,0.5610596326416182,-0.1667953611002255
5.858309705,0.4669353094645082,-0.5976124575103431,3.207755499838423,1.9663174721557515,0.5829238990517384,-0.12612165386892918
5.898385689,0.39523325128040127,-0.48963306302053095,3.3035400240380746,1.935303928917017,0.5768477823252066,-0.08846446340761172
5.938327125,0.3729593473291397,-0.381990164172688,3.382398949094512,1.908520770663188,0.575779017809839,-0.03870504223696286
5.978332767,0.2901726060582469,-0.23338078489390748,3.511390543195672,1.9334687286967924,0.5712916772734341,0.005662014119677005
6.01830926,0.2487386341891158,-0.11774767797079626,3.596022545562292,1.9639481592419543,0.5508193267850822,0.04034287903213418
6.058335035,0.19195336640386512,0.01930706773956438,3.6372498693362165,1.9817618520274676,0.5062531833075401,0.056908471393042545
6.098308499,0.15148691455115487,0.1532958216183496,3.699031147433059,1.9897635965950926,0.4499054205771436,0.07439166585986276
6.138308385,0.07914845246485912,0.3001215268630392,3.711737328823669,2.049188609014552,0.4135934587473389,0.09087364394975622
6.178326797,0.0025756023442406206,0.41339324156853646,3.7505458376941063,2.0997892189405167,0.3967741511646358,0.10796422159195782
6.218422303,-0.046613317489411846,0.5297380788409997,3.728048814179828,2.1179983239965026,0.35042814154151464,0.11792866421793931
6.258305061,-0.1484070092927806,0.6664749614134334,3.729956730004801,2.202366111353029,0.32251466072924234,0.13135680054055499
6.29830632,-0.22805660493868873,0.792653853057263,3.7272707142839434,2.2412763948017655,0.30123845153183676,0.14406771941711216
6.338310589,-0.3563624662186372,0.9053006028358593,3.727512992341143,2.3176935271109214,0.3129021759994229,0.15885868837484327
6.378461743,-0.4381102267891521,1.0348240089553657,3.6860831085443055,2.387627475488806,0.273303280872472,0.1603642657455817
6.418309361,-0.5422741072147672,1.12691186697338,3.624382629774655,2.4888681283057403,0.25574698087251996,0.17001893169779847
6.458376123,-0.6456650323552383,1.2100007722631105,3.585102410621787,2.5809952529953564,0.25082205382127143,0.17739244749001257
6.498411628,-0.7793963843237596,1.2978764441873905,3.518048729869138,2.6657034015416294,0.2643608803782736,0.18122831185387564
6.538308709,-0.903393732616694,1.3606703500888715,3.4432630025267255,2.7990898595920273,0.24618659313339156,0.179433777062206
6.578313862,-1.023715350271016,1.4004020878077081,3.3758377291402613,2.8689634423613253,0.24909779838204058,0.17860499086665302
6.618314472,-1.1595228884732578,1.464550159457197,3.316845800116676,2.957505964728997,0.2656969239435077,0.17805411655727818
6.658320046,-1.2686545818102626,1.4684429735148246,3.282877916946699,3.026961147878194,0.27772202790441664,0.18038748262678464
6.698318958,-1.388055833697858,1.5195057529055376,3.242340967308488,3.133340492592688,0.2812045766908116,0.17867235970692655
6.738355674,-1.5610078074499514,1.507851417756073,3.1871733766393304,3.253396128128589,0.3030639524279368,0.18013870079580077
6.778309333,-1.6380887915355022,1.4991962472474252,3.168637190976602,3.297175021290727,0.32619929983577584,0.18229018796777474
6.818310553,-1.7747528983601488,1.4681956341642908,3.12778251908212,3.360288806627166,0.3233321516743558,0.18732832193321755
6.858307421,-1.8892281418557828,1.46336664304555,3.122333446051081,3.446349547133399,0.33026589541590695,0.18616978236067738
6.898314044,-2.027683708678295,1.4233224175148145,3.1074966718305355,3.5362565533440513,0.3433489875548555,0.19838104215899435
6.938310401,-2.1395985049121697,1.3553740249171493,3.1044313511788664,3.614444988845716,0.3668424195327672,0.2033696633206926
6.978307132,-2.2542367810048787,1.3028526007597114,3.0805938379677023,3.7106121348086654,0.35496801340028344,0.20270148660989057
7.018306392,-2.353978681771851,1.2198929116241501,3.0807459575420686,3.794463483436254,0.35342118883055895,0.20980826560210514
7.058320984,-2.449813151610492,1.1438127095780273,3.111111297440037,3.9238254628994143,0.3702387100731541,0.2169498849179572
7.098312417,-2.55242903043094,1.074653593423595,3.0733853918425376,3.980780577581366,0.3871252857760719,0.2283588162984218
7.138326743,-2.616914406705703,0.9704181567330993,3.0531605380526354,4.067276195773737,0.3812307498847728,0.22814463777521699
7.178317186,-2.680437305650609,0.9074489441868742,3.0935115856465396,4.175357808831067,0.3794866853296631,0.22076785228822055
