time (sec),x position (m),y position (m),forward velocity (m/s),"heading angle (rad), from x-axis, positive is CCW",throttle (unitless; -1 to 1),steering angle (unitless; -1 to 1)
1.009820981,2.111887391473904,1.3153787748887955,3.2201416232004325,-0.8231487849563034,0.511793653448088,-0.26647550011468135
1.049824967,2.1937669050563238,1.213031139302562,3.2283285273867164,-0.9184502066249565,0.4962944918253699,-0.25428546742857894
1.089814029,2.284014916348925,1.1147963741258275,3.2713001540701874,-1.0313285477105256,0.4848301426713153,-0.25993144553333064
1.129816259,2.3421294777112984,0.9948932860910618,3.262147817884952,-1.1111339613593276,0.4830946085427777,-0.25731838547468444
1.1698083160000001,2.4052463081275732,0.8696923150539683,3.25960248266361,-1.1935271506394247,0.46189347863310465,-0.2527781329714905
1.209823234,2.4413126445580335,0.7588711339080382,3.2682648608866285,-1.3076570093262196,0.44286808573593905,-0.25084705053871326
1.249826035,2.4628029644006633,0.6253419681890126,3.2694525430617865,-1.3985705753858315,0.4378568235855574,-0.2483556968511088
1.289809657,2.4818877795541807,0.4934874557372919,3.3048733363990888,-1.485035683264016,0.4424983888134662,-0.24009386592810525
1.3298242789999999,2.5018394188933755,0.3702133556743129,3.289636838799597,-1.5811014116500017,0.41734803212805693,-0.23897147611820596
1.369813935,2.4849572905035413,0.24301134972368496,3.270280010031901,-1.6942531493311999,0.40791664539579675,-0.23813769326264794
1.409897379,2.4664198591534854,0.08120110178219037,3.27462090537377,-1.7929360714450477,0.40835405555822846,-0.23905737804463167
1.44981753,2.4537304936263786,-0.019331977198749586,3.2788632165898437,-1.8713766453383662,0.3888549363671871,-0.23934473396587672
1.489809035,2.3917071038413464,-0.12080310711192072,3.2441033827597217,-1.9697739289146559,0.3898874397762316,-0.23766547888340947
1.529825433,2.3536765913313165,-0.2793825607127546,3.2308526663138135,-2.055854770021417,0.3890067446429057,-0.2281856053114554
1.5698073570000002,2.300304751183535,-0.36958679196646377,3.2287838742651562,-2.1512522277387887,0.38817350674256673,-0.23278958652865908
1.609811568,2.2196545524570648,-0.4927967056946999,3.23489413126695,-2.2316709915388824,0.37935573381109045,-0.23064077030218183
1.649825222,2.1365981971686443,-0.572537952129315,3.211043952728397,-2.3518169474632837,0.3804352334124327,-0.23045080229791454
1.689811921,2.0389167439323925,-0.681939650099399,3.192180290823925,-2.4323394125906765,0.3848207066872586,-0.22983091539852132
1.729815752,1.9228423437063595,-0.7688371274605149,3.183915135531393,-2.5535994275746323,0.3755027089765343,-0.22595359894830613
1.769827846,1.8410773662277324,-0.8616008867457097,3.1808669748997396,-2.631017835266432,0.3729020163825669,-0.22517060511218012
1.8099340160000001,1.7244644836340948,-0.898034789023756,3.203177063321243,-2.704330910668382,0.37474226964863744,-0.2256478095458383
1.84982138,1.622018688103734,-0.9626113573991396,3.1667816425409674,-2.8046687532890444,0.3858458870923461,-0.2190634383199972
1.889820458,1.5258446398964292,-0.9806399895693317,3.184970573889239,-2.8796111593433835,0.3531273360017437,-0.21769597773136515
1.9298209640000001,1.3693293006929457,-1.0143141968195641,3.14689256301607,-2.96698808788002,0.3441597423833579,-0.2255936488678466
1.969832328,1.2607908521839433,-1.0449263959456052,3.134717969584676,-3.044820856989926,0.3560347026095199,-0.22689783543057554
2.009976678,1.1238973068791154,-1.042701430002032,3.1416507406316927,-3.1542163245388926,0.3395041731719797,-0.225197420299464
2.049823056,0.9971326821685755,-1.040710001257539,3.1068909996145737,-3.2379796770213183,0.3271752978979167,-0.22646537306438042
2.089809335,0.8778914915362246,-1.0395032370426105,3.105080759302675,-3.3154266300957254,0.33323519501895826,-0.22831289242431377
2.1298294110000002,0.7311350913841398,-0.979904890677806,3.0955458481651723,-3.4482074043183966,0.33404176603643726,-0.23176030943930326
2.169815043,0.654630940726208,-0.9710315011370455,3.048577218940179,-3.493688706786427,0.32428057321073356,-0.23254280551788278
2.209825368,0.538481326997016,-0.9115003097075532,3.0334891076389083,-3.5817216369519986,0.31652791865092,-0.23539856751700924
2.249847523,0.41920435807118056,-0.8526414215305645,3.00440147190085,-3.698767877766538,0.31590237481331657,-0.23242094780588235
2.289816879,0.31277027704248833,-0.8002265692623497,3.0031921872765936,-3.766397450683044,0.344998289790393,-0.24910024309512024
2.329820945,0.22668013866010558,-0.7037368785346831,3.0023078517092916,-3.8790808279406357,0.36176264736686264,-0.23527374984834679
2.3698613760000002,0.1598953119175534,-0.6519192689308922,3.02043306646028,-3.9682656779056016,0.3876646884630989,-0.21998138200858916
2.409820712,0.07913752710974468,-0.5614471882737992,3.019628787473166,-4.044418609637999,0.4096347012118953,-0.20532964688237926
2.449824949,-0.02331087192316087,-0.4440151344789913,3.089854441977896,-4.116071813392962,0.4300300355522693,-0.17725258291228715
2.489823711,-0.07111813356715527,-0.340239483262085,3.1166963638249587,-4.194759744415158,0.4664328216161406,-0.13159316730848478
2.529827506,-0.14289928116766912,-0.19606486807492896,3.195463246155376,-4.227067792113682,0.5002892187015396,-0.08202233708892284
2.569818141,-0.1810034060538829,-0.11267076720007689,3.299414354806519,-4.241227326273984,0.5201410232181812,-0.036743631503199946
2.6098088180000003,-0.2794832593811243,0.0384098742263181,3.3982705754830405,-4.233605637944216,0.49440995984195857,-0.003783392194188401
2.649830921,-0.33278302860445963,0.1274349047682692,3.4374750500937115,-4.209888587844865,0.462056173468772,0.02682542437664167
2.689829253,-0.4286090660287954,0.2673653528180659,3.4999859435312466,-4.195414520791002,0.4409540887854895,0.04875962681378219
2.7298263570000003,-0.4751281454595646,0.3668038573705082,3.54802423807717,-4.167601500280847,0.390890897965139,0.06550784787017963
2.769810964,-0.5318237749878132,0.4956801261188739,3.5584076750312774,-4.134778634180746,0.3645940910261242,0.0852690852716199
2.809817311,-0.6216761551821762,0.6100497552401687,3.592331186609264,-4.092654998154162,0.3276261543290963,0.10080231873968465
2.849815212,-0.7299783185386819,0.7224422331598233,3.5847737896637626,-4.020957873667714,0.31445818755058824,0.11767697998183131
2.889827653,-0.8285853735657115,0.8462783227005853,3.5535524749135656,-3.966274110481005,0.27752716549513673,0.1295966941721819
2.929821737,-0.9052496147284104,0.9308745327631931,3.552547248772156,-3.8970004515236583,0.25025805994732836,0.1417735406713665
2.969842453,-1.0528354160558395,1.029676027983397,3.543398093537146,-3.7971523485827507,0.2376930878559416,0.15220957894284534
3.009843242,-1.133473947987679,1.0949343383113574,3.5185574630071086,-3.7333479224226305,0.24062423702157418,0.15662040774916516
3.049816309,-1.2795150767992172,1.1915090842981593,3.452654257680602,-3.6243148389943003,0.21808329318083086,0.16216471964688223
3.08981334,-1.3686395280656873,1.2478739456989252,3.4254772200820014,-3.58639020927066,0.2023317427668858,0.1619940053033254
3.129829421,-1.4760080168434864,1.3060193636416686,3.3506281498139914,-3.475096501124673,0.2081536621521172,0.17227639689674884
3.169812971,-1.6071726090617506,1.3555530371910633,3.302547664005433,-3.36654827596642,0.2151047879355519,0.16612242845843095
3.20982812,-1.7235479854127365,1.3766209483857335,3.2391887730116933,-3.267046265167397,0.21807692183276398,0.1738106054837694
3.2498148000000002,-1.8731616036426815,1.3816239454235886,3.2073826999353856,-3.1612845015659103,0.23514962189064478,0.1749626228179333
3.289811382,-1.9842487903487869,1.4055051494358286,3.1446050548439883,-3.078116805320048,0.2620396715175343,0.17418675041787063
3.329826746,-2.1539056191165624,1.3866808960239827,3.080162979095797,-2.957397224486719,0.2749122440047748,0.16732548385214793
3.369813947,-2.2210524256152056,1.38811610938147,3.087197691751957,-2.8747211109033133,0.284271542567662,0.16634857628292685
3.409885073,-2.3689449681639667,1.3378255581713985,3.0411771836673696,-2.8188767919874573,0.31040299589554654,0.167508864729158
3.449819505,-2.4948284211400162,1.2910657342329488,3.022788409127441,-2.70789490393978,0.34916430160603174,0.16395403111267506
3.489812042,-2.566500585547105,1.2617525497038815,3.014816178068152,-2.64681150836999,0.341530256583232,0.17013281823506485
3.529832642,-2.7058084478481765,1.1743893607122216,3.026814087831501,-2.514937520780815,0.35777499386685,0.1761577667153864
3.569810798,-2.807893543478641,1.1009285048526316,3.0319993863135255,-2.4441151194865816,0.38071550454399694,0.17672891050872738
3.609871492,-2.8737505980062776,1.0326444081436539,3.0576721759740866,-2.3881371347211617,0.3797780487966575,0.18682687967421574
3.649822051,-2.9686272365411033,0.9625323514524265,3.024437249724154,-2.2925492560671996,0.37286225016240465,0.18321440275064008
3.689815706,-3.052793951682275,0.8518503178923923,3.066023239189165,-2.199924451057214,0.37495495040036786,0.1844907810595374
3.72982481,-3.086799728769262,0.7640490057757185,3.0086291457098704,-2.100136722437265,0.3920712274761311,0.19269330888257494
3.769815442,-3.146080057095652,0.6654496840108985,3.068604424872885,-2.023816231248414,0.39655678551100626,0.19120304180233186
3.809821413,-3.2128353527949502,0.5438967366399193,3.084293206198693,-1.9200565289679192,0.3770853220861807,0.1929032498068598
3.849824554,-3.241813574388178,0.4185378807479586,3.0795439773648634,-1.826114817054177,0.41428396248289195,0.1932673375016919
3.889908359,-3.281022791958818,0.29398440658680136,3.0351448236980674,-1.7333341843615628,0.4085034858223673,0.19427214212094984
3.92982742,-3.2871558748229113,0.17919806069401834,3.058034614184115,-1.6414029909743244,0.38780637273093915,0.19613648560733488
3.9698139230000002,-3.292264605919252,0.041568565871472625,3.060086350641172,-1.5519307107118672,0.39616098529727617,0.19768471858631434
4.009810211,-3.2930510721152317,-0.11428219711168475,3.1178303397566864,-1.437271996988874,0.41679873885191987,0.19330526784129673
4.049917375,-3.2890598542928955,-0.17092075679476476,3.1151265461020174,-1.355762789577277,0.44178693091701327,0.20147241879918476
4.089817985,-3.252481379850348,-0.29521698260674767,3.1241679984543067,-1.2852730557656764,0.41831903352656596,0.19675949456937586
4.129827514,-3.2221833455195488,-0.4154075421805685,3.0974618110802274,-1.1784382768468966,0.40758973228816336,0.19826693696558526
4.169889902,-3.1617886750338267,-0.5685500309815525,3.1379502498361598,-1.0749937689478661,0.43636340884119695,0.20654997463082675
4.209897194,-3.08000832445656,-0.6496661502179277,3.155543468628792,-0.9919188181543642,0.43097953880192647,0.2123437760725366
4.249813992,-3.0369680764548286,-0.7522118465271649,3.1283677496085187,-0.9044810653215856,0.4538877264616252,0.21265652800968765
4.289816002,-2.938741219383284,-0.8424769567486564,3.159087832113803,-0.8105861907783134,0.45873415632069026,0.2053693172225248
4.32981752,-2.831574403411284,-0.9773505914275075,3.1772018784955742,-0.6953569101106052,0.48924042169205567,0.20956509457067407
4.36981696,-2.7659682650369595,-1.0249341663618061,3.182958787597393,-0.6258299527750161,0.476510006160091,0.20463810811122557
4.40983198,-2.6551406198890506,-1.0961817755729943,3.204071279308259,-0.5279063107550993,0.46546322155703845,0.20728782593841769
4.449817025,-2.5473062960600563,-1.156835432798059,3.2426823300865455,-0.4578302075950377,0.4812245279516077,0.20089122629680115
4.489813565,-2.4197224150314396,-1.2237338179957253,3.245172414845731,-0.34694986631768987,0.48252370370201153,0.21270320470192466
4.529857745,-2.2829755415452215,-1.243971351057335,3.2393959570821864,-0.23422502257441336,0.47378128304581574,0.21230668904404035
4.569832402,-2.1559869389106647,-1.304333820055552,3.266567536352972,-0.1452211747096094,0.477935052157209,0.21119098981224382
4.609901557,-2.0248359537011495,-1.3173603466700037,3.2909791168752096,-0.0751881148867019,0.4919167597211169,0.20944192572068787
4.649823557,-1.87682839743717,-1.322515605530631,3.311892293459988,0.023431105955743513,0.4689719846470206,0.20118057886064808
4.689816026,-1.8067445435313476,-1.3237639855186014,3.292484923163484,0.10558010476234528,0.46091812060200343,0.19795528157646197
4.729820237,-1.6558297906619033,-1.3134500163167242,3.299127200879444,0.18700143355851934,0.46430120745714876,0.20246370080246567
4.769832377,-1.5360372797775812,-1.2762094602060128,3.322523111505713,0.2911067251423069,0.47617742748125785,0.19283918063867603
4.809832767,-1.3822761435553257,-1.2334890198367505,3.339904817021363,0.4013771551834384,0.4442311270468756,0.19568229096586032
4.849815093,-1.2606616742391994,-1.1734846059741932,3.311531308970698,0.4796929551580309,0.43784840915170814,0.194873611047072
4.889957845,-1.1537235091338456,-1.1364500870393237,3.308533383875511,0.568162547640742,0.43802702955539985,0.19390519753657856
4.929822879,-1.0678229637909027,-1.0558185084166505,3.2849486465063573,0.6370522418173313,0.40829835773969075,0.18722151410356605
4.969827592,-0.9067654925129605,-0.9695398208861558,3.282768659521966,0.7443157649050745,0.39675089497328914,0.18260738006127267
5.009821098,-0.8378499930086409,-0.8978487269039779,3.279613220197108,0.8240707201219779,0.40239308898849185,0.18652310279820183
5.049818296,-0.7404456169824418,-0.7864794961252981,3.2591677828643646,0.9123418502829896,0.40621072393716284,0.1815495310397662
5.089819018,-0.6738435188191171,-0.714631695938836,3.290895020695822,1.004563601111933,0.41734251189136273,0.15501562548545494
5.129818637,-0.6165626922940424,-0.5886021076728545,3.2849631752110233,1.0938256810602727,0.4312591854725848,0.14223079099114352
5.169812901,-0.5411872976979072,-0.47891908074385425,3.298346248803902,1.160032585836826,0.4447637482361613,0.12057846809371271
5.209828705,-0.4893021871561338,-0.3534441430158443,3.313173601011863,1.2307106485231043,0.4468428855776246,0.08104700884120052
5.249825156,-0.44040956814795906,-0.22240132233507554,3.347689641208532,1.262400657302928,0.4685245663407431,0.031023914252210134
5.289889899,-0.39724528490261224,-0.09565348985657728,3.4169098254369845,1.2873991685910724,0.49384560943427747,-0.01649594896407743
5.3298197,-0.36338449155676306,0.018128901282892525,3.4712088616099224,1.2851917399885908,0.519943089174773,-0.06148639735488963
5.369828869,-0.2998075873367228,0.19496901729799504,3.5078663128422995,1.2374818787242987,0.4780067560582002,-0.08799413038705713
5.409824895,-0.2917645710320816,0.30110095184678043,3.5538084279956115,1.2261163175068852,0.4615362390676468,-0.11453113088745473
5.449814997,-0.20194494870610938,0.41863226503212025,3.5687588715049774,1.191422969153236,0.4474935894062456,-0.13700898679102083
5.48981108,-0.13361536957295053,0.6004510349183083,3.597670969601315,1.0865478643726703,0.4391030545559062,-0.15316559804165303
5.529815367,-0.06637082963414602,0.7009139027995799,3.6037164662574344,1.0003474570257322,0.4003064302167006,-0.16652939497647906
5.569805777,-0.005287000073383384,0.7979115690968843,3.5751587926129855,0.9455204033164497,0.3898705175724818,-0.17572680630551019
5.609853159,0.06852232302298157,0.9345388753713986,3.5710439169334287,0.8639284195160373,0.3818525411962694,-0.1757491375282924
5.649822414,0.1569078533207402,1.031383449352968,3.5321462815015146,0.7810875411172659,0.36243534989070486,-0.18118115876929153
5.689826318,0.28466342066175837,1.1115498415865699,3.5502248071713174,0.6940877393319511,0.3684220166182711,-0.18655320937147596
5.729829782,0.37199832117241033,1.2311758079745556,3.5164338122741863,0.6060501761384595,0.373415838276023,-0.1861541917675384
5.769830888,0.50943961231464,1.3173317387272099,3.498541047080645,0.523833795238337,0.4032421997920321,-0.18480470695941217
5.809820438,0.6221864936970776,1.3958785210348332,3.493010896065207,0.437821732073661,0.3794275642873924,-0.18258162434930347
5.849831606,0.7358233978719031,1.4414968168762687,3.4569048842689223,0.34972660919251664,0.38349053743004474,-0.1835956159904759
5.889899812,0.8639459817761587,1.4718006471143519,3.4563577115717194,0.2581809500647308,0.3979072994390208,-0.18474616847867922
5.929819213,1.0049524514180599,1.5233118274247572,3.4341757873536354,0.16618253235954494,0.3875964547073458,-0.1861932943389521
5.969817253,1.1367255284076567,1.5498869618007065,3.4148993085030206,0.08967617701214026,0.3891120923419413,-0.18651991992585862
6.009827415,1.284054419174504,1.540408372060917,3.3994058327786303,-0.0009763959133031927,0.39635083526232856,-0.18695538846235424
6.049834719,1.4645258411464588,1.5490950936973114,3.396149539728228,-0.11803223300324721,0.40944467824172814,-0.18740241808940905
6.089870871,1.5416440289670923,1.5434316817829503,3.384363529172287,-0.18532482862010863,0.3954100529973741,-0.18650074523014581
6.129820696,1.6847915853435054,1.5067929418576929,3.3752224405329825,-0.27766207752024347,0.39509103130655565,-0.18841450822190292
6.169846379,1.8128205014726377,1.4551094570363923,3.3468518381955494,-0.3619206900110854,0.4027171547117971,-0.18239902279723527
6.209861812,1.9344124953402346,1.4237243432051054,3.368106958782319,-0.44171074836587976,0.4045122940018483,-0.18613575882337124
6.249849077,2.0617261927378423,1.3644198166773778,3.3629567613853037,-0.5255095074442486,0.3975008458515477,-0.1891138034399289
6.28983047,2.168097193697292,1.3004826664839713,3.372872436492973,-0.6128859771497948,0.4094013228027622,-0.18925542769891152
6.329828476,2.2804843602869687,1.2314912666186673,3.3477793218283365,-0.6900302113413541,0.4243185831568777,-0.19109035010337688
6.3699337830000005,2.396302494193979,1.1258651593660784,3.3533100586736495,-0.8215668099366965,0.40457405929556256,-0.19339495781183844
6.409867018,2.476231192596258,1.0319705751173855,3.3262831366295447,-0.8558100021932511,0.4054091952031855,-0.1935492710527152
6.449817451,2.573395284195606,0.9253279127015315,3.3345442105718073,-0.9701753940102237,0.41533893536403615,-0.19546406987320178
6.489833369,2.639788947697971,0.8033893525532485,3.368734082992333,-1.0715240948625393,0.4288454260377018,-0.1898044586454959
6.529883934,2.702149222463758,0.711189702629517,3.3164180525111053,-1.111826777383934,0.4145154212243384,-0.1962079910351297
6.569815763,2.747669285870402,0.5830953585109383,3.330420191583692,-1.214929594170967,0.4027839554285738,-0.19265669709383956
6.6098208540000005,2.801606414669003,0.48135678740482923,3.3361943892468577,-1.2858086773882553,0.4161070530892647,-0.19570344961892125
6.649813351,2.8486435355481396,0.3212739506627801,3.34625470177421,-1.4080085133560993,0.41321338184895867,-0.1981286492299877
6.689818791,2.8413105599067867,0.20764701382708428,3.3294084849646524,-1.4761664928555553,0.39533904202756465,-0.19927183727558484
6.729821997,2.8675028557902213,0.09245064275946535,3.3246729665635613,-1.5667975465026973,0.3958926348249147,-0.20000134213554946
6.769810359,2.860154872319424,-0.06274203474534437,3.333020132570705,-1.6589564292774572,0.40494992174958916,-0.19414873136556562
6.809832566,2.841961985137002,-0.22111994695204312,3.298416277303021,-1.752745540416888,0.3995829853979451,-0.18791094771491015
6.849841591,2.8234809078472214,-0.32664112261494865,3.2889510928394197,-1.8331281849313528,0.39062723983116127,-0.19241334644622277
6.889815395,2.794335974496571,-0.4460267890072692,3.2928289593867683,-1.9227446914858257,0.39748322844710515,-0.19708148649024304
6.929834541,2.754876297938514,-0.5822771451548148,3.2876146223636358,-1.9836911355073075,0.41785640694513543,-0.19499959810809991
6.9698924380000005,2.683459093232726,-0.7256632021085478,3.306681323098137,-2.124015198482644,0.3992709780853897,-0.19759131416104575
7.009821037,2.6357494835352413,-0.7967993859492505,3.284408205531389,-2.1926562996444257,0.3985878318494968,-0.19879247630954408
7.049821653,2.515220092400732,-0.9361711503354017,3.2714608212248426,-2.2863726670151943,0.4080902910191793,-0.20142749912510796
7.089812101,2.492972804680615,-1.0008788206402692,3.2463733564224064,-2.3404078311842973,0.4066918578372758,-0.1944198361076868
