time (sec),x position (m),y position (m),forward velocity (m/s),"heading angle (rad), from x-axis, positive is CCW",throttle (unitless; -1 to 1),steering angle (unitless; -1 to 1)
1.016500674,-0.37459811052042663,-0.081357256196528,3.5249596121522284,1.235408158186254,0.5316690720714127,-0.04392852085594564
1.056479693,-0.3044302088888198,0.08377407467737347,3.5792310685011586,1.2254284327648386,0.49381668458869565,-0.06824574973828199
1.096480183,-0.23231588892427024,0.2126266440275896,3.6229924389628976,1.222550764732894,0.46964116588296256,-0.08995963137296195
1.1364855600000001,-0.19263975161889074,0.3539832648172784,3.685708046830011,1.1879945029299426,0.4632769299795736,-0.11125558113072384
1.176480986,-0.14126552889308808,0.4837106019415459,3.6778013391095423,1.1618083746266918,0.40003506549065454,-0.12989844559227426
1.216480564,-0.07866702054214218,0.6232191214603723,3.6716535053428827,1.1035485871558175,0.3678903769203578,-0.14889358584093185
1.2564784,-0.014989111944195884,0.7652137224179587,3.7180337677677584,1.0532219861627687,0.34510680458288207,-0.16667709802492428
1.296482721,0.046663003180763774,0.8770375027647664,3.663130568120071,0.9768333909545988,0.3403382741136558,-0.18180665858642484
1.336488433,0.14690337436940978,0.9910506147324181,3.637722296484487,0.9121102969994878,0.2966214784798845,-0.1885270019736991
1.376477884,0.23504970762491967,1.1057233210453155,3.597189823468303,0.8298027472553586,0.2703581363372664,-0.19506199971461696
1.41648473,0.3543150120908923,1.214757326364624,3.5586411408982057,0.7330566136026471,0.27229863369360224,-0.19991557130113155
1.456479571,0.4644377138276335,1.3090527452359737,3.507681358060913,0.6625978301949663,0.2810992720772223,-0.20420258893593024
1.496541342,0.5567069835234504,1.400054462008406,3.4362953058471404,0.5807410220507594,0.2632940278739309,-0.20534225187747665
1.536492798,0.6758017648726254,1.465895182022264,3.425780448232065,0.4903421677455018,0.26413937498297463,-0.20902844341328328
1.576500442,0.7885038103505233,1.531573125623303,3.3716745228496485,0.4014273136833432,0.27318066353841797,-0.21351254041623358
1.61649123,0.9295981924279471,1.5769425738360956,3.3127433020469055,0.3101906242154764,0.28860088991721566,-0.2314051428596218
1.656477464,1.03076956429787,1.6017983541307985,3.276456249696895,0.2131754163792796,0.29815099850398846,-0.23293543858034027
1.696495842,1.1598395507350758,1.6250384777521365,3.2710081207917447,0.14808710098776853,0.3202814418162373,-0.2338097382558316
1.736488267,1.309642244094463,1.6648146605638188,3.1976848546359706,0.0439791610780203,0.3645585704636403,-0.23542965783201156
1.776480397,1.430190279981764,1.6531047096365732,3.217890568540183,-0.07349602438064982,0.36808640268636766,-0.23814079668175128
1.816481165,1.5475705032366958,1.6468734910815959,3.1918485503972533,-0.15263066531583136,0.39382973094798146,-0.2474407474957112
1.856478384,1.6868007345885552,1.6156038390377858,3.1854232281404418,-0.25516731244056107,0.4316605929156445,-0.24260254665219724
1.896480699,1.8104590483068697,1.5933615987544707,3.1846679241874543,-0.31732349125703946,0.44193732149492515,-0.24277467035046396
1.936479806,1.9344585794464546,1.556658090399754,3.1970768338548248,-0.4093549106447804,0.44702098004564306,-0.24452729058329667
1.976479944,2.0355701434916584,1.4718193139158469,3.174120963460802,-0.5135155719113672,0.47352726809242157,-0.24715715844260325
2.016477756,2.1492391586684296,1.4196659571587869,3.2083175625115152,-0.6040111274015398,0.49027824492839317,-0.24933214538722026
2.056486857,2.252431139905666,1.361215394086841,3.225353684624211,-0.6976637600282508,0.4903238666290719,-0.24214173385000462
2.096479924,2.3400804335225764,1.2603854646189696,3.232263447092287,-0.8112043770225911,0.49166498372205797,-0.2430591997676919
2.136488681,2.4392733883103146,1.1572439763068674,3.230693693460968,-0.8815648918010006,0.494844977665369,-0.2440183254540922
2.176505077,2.459083205161121,1.1399773088608556,3.2558509972868968,-0.9077930965568974,0.5153707753414459,-0.24457024209746078
2.216478318,2.5836815260208112,0.9630721417702572,3.2818807220077404,-1.053878090548527,0.499187442083432,-0.24001469288439525
2.256476651,2.6581748765119717,0.8295750629019393,3.2735490259899795,-1.138066496673827,0.486617098676263,-0.2407078066653699
2.296485406,2.7134802792154336,0.7103654768369522,3.3209199397206812,-1.221881004261689,0.49991758264277636,-0.26113119395652407
2.336578818,2.74342964886067,0.5913984277823242,3.295827374031052,-1.3226221134065341,0.49878901211008875,-0.24109496487344012
2.376509428,2.7646972440130257,0.4751304638300344,3.2933353306363644,-1.4280858861471166,0.4640255662168056,-0.23842154241546235
2.41648207,2.7827198587207307,0.3373285172978886,3.3058081732352003,-1.5151913869463463,0.4431783001426271,-0.23778281431121454
2.45649798,2.780350702892782,0.20231476225417816,3.2982056531571655,-1.6013445278955991,0.44997716509383,-0.2352409611051898
2.496489191,2.793646252968277,0.06192980478673034,3.284677906157442,-1.7065845534028783,0.4394696266112389,-0.23381277794092475
2.536478928,2.7929350430154676,-0.05914910982719783,3.293822602389108,-1.7732384240240677,0.4152174666075764,-0.23060166416368327
2.5765589220000003,2.7732407948551776,-0.17630859598291265,3.281507985912465,-1.8587638761230316,0.4124999065067036,-0.22931811562031806
2.616580708,2.7233330273874516,-0.33157174359019476,3.2583014317929013,-1.951132893903391,0.4183415112837037,-0.22920452905426555
2.656483815,2.6485497279292547,-0.46477901560977997,3.2589405949248125,-2.042219527242915,0.39262814656306844,-0.22702936304521854
2.696479517,2.6045992546232526,-0.5636705230844364,3.2590597490487103,-2.124361705513573,0.37138680562518184,-0.22946099346190235
2.736495051,2.5614623344887004,-0.6243035447734803,3.2384561835737014,-2.1869412411288236,0.37040197014718435,-0.2339041365587977
2.7764894250000003,2.4485836310966933,-0.7492953863308093,3.233331361742224,-2.2929909585563477,0.37652885031447847,-0.2304402314980534
2.816494376,2.3544354278628723,-0.8484613638160298,3.21595148150316,-2.38175391556395,0.3461219096253157,-0.23545836913096452
2.856476133,2.2417265525300136,-0.9556061038658885,3.179716981640936,-2.497979047552238,0.3395603586999325,-0.2454801916105888
2.896481614,2.168787245132962,-1.0079880773175955,3.151877228968795,-2.5422192940399535,0.33125004511674766,-0.2419054188501097
2.9365608,2.064076539948482,-1.0734185740640598,3.1327914523122087,-2.6456563699669737,0.33565660472076114,-0.2407813857605045
2.976479675,1.9449645362226198,-1.1511052751034554,3.1253874897890834,-2.7407527219008188,0.3227107529117,-0.23884176425479878
3.016482814,1.8251624949324816,-1.1845669187239698,3.0847479018137975,-2.843606995768556,0.32556005742033267,-0.2511791239290385
3.056582527,1.7076680220064122,-1.2267346216659,3.105727534068041,-2.920238236660506,0.3419544840431694,-0.2556179188230038
3.096574502,1.5942507164427657,-1.2328539567988386,3.065317019943794,-3.0166619344223844,0.34940488767633004,-0.2590273659073287
3.136479907,1.4694666235635112,-1.2476271414988076,3.044669800280447,-3.115124291119821,0.3508067176865187,-0.2616584801492191
3.176492685,1.3852074411305801,-1.2420862108720685,3.02563540669829,-3.1797279604971433,0.36713838857108555,-0.26338256169831314
3.216498535,1.2285699928565994,-1.231416719744684,3.0267577308209006,-3.3025654568112506,0.4017163209707681,-0.2642008573383183
3.256530049,1.102730788822655,-1.2172810276762775,3.0148912764778375,-3.413439993172434,0.41160326065432784,-0.26114839488819785
3.296477475,1.009781597677887,-1.162910232586104,3.0010427601585627,-3.511408865898434,0.4356751033813469,-0.2708372220545958
3.336483636,0.8784308262352379,-1.134126914006042,2.999625678976098,-3.6025421938600015,0.4646127133253252,-0.265164728088682
3.376472293,0.7745812736550804,-1.0771046705848728,3.0042978738966357,-3.717710767648172,0.5115500913120196,-0.26405049142727005
3.416474691,0.6745687596266833,-1.0060439804896408,3.0074502425331775,-3.8129597252377856,0.49047664642599054,-0.2531830232816528
3.45647761,0.5989298739147199,-0.9391439046795887,3.0814141367328243,-3.9153605913160754,0.4968986061226577,-0.2511912810993964
3.496477789,0.48496199911794696,-0.8492080158152939,3.07982770484198,-4.016853354871414,0.5282475927372389,-0.24685521189967602
3.53648232,0.4029588337381471,-0.7727638890726567,3.088821959728933,-4.130416223367406,0.543754044737146,-0.22538614259262163
3.576478318,0.34384726005727034,-0.6432932421315931,3.1278530100421467,-4.212423345336486,0.5584992381017267,-0.18085363009506136
3.616562105,0.27402475540622534,-0.530268726876654,3.1915251489523135,-4.28449708345233,0.5849708290843647,-0.13418517283304926
3.656478278,0.2268587148028851,-0.41758665376692417,3.266065309602802,-4.3327716434620465,0.6176755799723547,-0.08783743205990367
3.6964791310000003,0.18006369722724558,-0.3134560967502187,3.399401942706499,-4.335265723101058,0.5784382212088857,-0.04898982208048501
3.736492568,0.12061055507151065,-0.15623999319328094,3.505184109725547,-4.342441294403851,0.5599752243876167,-0.0018064651879922868
3.776479374,0.061975454309694804,-0.03383729124705971,3.5665047696449683,-4.32637110222478,0.5492774827817525,0.03496204818799893
3.8165532300000002,0.003940645055987768,0.09642134548362159,3.641294716694056,-4.274794235628984,0.524854316989384,0.0604953406117676
3.856488825,-0.024501365391014558,0.23199763278608962,3.676379564767859,-4.262508161925302,0.4444970665386532,0.07270812866454814
3.896534275,-0.1169898152305188,0.34499671306444035,3.6848807901967198,-4.205561447357533,0.40734208334047833,0.0868393505701063
3.9365383510000003,-0.18436560737652552,0.49416806125107987,3.7061386483291376,-4.177865551098978,0.3805254433978018,0.10205145049127086
3.976491898,-0.25902623865773433,0.6253898546503804,3.724743702076218,-4.130712894048815,0.37323796405270093,0.11515577104783718
4.016582024,-0.35707195824218874,0.7320404609136515,3.7374866915345275,-4.069938244887287,0.31446806229736407,0.12468811817111661
4.056480147,-0.452654275509202,0.9042249796519405,3.731723111121227,-3.9826041098791856,0.2934146517273403,0.13721907475072834
4.096526715,-0.5027561168355831,0.9646347687561888,3.704164828549337,-3.923167060063289,0.28419049697918014,0.14785210112959357
4.136497519,-0.6460350358936805,1.0732106591084267,3.661062185000713,-3.865374104224551,0.2584372017101507,0.1539175132695882
4.176530539,-0.7577616221741664,1.169383510243495,3.626303478502623,-3.7886031572944723,0.2311605543230084,0.15782177319798563
4.216477417,-0.8707509721842569,1.2508082127712703,3.5559350556982805,-3.685032677815397,0.2354208343084884,0.16986050332500244
4.256479923,-0.9819423213270851,1.3076975895882468,3.50182982742805,-3.603881001003236,0.23931602524088996,0.17480302896684363
4.296478347,-1.098939951652417,1.4185989569517703,3.435866104935595,-3.499423530087576,0.22567204983470596,0.1759204426831601
4.3364809,-1.226614069055627,1.462416783670749,3.4134013537777745,-3.4123638686085056,0.2307110897275411,0.17833169315277128
4.376483274,-1.349110233770273,1.4896294661453593,3.3482707159231926,-3.3363786725106928,0.2448832377203919,0.1804700931691865
4.416483351,-1.4816344721565549,1.5168978134521287,3.296166530073476,-3.2639172105311496,0.26047454033775536,0.1866265386105481
4.456477935,-1.5979145385631193,1.557249954189102,3.272345136323466,-3.172480881376906,0.2585033461137167,0.189483727321025
4.496524663,-1.7416348405704345,1.5561110488514847,3.184267758082809,-3.0688893570768587,0.2675030131220229,0.1934705025525602
4.536479038,-1.8496077024991808,1.5482936628667545,3.184061670317822,-2.993062416805304,0.29054925516783714,0.19678795573145602
4.576481414,-1.992849445090771,1.520180628105884,3.1330470057403508,-2.90262355414439,0.3026617188804582,0.19982221218309107
4.616578508,-2.123026856717526,1.4893938140815113,3.120458535716396,-2.8134197743454656,0.30980346255503155,0.20370608778089105
4.6565347,-2.2508479375685084,1.4428083061431891,3.0806979380701778,-2.730034563143071,0.31848411723089676,0.20900854306849573
4.696579216,-2.33214507581936,1.407322090221354,3.070391632138086,-2.6492479464475753,0.34981848795417103,0.21415540112735404
4.736478881,-2.458695903887373,1.351290464722201,3.0650349282388016,-2.566714004930282,0.352339486124124,0.21939726420102126
4.776480186,-2.5435540532182186,1.287120743180395,3.042100118030814,-2.4843636534220725,0.3609821766949842,0.21805337133013739
4.81656115,-2.6451646766346264,1.2087298477744968,3.0434904245191436,-2.3984437926329103,0.3870348243346061,0.22968577368204307
4.856479624,-2.75453971485705,1.1325575519319315,3.0472200690489153,-2.298061564437243,0.40901455832131445,0.2331649217930088
4.896480181,-2.8179292598678902,1.0584589728325853,3.0391097271055028,-2.210194138795917,0.40778292197618254,0.2308623514525118
4.936479177,-2.891218717772964,0.9321751761787958,3.066266566214491,-2.1179720544606724,0.41690599633314734,0.23376485746044945
4.976479012,-2.9551702772815145,0.8434888757274446,3.054411596242328,-2.0038922445638825,0.4344402004757519,0.23518677862907386
5.016500135,-2.999265465551466,0.7297517674019545,3.088070913463821,-1.9016566760422446,0.4610357515427646,0.23380587556823257
5.05649772,-3.025174858783342,0.6173704346261166,3.08006652319102,-1.822467677144654,0.4602005243818247,0.231351247678651
5.096482228,-3.082580016506883,0.4863041989628698,3.098666692962371,-1.7088466305136087,0.47651947162465635,0.2282292063616231
5.136498311,-3.1039630166298733,0.37491492033437446,3.0739051530949824,-1.6248660767205163,0.4927473583415067,0.22580390857143753
5.1764848820000005,-3.0956854123071356,0.27940164638039183,3.1272821585986135,-1.5675813945706025,0.49754234378828815,0.22168483672123995
5.216483412,-3.1312372490501055,0.10379391277942943,3.132532495304854,-1.4593836501024173,0.49501093718789424,0.2189378035232119
5.256494281,-3.1015621718873208,0.006079635361039713,3.17387807637451,-1.348873158192006,0.507203619890461,0.21852204127326022
5.296494655,-3.0668270759579515,-0.13977665529469016,3.1664390603274937,-1.2474294567488935,0.5203476931956924,0.2200359374896146
5.336487741,-3.036441584493922,-0.2465760447802575,3.156208605669346,-1.1572939830503552,0.5058528173310909,0.21033370220140063
5.376480738,-3.002370650624646,-0.3529799089470364,3.170232720986178,-1.0471728442346986,0.494257461463268,0.20711156414483212
5.416586103,-2.9226190231965,-0.4942352099050937,3.1918851975286775,-0.9880770579970761,0.5160376422506513,0.20439893016917188
5.456564832,-2.88152705394331,-0.5931971571533141,3.2192655640922676,-0.8931019123537,0.5084164534483823,0.19491039618001388
5.496489806,-2.7852443723764337,-0.7005610044404389,3.2391124691904896,-0.8177268609404268,0.4881087700197621,0.19458194313022428
5.536481303,-2.673980320954031,-0.7849357055100116,3.2527503605160604,-0.7169529943104573,0.4662183752922148,0.19576553270025418
5.57654703,-2.610156133365629,-0.8951857284380946,3.2543543897575695,-0.64970890306047,0.4672828462008834,0.19811021944265278
5.61647897,-2.5079588576271847,-0.9666423504323931,3.2612830965290414,-0.5608322921815861,0.44928412246466404,0.19328214922451195
5.656481778,-2.399803046699517,-1.0387895904386473,3.242867249141367,-0.49981159754744425,0.42136772981629306,0.19438113000377613
5.69648674,-2.2872045843848037,-1.1031132862637127,3.2445324505608526,-0.40702791806379146,0.4125069164610142,0.19690728113352032
5.736534795,-2.1700934502990714,-1.1504873224637728,3.2195152330257124,-0.30885125878452163,0.40924936971695763,0.20164998839342932
5.7764802,-2.043486146197305,-1.2090392682077684,3.2043565748960634,-0.2568438801477978,0.38357472406387894,0.20264931492603402
5.81647964,-1.9114515461555668,-1.2374072341650946,3.204398334683854,-0.1501614327290711,0.37394333196256124,0.20499912158906614
5.856491573,-1.7787663072286701,-1.261853355001171,3.2114898756720436,-0.06558986305529323,0.3789938359156393,0.20635184492167066
5.896479699,-1.6699572330341395,-1.2550009931553077,3.1419731368513286,0.03424503972449107,0.36386222865968626,0.20798711092517302
5.936503377,-1.5360735569813537,-1.262626257567048,3.1341168024956607,0.1163263029134658,0.34247399498056263,0.20931391105035232
5.976476942,-1.4212523637363763,-1.2298509026401214,3.1411291776143653,0.2080748547964679,0.3387004089239356,0.20978593403897405
6.016479562,-1.2952916306626667,-1.1997952284984603,3.0848588620955604,0.3175657060795406,0.3583068271846493,0.21154412480454451
6.056478018,-1.183566008521213,-1.1856980607723375,3.083036859088528,0.4166903234542812,0.34427338144566993,0.21296583499326632
6.096478518,-1.0546377991680562,-1.138132212990593,3.0676721690660673,0.4973950681242423,0.3370479339085814,0.21353019477700938
6.136488968,-0.9591684379685399,-1.075277470963472,3.0147002765961166,0.5931460918666732,0.3636797562997273,0.21519298913215068
6.176483833,-0.8518876384911617,-0.9909288526058464,3.021286913610082,0.6553036990892656,0.37846077359996144,0.21181276326563112
6.216480484,-0.7665560248507916,-0.9422220669253979,3.022158347561589,0.7547444034796987,0.3880139778832316,0.2081609275613085
6.256569073,-0.6633994327623514,-0.8577357578181578,3.015238523306155,0.8568406135924168,0.41439796823903047,0.20449633912730739
6.296570578,-0.5888467830507258,-0.7747225964265048,3.0154267171159623,0.9330719775241498,0.4360839088784096,0.20117158561022908
6.336582038,-0.5241539365426446,-0.6731664837401098,3.046426025104479,1.0209595866973704,0.46945458419161656,0.17921357690103454
6.376496486,-0.44876923192140755,-0.5570193331097939,3.1105242232044317,1.0705573947077414,0.5113316277543279,0.13009407057099887
6.416564189,-0.40072566100197654,-0.4540607385832424,3.2015689626291914,1.1217998839007173,0.5617480168634076,0.08135394590465131
6.45658196,-0.32842240784658155,-0.3207923266328894,3.2998123620237,1.1524865266405668,0.6012053994577138,0.034463657696681846
6.496481528,-0.2623614278560421,-0.22919628784180857,3.3795322532197325,1.1602057903479313,0.568625705702291,0.005107918800065789
6.536480165,-0.21670071434794755,-0.11197624346657609,3.4581385759290977,1.139888109808883,0.5485007743834945,-0.02921599075108749
6.576483693,-0.1576101938523982,0.042277770691882884,3.566142768963543,1.1601093651461547,0.5344055876294326,-0.0563246114487512
6.616574161,-0.08227038600181982,0.16074285438306474,3.5815990691017685,1.1430544539310967,0.5274992483064337,-0.08091539779188858
6.656479503,-0.02200311042244732,0.2972769081867073,3.640161229619237,1.127021307405872,0.454605431379185,-0.09671967620308858
6.696494545,0.033261648968550425,0.4065565398061146,3.6527041347471143,1.08275889962316,0.41342737842094707,-0.11825931559255838
6.736562711,0.11648045729090657,0.5479979945939645,3.6845128214084433,1.0615755274799994,0.3967716727389893,-0.139174223995632
6.776590599,0.1443518889861511,0.6532081724386767,3.677694712050769,1.0163533152338424,0.3462799202858683,-0.15659070945380318
6.816478765,0.264457134590723,0.8047034669428023,3.6429897926119303,0.9494959493127407,0.3134771231849195,-0.1720697596610658
6.856482089,0.3512654836620089,0.9150665138609511,3.6234449418624144,0.8736885000114921,0.29014250372529077,-0.18492615775116927
6.896482997,0.4056181076079716,0.9969719271678864,3.6025060196925747,0.7912805936026226,0.2909723770861584,-0.19636150922670015
6.936481795,0.5446765378385051,1.1176477071216777,3.562025614658574,0.7017461035721567,0.2654141597259345,-0.19439297169118408
6.976479582,0.6539698262438548,1.197682825124877,3.4843901019734265,0.6291332497748368,0.24936857765647255,-0.2003079170441703
7.016478621,0.7690644405170486,1.276610668693391,3.4476687250134854,0.5209257253796477,0.24658789253056665,-0.211614821369162
7.056559367,0.8915169703874746,1.3528923545774956,3.428013219078424,0.4513500808129849,0.25801082110400364,-0.2100033764468692
7.096481422,1.003644093171618,1.415416539736995,3.346462575883811,0.3513666711940194,0.2581956280781115,-0.21684210133256965
7.136486689,1.1424625041219545,1.4529166881959648,3.290533887465755,0.2705684612312,0.26726156663640616,-0.22101945414785631
