time (sec),x position (m),y position (m),forward velocity (m/s),"heading angle (rad), from x-axis, positive is CCW",throttle (unitless; -1 to 1),steering angle (unitless; -1 to 1)
1.00676376,-0.9231402531950804,0.3897054953078071,3.453412202195183,2.490072921883712,0.29404320884687457,0.16293125978421363
1.046791523,-1.065912367269936,0.5032305060909859,3.3938064792628553,2.606343692415924,0.2692057450060594,0.16837857882115567
1.086744871,-1.1667732451225732,0.5501282610033263,3.369980480154441,2.6905808134811195,0.26477251625753584,0.17168058090889066
1.126742226,-1.2742793032279907,0.5769451764202859,3.304593136557066,2.7589715652250995,0.2551262912498999,0.17388150683377274
1.166746772,-1.4252053002177445,0.6570424677143392,3.285041276184239,2.879681532353162,0.24060607100809814,0.1646579307009385
1.206772344,-1.5183821423633275,0.6824648531657986,3.2373250640731364,2.9449490650905585,0.23339980686558495,0.16572652936558357
1.246761079,-1.6364454652805414,0.7059665942697757,3.181824566526965,3.0307849486404224,0.2433402528686794,0.17342149057467146
1.286741024,-1.7588221306195455,0.7223174643221569,3.170412357918666,3.1073196797581493,0.2562721219281291,0.16831277208582987
1.326754244,-1.8939342643306283,0.7232478705544709,3.1034305364130215,3.2181600369499996,0.2463479820297964,0.17036752507758765
1.366750856,-2.0067602133882905,0.7146807536780033,3.097769481534657,3.282943549451781,0.2514795548389547,0.17401524708875105
1.4067426950000002,-2.1330501021493844,0.689635907403949,3.0270758951264587,3.378068471470901,0.2561026314238457,0.1782711679259053
1.446756373,-2.255619913819026,0.6562400642878478,2.9660694865762487,3.474332763839681,0.17411008899495328,0.19701905513161672
1.486765021,-2.3593239554495247,0.6403233614443505,2.895429630967283,3.5629492737688704,0.09230541962711891,0.2207117222563019
1.5267454169999999,-2.4560778024113743,0.562968394264328,2.8372335168608283,3.670810771519457,0.05096918358097964,0.25384411237704974
1.566747525,-2.570344385344434,0.5185167176850958,2.748565956024661,3.7768104859211147,0.05461863140789922,0.2897309545010473
1.60674143,-2.6552493012276357,0.45986827113055984,2.63403883120719,3.890985754768746,0.16497128669037833,0.24184099915549687
1.646820627,-2.7154041172516856,0.3848733118223969,2.6388645033550655,4.0086706425514524,0.23622694915275522,0.22290277287829385
1.6867479090000002,-2.783304980079398,0.27858669858742113,2.613543077741507,4.14095542729608,0.31102678644467185,0.20055614562941715
1.72673781,-2.8551815649079164,0.1961243176105481,2.643306188658755,4.210630544140405,0.4013262534090804,0.17618030057915712
1.766757045,-2.908876478200969,0.12288106715032818,2.6732444215603164,4.265505853124006,0.37233643189273263,0.18094372012571666
1.806741776,-2.9401951161283333,0.022062370217612374,2.692814470317402,4.346693217324767,0.3676231224281045,0.1769562831129243
1.846751676,-2.9601540660202614,-0.08570307201667707,2.751979539716893,4.427371454837943,0.36767862333934,0.18402026699326385
1.8867444180000001,-3.0021281985014436,-0.20274208587953907,2.746843824518042,4.508346559399417,0.3623696935427676,0.19955752880085703
1.926743347,-3.005878005888185,-0.3337148732954407,2.7492702368632282,4.578310283100758,0.34438849987872505,0.20985170013775736
1.966755063,-3.0145536207255574,-0.41362806617616604,2.774812994852057,4.67367519017434,0.33342310014337634,0.21724251074999526
2.006837175,-3.0248075336416207,-0.538517386851844,2.79041067070714,4.75742923514975,0.35113763500225437,0.22527217219305828
2.046761853,-3.0050904734592425,-0.6510664511869512,2.8101536648740075,4.855547470493514,0.35489153986905686,0.22325312073854212
2.086744599,-2.9810339981141434,-0.75370937247926,2.850800421619272,4.950220736103709,0.34447720033898965,0.22901610560941732
2.126755244,-2.948237154322275,-0.8613870971588832,2.8487943999563394,5.061340010679441,0.35651579161664126,0.23625348999967424
2.16674518,-2.904722882829214,-0.9440888327575923,2.879829430391632,5.167508183184282,0.38555377028947463,0.2407575191518389
2.206744404,-2.8590239264520334,-1.0796662468417761,2.8592320239504585,5.255121860401471,0.3630675869879121,0.24477574149274273
2.246756842,-2.769242523830712,-1.1715413726444863,2.857827898511789,5.373814093741144,0.3847575950272783,0.24214558741760006
2.2867868270000002,-2.723320382911528,-1.2373227133008142,2.8308888433164796,5.469259531816836,0.40312159081547855,0.23991365612694948
2.326746038,-2.6432435136337236,-1.3309130859785916,2.888087888987057,5.566371376404506,0.42133316307220176,0.2315591886348931
2.366744377,-2.555034271475475,-1.411917751249493,2.899667427059996,5.667343121866154,0.43181894078997957,0.2317149353335255
2.406749469,-2.4399723318358175,-1.466991601544882,2.953638318285209,5.746688787964583,0.4608247332156308,0.23179106501252608
2.446753052,-2.354094465713277,-1.5312120553923025,2.958392879119523,5.855050959809474,0.47497245900919133,0.2306420224931236
2.486820709,-2.195196864915043,-1.5844562346024165,2.9932844131799388,5.9600908626262115,0.47263408191750317,0.22532548579110592
2.526846665,-2.1123045466971684,-1.6065799132821776,3.034332337022602,6.0384623240501805,0.4692832629699893,0.22243178568628402
2.566749025,-1.9958625755850028,-1.6343708204559007,3.0893719981533887,6.148499744241671,0.48485827631826384,0.22045938040591162
2.606741712,-1.8516138611408275,-1.658608652476522,3.105843008235974,6.218134899703485,0.4781326848973639,0.2081428177445948
2.646750815,-1.7582320204119577,-1.6502132099462676,3.1485825746927483,6.3310945235591705,0.4720626187256194,0.2117401099971159
2.6867441579999998,-1.6433972591664765,-1.6540141715246588,3.1507026281527324,6.418333679755661,0.46610733419768385,0.2084759566911143
2.72673896,-1.442586355593559,-1.617660963876965,3.195865079465464,6.522904403056899,0.4802431013391407,0.205822141523072
2.7667401270000003,-1.3444604677584466,-1.5801675388963081,3.2400222619909242,6.582584877438442,0.45897442502892966,0.20157245879350777
2.8067927360000002,-1.271181473735888,-1.541119142184586,3.253486965402862,6.6533581885919375,0.447879070033287,0.19935090555439247
2.846754072,-1.1348757283475017,-1.4891065736924989,3.2654998053738495,6.761123930191104,0.43511414167972073,0.19128161856261422
2.886824873,-1.019780594871531,-1.4365430642427834,3.268173982517537,6.851807377428387,0.4413847303283737,0.19028487376669675
2.9268137970000003,-0.912210995529164,-1.3769093112097104,3.3134183940896973,6.928309980122467,0.40899904033368567,0.19461420074782754
2.966745877,-0.789390116252022,-1.258774153774203,3.2919975684399394,7.023680636095933,0.3990327781430618,0.19271794128137798
3.006837562,-0.694557084002819,-1.181246085323297,3.281076451355978,7.117603083866909,0.40790395387550527,0.19105714602141208
3.046758716,-0.6133909933078514,-1.115987658956867,3.3070584018228915,7.196014520674066,0.3837056370732848,0.1844262645547215
3.086746178,-0.5539486715422244,-0.9906615156654222,3.268059604997819,7.289562887790764,0.37350990747984264,0.16871264643037948
3.126878705,-0.47898864152590404,-0.8851682652090345,3.239393058250478,7.384679319653016,0.38253128963088057,0.16734888986190766
3.166749543,-0.4013053798657609,-0.7509403492481216,3.246369724518843,7.473858609234195,0.38728709984165965,0.1590689673823838
3.206767476,-0.3553808535817804,-0.66929398049014,3.2627978517693337,7.533984956590696,0.4034722440124648,0.10504931793038198
3.246757624,-0.31364573120077555,-0.5428376998986898,3.2864071634351206,7.571344130062439,0.4307135836110765,0.051815871856191006
3.286749214,-0.27388610683009246,-0.40031639459067825,3.3164288689348442,7.598222467087668,0.45278968445673834,-0.0007807756564097954
3.3268230450000003,-0.23868919416935205,-0.2774344146655344,3.3853161607240287,7.601994554495686,0.4485425963824759,-0.04349181225465555
3.366764416,-0.20474246078068015,-0.15040889295623114,3.4176141660946655,7.575756878409443,0.440861244163902,-0.08251116056386992
3.406745859,-0.16541041401746187,-0.011192769419605866,3.450666172135428,7.526482481564124,0.4290850997697303,-0.11064172691231454
3.446755937,-0.10674812491231891,0.11148303273349802,3.47622256671895,7.486270901793601,0.4207451812920406,-0.13198035130536243
3.4867458300000003,-0.05780966344284229,0.2601999754345011,3.5105366229135906,7.408772897055412,0.38589325314795897,-0.1488703370229693
3.526826331,0.0015806600459109155,0.3737673051074745,3.4886659961800004,7.341808537862565,0.36128632300677,-0.1618060017523699
3.566760584,0.0391804144721753,0.5024114724945921,3.4909260686400225,7.2714095147730715,0.35438983155004883,-0.1708223989296023
3.606839856,0.1445956285904704,0.635238792466629,3.464059111934678,7.208883931106685,0.34989912685443453,-0.17306984324243574
3.646758122,0.24076450937182337,0.716552828953325,3.466620627233626,7.097050538554977,0.33903333220661963,-0.17847802548303676
3.686757006,0.3546767932814446,0.8460605005186898,3.4737305236625073,6.9943860021744575,0.33395380086653687,-0.1824528233036058
3.726739227,0.458698911949566,0.9440743772168342,3.419954775847971,6.921194830755573,0.35609350194193856,-0.18436973680136517
3.766742249,0.5350482162736885,1.0040438310151736,3.37770714491373,6.858930313924623,0.35605492835598296,-0.17629172224471168
3.806750037,0.6558242668192554,1.0706889692733903,3.3917990896149113,6.76679409892837,0.3442409145595308,-0.17158233176843843
3.846758653,0.7575949889691295,1.139437352299167,3.3589192851039202,6.674030070862242,0.3534910226679426,-0.17452079662803102
3.886753588,0.884539584444436,1.1833206349187537,3.360129796564474,6.582631762627532,0.382060929794113,-0.18436416004551162
3.9267804120000003,1.0225204084784145,1.2396968406189726,3.3569913842735186,6.515963747366858,0.36975920655653033,-0.17539981146318273
3.966764284,1.1683057754326422,1.2610344521059464,3.3492342243208233,6.427826693836465,0.36421666648627676,-0.17841127588537936
4.006742189,1.280953353034664,1.2696198090774131,3.348268100711884,6.338616379843057,0.36597494275632103,-0.18137868935236015
4.046753976,1.409140800098899,1.281656085838389,3.342659691899855,6.245592384438509,0.38200444211491946,-0.18500921363436745
4.086752345,1.5555622632837027,1.2864471443470977,3.3071059054607614,6.168152311896741,0.35709863818646276,-0.18615535065955438
4.126751197,1.6757041283121947,1.2778329655332674,3.275036934235099,6.086642597534502,0.34781058883880567,-0.18772178300402664
4.166789769,1.800087115094129,1.224176103331328,3.2644654964336906,5.995952325575546,0.35302358948685636,-0.1879990302456821
4.206750748,1.9513724221457747,1.2104765617281665,3.284098136612561,5.888300029348148,0.3809806685761183,-0.18734702751780424
4.246767374,2.0376220821633213,1.155815434070138,3.2694171360359263,5.815785033589908,0.3508404436175236,-0.17739372919730081
4.286742862,2.197771007588657,1.086853752975326,3.2588028316759603,5.736352732011086,0.3423292781737714,-0.18197832920208581
4.326755852,2.2757472916009367,1.0137324856408998,3.234939729801778,5.641203853466162,0.34980582861389525,-0.18517497303807193
4.366750081,2.4212962002530873,0.9197233529724866,3.223989841849313,5.52196415809975,0.342711400855261,-0.18484788880284175
4.406738552,2.5062003487849163,0.8355395539564955,3.2136038194222882,5.452224352516942,0.3338757792101979,-0.18711754609892373
4.446754545,2.5709021293997054,0.7610371259589658,3.19483523499394,5.394895825930324,0.3307823323665812,-0.1906301780864521
4.486746141,2.6442724954561827,0.653278758946526,3.1998194949182657,5.293269588807125,0.33665471602271746,-0.189418918862313
4.526894928,2.709093567112791,0.5618354372702418,3.183583592688242,5.23159895180127,0.3283299360485904,-0.1849326316405874
4.566749034,2.7762874310139067,0.4450821411924204,3.162015394461543,5.125521165663361,0.32727845120646687,-0.19696504894968583
4.606778317,2.8454412132556453,0.32517680509194813,3.1296913403746496,5.023326586538877,0.3280951029367878,-0.2027770769384666
4.646746592,2.8661673765143747,0.16285538094803895,3.118731197171302,4.93420069893699,0.34344312855997594,-0.2084686740144715
4.686738365,2.901719164440298,0.06468053267862223,3.1128649106750266,4.815465597355686,0.333165731660984,-0.21021290403528986
4.726738587,2.898645268959912,-0.07857210980983924,3.0985108736455795,4.746732269435305,0.3381215341383467,-0.2105978216666028
4.766752972,2.913540611966273,-0.17943060003961184,3.10057602150862,4.657640405858459,0.34448170530513555,-0.20283304223985305
4.806818768,2.903660853345274,-0.32426525650615307,3.0823507472420126,4.556120164610732,0.3608687218136987,-0.19743933675387057
4.846746452,2.873801039233474,-0.4419150611011698,3.0783078649646036,4.456069533888797,0.35095887630101874,-0.2006676518709102
4.886744946,2.861947714489415,-0.5362446036751298,3.0989151969507147,4.39290696493862,0.3585157237327058,-0.2097995665857772
4.9267450440000005,2.7960563719744154,-0.6386569878777725,3.0863032399708565,4.301686293794797,0.37367721144005045,-0.20650127674585114
4.966744579,2.751611165531248,-0.7519240845538537,3.097735522059828,4.202381918727948,0.3813731838676055,-0.197633151240725
5.006741179,2.694168547535139,-0.8957291017787532,3.0863164469376128,4.1044926907563495,0.3719984368627965,-0.2088102975375003
5.046756664,2.6266913219986465,-0.9784026123581131,3.063924928394894,4.03060218935113,0.380813684855845,-0.2119363390515452
5.086758085,2.5402650020231916,-1.072646721198136,3.0902174621806773,3.9266823276474945,0.39845757164580264,-0.21516596489594494
5.126752815,2.4597265018877126,-1.1516590285066115,3.1017767642611216,3.845458954296661,0.3938146670225416,-0.20504044436436925
5.166764343,2.3612673384047307,-1.2347704737714256,3.1032901583361916,3.780130448478104,0.40002460408330276,-0.21216121359568352
5.206758242,2.2687633526386626,-1.2849320425779172,3.088085332849103,3.679230651807852,0.402566040648584,-0.21249928941697455
5.246751479,2.1472649411281703,-1.3379047222059568,3.1265654551383246,3.5738000335363225,0.41702340098401663,-0.2136867112446815
5.286749304,2.011876773034486,-1.40765717389079,3.1231047762386677,3.4597265014402,0.40768448065522894,-0.20724779408759764
5.326853084,1.9151155469111047,-1.4382244899684988,3.143880962126182,3.3836443416965927,0.40374118565650907,-0.20882132722997826
5.36675492,1.7945832025577741,-1.4771151751551321,3.1255778156526857,3.2770011376012933,0.4082057690095381,-0.20918350382354298
5.406768244,1.6582511304951941,-1.4931940802729318,3.134771013742354,3.1904193653993365,0.40877243882777053,-0.20272153496038353
5.446757018,1.5384739333221469,-1.498629460733927,3.1516109301598147,3.1076834176752564,0.3948970148056078,-0.20771261010928332
5.486834386,1.416176747833725,-1.4898818907436808,3.1432564411159327,3.0184819100766322,0.39765810744716934,-0.20452541471822394
5.526774022,1.3120034941846828,-1.4850933742644903,3.133788244782171,2.9180096917600937,0.40177659384876624,-0.20286900590731824
5.566778835,1.1376618948814303,-1.4380924984431027,3.1655056988328196,2.803010670768791,0.3888130073714533,-0.19860505583562132
5.606743074,1.0114017609135297,-1.3943262465418178,3.1858939754457207,2.7283951085182783,0.38083709991986814,-0.19744443505104717
5.646761345,0.9373207127417768,-1.3679323932565686,3.1722166405029433,2.656354740843845,0.38345610761822874,-0.1971958873359903
5.686771958,0.8175640868014312,-1.3083670319046545,3.1640048610646843,2.577396373246548,0.3688343223433981,-0.19715175798471773
5.726737213,0.6873896316316449,-1.21665527942329,3.1568176312005707,2.473982333918287,0.35176451630319366,-0.19741311681682547
5.766749587,0.617736351734888,-1.1312039241698733,3.138413513878778,2.399145721579039,0.3515371787286865,-0.20426356405163124
5.806757284,0.5366238985748122,-1.0730889792464235,3.1411412245448367,2.302574893368454,0.35649525365403467,-0.20435262511042054
5.8467549850000005,0.440245797995977,-0.9582246786839599,3.136954614643396,2.2031639350467263,0.3709382010774044,-0.1967626366543424
5.886794488,0.3607078796861534,-0.8690800161970993,3.170042834832154,2.1350228760879237,0.39284693682597815,-0.17123969787297705
5.926806507,0.2991925500237944,-0.7758355871322369,3.1876290725192598,2.053387718201708,0.4117845177828831,-0.14536660362523568
5.966747382,0.2413823021377161,-0.6558106196583356,3.2370220937306518,2.002323717175423,0.4297338812051637,-0.11949081599534322
6.006759423,0.17251664849748188,-0.5217405499352347,3.2671500742678137,1.9660805363154652,0.42665294762193146,-0.07920632951476383
6.046754182,0.13716582207943415,-0.39927356688434357,3.3631653183128907,1.9294943968861453,0.43318633245474986,-0.032328653922299416
6.086746446,0.08642728014770004,-0.2690711292385436,3.447970465002208,1.955657791836546,0.4414023794375489,0.011971026731979546
6.126761996,0.04245100944315207,-0.15711847521217703,3.4826375361199116,1.9657131925184865,0.42545391952055484,0.043610171236098276
6.166752943,-0.04178768168688925,-0.03446644652670655,3.521772766752168,1.9918197731145786,0.38828016076962446,0.072418763506541
6.206741827,-0.09699357220069811,0.11011354965538281,3.553522753887739,2.0399632433522292,0.3634009479538085,0.09437495257747386
6.246760921,-0.15068039289050075,0.22692673700586288,3.5844407283124213,2.0656486700951397,0.3527267733519201,0.11267278930719582
6.286758138,-0.22462550593602904,0.3545037634948871,3.618537972271155,2.1182475898229094,0.32317954780486924,0.1231867394064069
6.326750762,-0.3255024044890618,0.46540535308175784,3.5896377803225494,2.186242826013869,0.28935092006192736,0.13786652820629822
6.3667449860000005,-0.38184213756923124,0.5993036239597984,3.609007464546206,2.2611045956968594,0.27171117052746235,0.15001115083389052
6.406738409,-0.4906276898173023,0.6866957520179946,3.5634857073951327,2.37354687057913,0.2669580266236323,0.15946015602582342
6.446791101,-0.58876132272552,0.7847961732971496,3.507118157856651,2.449244926523387,0.2525928859789042,0.15909348543835478
6.486743774,-0.6695508552020963,0.8951672971146729,3.4872331521546673,2.5274913136828006,0.2335085796348219,0.1646863027096339
6.526820071,-0.8170875569584984,0.9670857656346443,3.4333506125885593,2.6060362870070133,0.24371348002402315,0.1673698603765075
6.566743365,-0.9320616836945778,1.0518073338767866,3.41734212188399,2.725254683607676,0.2704710856813587,0.16879115019436616
6.606745698,-1.0710652769605824,1.0945170688344805,3.375508486772391,2.823466972246695,0.24905966688086226,0.16586139210032214
6.64679964,-1.1632426905955298,1.1354961293501786,3.2604936448495563,2.917573722445453,0.2628376420602533,0.16476686020577017
6.686834096,-1.2945595031708443,1.18573695920571,3.249711316208858,2.9732504476924375,0.2787210584573671,0.16287296103537455
6.72674078,-1.4541245533161886,1.1988636485025606,3.208621479552047,3.106501176948621,0.28527869790049304,0.1616217414702149
6.766743162,-1.5938083111386465,1.2232468242974754,3.1719121904852385,3.20038203993851,0.3011466485804617,0.16061351321596137
6.80675951,-1.6899223931429823,1.207450718864966,3.1621502195257443,3.255168075941702,0.31135743901225343,0.16075315284441444
6.846761752,-1.8048543128164931,1.1784719454458925,3.143822152318868,3.3512691497854687,0.3330941000367086,0.15523709334802788
6.886739052,-1.967047577733118,1.162529220745792,3.124501945733943,3.4476363917159696,0.3182869104925853,0.1511505055832849
6.926785077,-2.0834900134723155,1.1128493859278843,3.1075410547055506,3.5354937604845302,0.3179014519399313,0.1610010533390745
6.966748483,-2.1732124926968694,1.0836779546162325,3.1023716343626155,3.6055354480546034,0.3252148168630819,0.16489021600632758
7.006746275,-2.2710328185569906,1.0181454618837575,3.0725141160487324,3.660786845570974,0.3442739956824803,0.16220639820437602
7.046747137,-2.395852567027811,0.9430432170929987,3.076624026603761,3.7975357029974566,0.3130488530917923,0.15394499116875213
7.086762627,-2.4837770654123568,0.8878455748716703,3.0913033212984953,3.8436089196087435,0.3145232860229558,0.16692743029197452
7.12675806,-2.574715521335903,0.8170935485055153,3.0459707938770655,3.9158243315461974,0.32098817988674166,0.1740801981394219
7.166750641,-2.6542416080403646,0.7247939081770641,3.019974293269301,4.00389128250207,0.31552063733439456,0.17025102163393518
