time (sec),x position (m),y position (m),forward velocity (m/s),"heading angle (rad), from x-axis, positive is CCW",throttle (unitless; -1 to 1),steering angle (unitless; -1 to 1)
1.007776285,-0.08985628571186671,0.1561877164313037,3.2676854345451796,1.0464763088237763,0.6232091293607706,-0.18542303034251595
1.047826529,0.0062596982493199746,0.294451246027289,3.335940891530596,0.964263670391511,0.541297850950967,-0.17050980024160106
1.087771363,0.09267188952009431,0.4123377666739647,3.3932399222196743,0.9156330994034919,0.4694784594306571,-0.1853693982768032
1.127865915,0.16468460132365115,0.5009414026357581,3.4206281918913,0.8441891053256108,0.4437823779217668,-0.2042795788567108
1.167824425,0.2712985378771022,0.5896052322489307,3.428950922302284,0.7926415120202469,0.38616827552119737,-0.22572014268633372
1.207774859,0.3815246380945299,0.6816613789543398,3.4446611237027485,0.713707687208492,0.34924380206268785,-0.23199896577072948
1.247789054,0.4844493589785928,0.7702774564020998,3.4304838429504256,0.6327860601307386,0.32765360662980997,-0.23753600625591917
1.2878930450000001,0.5906072891792712,0.8631330630934848,3.3953581992706137,0.5424048370861618,0.31706569106747434,-0.24343735000778907
1.327769424,0.7364659001898112,0.9423268509781679,3.329710148149469,0.422848174397859,0.28453974040347424,-0.2590248929029931
1.3678716180000001,0.8226771798362138,0.9732744442719586,3.3246952923515103,0.3352806327450839,0.2867658223152525,-0.2571070127989225
1.407881522,0.9362444753399267,1.020914785053277,3.2538232028291234,0.21212454611386722,0.2999728889682149,-0.25311494114337957
1.447837788,1.0777012494966922,1.0528218871625656,3.208862124680834,0.1274175618671724,0.30555881961929127,-0.24619371926593647
1.4878694160000001,1.1771395897982546,1.0754402480664365,3.1486050877639506,0.0013754207037320679,0.3082018909654775,-0.25171936747981727
1.527778503,1.3137859735892576,1.0650715549142702,3.110209690759779,-0.04347583937342142,0.3395377235673978,-0.24956116591601377
1.567772978,1.4440435656023316,1.0602090517556588,3.0898665202954345,-0.17765635359680598,0.3556288662487364,-0.2480001526306455
1.607848063,1.5749752820346008,1.0266466899459028,3.045495147163224,-0.2578738446689153,0.36714099371327674,-0.24666472183079122
1.6477956360000001,1.7125778496794342,0.9914395658674292,3.0226770881800125,-0.3363945355555927,0.3838720237905496,-0.24790997878249052
1.687875285,1.8083836170107317,0.9633971240421595,3.0504170461173583,-0.42066424293894294,0.41340491531335816,-0.24915305892720008
1.7277739900000002,1.9143554345545095,0.8959730665396382,3.0587220298609616,-0.5179739803831992,0.41042994102413566,-0.24915042926400816
1.767855843,2.0448044757638724,0.8406805178521528,3.0603480753389483,-0.6183853956377572,0.4122170364576916,-0.2506990291592403
1.80792123,2.1555273532628223,0.7372445166811369,3.055699625717981,-0.7054702208007575,0.41861803176330126,-0.2515137019280347
1.847866014,2.2196469358462116,0.65120703371191,3.065635679167185,-0.82235822360177,0.4448482207506937,-0.25177705884877316
1.887787356,2.285312594209264,0.5934594880384904,3.0883540163643937,-0.8912886732127218,0.40870429243571416,-0.25166736029166054
1.927780413,2.3687299933891794,0.4998359723150429,3.061482505250946,-0.9826304860261851,0.39976289867294507,-0.24494182609793405
1.967789714,2.413921092271113,0.3801755557234333,3.0646712157767433,-1.0879289885726946,0.4104224332493799,-0.24420761728221205
2.007846399,2.4607368595110843,0.2771194664035422,3.073717623904108,-1.1548024264070278,0.3884459827394349,-0.25167036778991164
2.047793008,2.5107244380833675,0.14474833625044387,3.0613757643882127,-1.2632015074689429,0.38604400921498055,-0.24961187437393204
2.087878883,2.5472209917253763,0.0555006728818255,3.0572491459189823,-1.359486541185941,0.383838022831049,-0.25058444817414777
2.127773797,2.5648478758611586,-0.06047360971057939,3.0769895001802796,-1.4087652922522516,0.39978999630063605,-0.25073673818024966
2.167769107,2.5755097399791373,-0.20667156978728013,3.042273832314164,-1.5152994936453825,0.3693910540253556,-0.24683623802401036
2.207765797,2.5896614368526967,-0.31377681243258393,3.0597628066430747,-1.6083642258253779,0.3580345251296195,-0.24896099300016786
2.247763002,2.5707127628898037,-0.4632994328075654,3.040935782119693,-1.7026989782243085,0.3595468882135113,-0.25235992199772617
2.287785163,2.5486963771523525,-0.5772579999356706,3.0215824032221796,-1.8028557493494561,0.3598646961021395,-0.2502475342827453
2.32777231,2.5055015884457323,-0.6981042396741649,3.036807318406788,-1.875206681764824,0.3383306155142133,-0.2541266149797993
2.367797493,2.4860664553681073,-0.797797317013871,2.9978821058840723,-2.002354971477168,0.33568761775887446,-0.25666071838214516
2.407878215,2.4356444463473466,-0.9048387709232346,3.0080406322255238,-2.0822146622815287,0.34567896018985345,-0.25840414850755966
2.447888686,2.3487228544841736,-0.9903931692377926,2.9659372683344682,-2.1680228847842145,0.3350144442018515,-0.25677750602601196
2.487784999,2.285997961563191,-1.0867350854699178,2.9405632968363395,-2.2594935543808132,0.33026169094540214,-0.25808776768673475
2.527788994,2.203537985582462,-1.1979046653273957,2.926726598135835,-2.3556955053538626,0.3305424746712057,-0.2621670013864574
2.56789679,2.1119791200842597,-1.2647360325124095,2.9242709337506265,-2.4468808899081638,0.35442388168077044,-0.26509556547835517
2.6077717700000003,2.0346790442108875,-1.3412940904587356,2.9110640311756817,-2.5717306623980054,0.3420775353757336,-0.26659762820489336
2.647769275,1.9146888981600958,-1.4023184454997852,2.902811023288229,-2.668398505137654,0.34222827394452265,-0.2692000928893443
2.687895536,1.8336303598125117,-1.4466284226403079,2.891941105332188,-2.7255887305467477,0.35319463824130065,-0.2719784954269461
2.727772867,1.7176457266001899,-1.4667918527808692,2.874282698488331,-2.8461773152042844,0.3693317366706835,-0.2708465512848668
2.767772025,1.596704529028163,-1.5222904575827505,2.883813155436676,-2.931970236749915,0.36609250172362173,-0.26675646208981685
2.807774354,1.515485731793628,-1.5112717074217845,2.8936713595757335,-2.998609009636282,0.3823367000471803,-0.27854634840529063
2.847776444,1.3361576501186292,-1.5439578760367962,2.8942327325687893,-3.1345961545289107,0.4062256632961573,-0.28181294769154036
2.887772965,1.2683878308183785,-1.524537071063435,2.92518339812803,-3.2046303173998685,0.4520181078327282,-0.28291686761713025
2.927785428,1.1479256018765909,-1.5096067171569925,2.9056868140309473,-3.299679263322476,0.436351087310733,-0.28866148785735857
2.967799112,1.0557326449272997,-1.4804769044971102,2.924145632546333,-3.4208149070754583,0.4588402856468357,-0.27385301224870484
3.007812382,0.8952508109458772,-1.4272010198666318,2.95451296488055,-3.527815072774508,0.487393258271971,-0.2815242021003337
3.047771842,0.8300739245995201,-1.420752037443134,2.9574933170631166,-3.6021764240784484,0.49223450186132295,-0.27795061817163225
3.087771119,0.7080602033322958,-1.357319408804217,2.9683591213890543,-3.7328338327212145,0.4985390178806663,-0.27464817688251053
3.127772299,0.5708052333211344,-1.2621206908789213,3.0027529026014106,-3.8510665267188537,0.5111060542673949,-0.2615527355771234
3.167804255,0.517808938108871,-1.1927657584046076,2.9971737991257164,-3.9380896237689793,0.5477333713760223,-0.262478407068739
3.207774034,0.41862143533080043,-1.0989569326935396,3.0420258601366115,-4.0772099343496055,0.5415987227225492,-0.2384155458768207
3.247789018,0.3640087857693405,-1.0428343781169331,3.0976695363738997,-4.14485498387824,0.5475789815985164,-0.20947182881651447
3.287770891,0.27606419404119015,-0.8806645835422894,3.1388731784870756,-4.248540878136613,0.5722627803421789,-0.19717445844146156
3.327771323,0.23079879616870025,-0.8076654294685498,3.1473058211444176,-4.296246824599689,0.5601873065004506,-0.1522226819703755
3.367792615,0.17677584132070653,-0.6692496932868615,3.260680055428251,-4.333062331318571,0.5608959019000014,-0.10539503726727713
3.407797003,0.13418871863929843,-0.5680358445260483,3.3619148244676835,-4.370131663062259,0.5570385013184125,-0.045251660630397296
3.4477897950000003,0.08321751045857141,-0.43587933061887113,3.449356604822172,-4.353934777201694,0.5844272524973959,-0.003709006502348232
3.48777087,0.006156465374824434,-0.26506406908017016,3.5347729920234863,-4.320312907334866,0.5217636322987138,0.03211554242271426
3.527776083,-0.04883096495355999,-0.14110447183395552,3.5587589983587846,-4.301605525718525,0.47826261291032607,0.05928410868170916
3.567773522,-0.08645962395925845,-0.05405770953175631,3.5962889822294377,-4.279810294041831,0.44665763846902656,0.07608496547295758
3.607838679,-0.15989900004348842,0.12700141081207347,3.628126106455987,-4.215211386643055,0.41890290361963034,0.08933976667690693
3.647789349,-0.2333070143225562,0.2409488819812253,3.657459228566586,-4.167163745713213,0.3583192374788981,0.09542657357853954
3.68776918,-0.30415954505956366,0.3746728083719864,3.6590917078056164,-4.111123864281297,0.34117740900104554,0.11416556804876639
3.727769351,-0.39825500937649905,0.498410349966865,3.6641936466410954,-4.073521160579409,0.31991918327438884,0.12660530870956793
3.767897205,-0.45837987364604815,0.588869904924068,3.6532402049517887,-4.018520348871421,0.28187814402733796,0.1436624982312256
3.807867892,-0.5645751381720698,0.6910661588829845,3.619124333834159,-3.977276751559208,0.2628829208639522,0.15304388141590305
3.847856522,-0.6586967250686355,0.7812118998384104,3.5995478441209703,-3.8891130270671064,0.25361915454958583,0.16066037929626734
3.887879657,-0.7702214953292188,0.912508919108828,3.54156423845115,-3.778054825810964,0.2581830579056549,0.17192018572603796
3.927769821,-0.8798423842453598,0.9750950814603925,3.486323485980635,-3.721018077571146,0.23034228220375658,0.17436668414354378
3.967789844,-0.9892618168627694,1.0448915831612602,3.4632898077615017,-3.603430568541817,0.214414347797019,0.17955393863398691
4.007796414,-1.1024816515540148,1.1371625139043935,3.3983531287842017,-3.5247974933784634,0.22505339467873073,0.18248601862580288
4.047868278,-1.206369603607364,1.1753884406753867,3.327636890557769,-3.4171076849607727,0.24203758914061413,0.18589695604733383
4.087797415,-1.3549837866805021,1.221257567299921,3.2991079955909863,-3.3319580079154574,0.22611074486117017,0.1844263255634725
4.127768744,-1.4987518306552023,1.239470583480718,3.2102641607689972,-3.237646622372822,0.23544443096733747,0.18706288452381864
4.167894632,-1.600049104576999,1.2729038277819917,3.1722723025346142,-3.16913270463416,0.2541918148705766,0.18992148362962497
4.207874691,-1.7476548169212673,1.2705115089940704,3.166213785089191,-3.096286383855152,0.2686520387412389,0.18963360417097996
4.247774922,-1.8504751483115185,1.267939839171599,3.102985688267428,-2.983901050052857,0.27021197722441037,0.18766347603805467
4.2877704770000005,-1.9790169690145203,1.2448056233087867,3.0701449679825603,-2.9025628678550572,0.2822977309455394,0.19949967854585912
4.32780447,-2.106008924988832,1.216571556660941,3.0325350533655437,-2.81245919989352,0.2951435238962216,0.20550354520912706
4.367895378,-2.2100905738564336,1.1814373178583257,3.0057231967054863,-2.712621418803439,0.3075180777609203,0.20701805898924563
4.407790434,-2.3178683456998894,1.114239272544438,2.9441728682805888,-2.6320717484074145,0.30708891503657904,0.21133688675185996
4.447843926,-2.4293076625410492,1.0803883587800167,2.9500150496122686,-2.537691476739983,0.32492008396450167,0.21471317297125464
4.48778443,-2.503341827654103,1.0243542716385334,2.9700590493720243,-2.46329673022308,0.3513678437162959,0.21776143582641197
4.527802916,-2.5960911766976142,0.9292324808695582,2.941626064277206,-2.366428654631243,0.36603145097801165,0.21812722717203448
4.56777011,-2.688287048144366,0.834473336619127,2.935398915070456,-2.276020349478049,0.35892652055082114,0.22261726257870781
4.607892369,-2.7565472664721065,0.7597545248531892,2.9358841095922616,-2.1595869607715588,0.38046420362188443,0.23380406800947462
4.647775072,-2.8179919972034497,0.6711993761374091,2.9156786472777463,-2.073435552584991,0.4127235709028676,0.23090875377180736
4.687775417,-2.891015032126841,0.5636139894572515,2.9305845442878438,-1.9948353412847963,0.3956951640344848,0.22661347829808806
4.727795204,-2.9214131832995966,0.45314555670996937,2.9183373600833713,-1.8813224615575592,0.4039357698592433,0.2279568868144671
4.767890204,-2.968401633089879,0.3418812098640301,2.949175797364897,-1.8233654666511805,0.42586766511642765,0.22927509874262877
4.807772074,-2.9894843600627867,0.21206077644478835,2.9755449004862937,-1.6909823943191322,0.43464124127406667,0.22080469772024605
4.847781679,-3.0166569177317943,0.10084484967706075,2.9701743084465417,-1.6235997944757432,0.43454170306575696,0.2220435259649521
4.887774369,-3.0202156393546535,0.006371264447746768,2.9750996093575592,-1.5357407452746537,0.4364680364328371,0.22407437724955892
4.927774086,-3.003717615148495,-0.11814306963422876,3.003441720451985,-1.4282791612417756,0.44378751300707026,0.2179578166643653
4.967774206,-2.994072980065431,-0.24632096544492743,2.990825443237213,-1.3385796446578258,0.45381146413477497,0.22273702612573312
5.00776873,-2.947778051550376,-0.4011679715408282,3.0249494676884714,-1.2221032675631365,0.4478685521237514,0.22022633738901293
5.047848163,-2.930264220027079,-0.49645206408979864,3.0237873448288584,-1.1715098546944747,0.4508262888534783,0.2188338441943804
5.08788987,-2.872352396749589,-0.596696595724766,3.0393836158319596,-1.074288673331245,0.47904406141051575,0.2161406212722491
5.127787212,-2.820202598226701,-0.7058365854184409,3.0884449471309394,-0.9716831778506879,0.444982916351615,0.206324747319725
5.167800238,-2.7732727653888136,-0.8136530056250546,3.0311401201353565,-0.86633290957394,0.4484549601482674,0.21290222877888343
5.207862858,-2.6869315902182556,-0.9046106237644823,3.0661790104421494,-0.7828210709072186,0.45014030989242826,0.21030262755400814
5.247897762,-2.5861198559569587,-0.9959511136056366,3.0785761440209893,-0.6972062617006121,0.4368253032148829,0.2022225668772563
5.287785768,-2.4921551597763645,-1.0631864741886372,3.0955672449705696,-0.613099023815963,0.436540115983302,0.20223655018518935
5.327783485,-2.3755241373656815,-1.1577186981094132,3.085260758534712,-0.5038030605957174,0.4237212944487923,0.2034534552258198
5.36777464,-2.314349831120549,-1.2024490267755308,3.06603415676681,-0.46218783426036864,0.4375710085249939,0.20561360983108587
5.407868352,-2.202218962558949,-1.2628025405088583,3.0945136328893534,-0.359949215077995,0.4161285472342608,0.20091114982000424
5.447807525,-2.060754273254713,-1.2838738651338684,3.0941892551991224,-0.2750275885704561,0.392066789541126,0.1977281363997303
5.487770844,-1.9640635180424286,-1.351228971765847,3.058595332000546,-0.18600085599602395,0.4029313787881759,0.20728933073287328
5.527797666,-1.8270354660386001,-1.3712442486393317,3.0830555202796663,-0.10055961563720187,0.40941011465887167,0.2101024584405236
5.567773606,-1.720061230492129,-1.3813862802745946,3.0906023784529424,-0.004082602591759922,0.3860602253359599,0.205670727349397
5.607800522,-1.6018232797596919,-1.3619223842694264,3.063326252946805,0.07487394343479457,0.3792501162057157,0.20778169891822065
5.647786506,-1.4679902608110518,-1.3723936441906173,3.0772466028616225,0.18577449757016004,0.3821568063554686,0.20970196537782268
5.687901984,-1.4162851372502878,-1.3382576155182944,3.0474139069649264,0.2207088073126886,0.3778156399192614,0.20672266254559007
5.7277814,-1.2883741194280525,-1.343107352442467,3.0546679147582014,0.300701025036394,0.37062201733500916,0.20958233503968018
5.76779241,-1.1084251460915222,-1.2817001257106555,3.0141320486532073,0.4558946304884022,0.36460243181421037,0.2110366586823822
5.807793753,-1.01928090786025,-1.22607794783156,3.0092876327552847,0.5681782045366485,0.38841037167228065,0.22732448335638572
5.84777127,-0.9618742645479315,-1.2090946521170975,3.0004064833060804,0.5743454675262926,0.41345409868596383,0.22852896067073755
5.887771076,-0.8062474336854033,-1.0978574532704435,2.9895478820628627,0.7091186997743798,0.3858477972117369,0.19298015735296428
5.92782098,-0.7062647814226009,-1.011723590494346,3.010005228184818,0.7890720374355795,0.3849640913686036,0.20088150311206698
5.967782087,-0.659399745991985,-0.9428231658681487,2.9890945478423054,0.8544820316814151,0.4067247141548772,0.2300529226379103
6.007781456,-0.5389011223303459,-0.8142373140332652,2.9942349938304207,0.9884155490380803,0.43046502247085233,0.20503018968989004
6.047775962,-0.48274766624752186,-0.7320279346834344,3.0533438087205913,1.058953763486269,0.4620129752273727,0.16480654465439673
6.087793812,-0.4133827191543592,-0.6281888479782907,3.0720299031765625,1.1342959272594983,0.5033644612403202,0.13099055105280433
6.127773094,-0.37965405952571174,-0.5139571689515395,3.08987574829106,1.2019668675676947,0.5320039218561811,0.08246672237914787
6.167773155,-0.3189901169019147,-0.3384625701029808,3.2161903641508305,1.2427182645404662,0.5210452315632218,0.04089787385704533
6.207770995,-0.2623462086938734,-0.2736615841516458,3.2439004496187462,1.2510257467072468,0.5336723977189111,-0.009951589056399653
6.247773249,-0.22853961210808166,-0.13961625687267948,3.3249752909691264,1.2458930369555392,0.5428392398694433,-0.05309086750146001
6.28777202,-0.20907872195824737,-0.019169112863744318,3.405286025830709,1.2083989655858907,0.49882258827759957,-0.07880358859627402
6.327859371,-0.14281520116450522,0.0685288917331591,3.4451940212743133,1.22093531471952,0.4794165748458517,-0.10184342176231378
6.3677795249999996,-0.09809324520443669,0.24965010766599427,3.4969276944623253,1.1988663620082924,0.45106886929973045,-0.12398056070496374
6.407773391,-0.029534653545004338,0.3603685798601408,3.5292443474655144,1.158073799079008,0.42325818572852764,-0.14522897726357223
6.447789802,0.047568230932377165,0.5023220213111068,3.5339963098748446,1.0932550184032244,0.3901271797716785,-0.16006165642304668
6.4877775,0.11306523673258197,0.6404629794623801,3.52370712009489,1.007098880255666,0.3505580667481372,-0.17714165405976728
6.527773949,0.1773618270413124,0.7497041943578122,3.5232253205383524,0.9498360546574172,0.32784264088400705,-0.19280999838863663
6.567877457,0.25336853169017065,0.855400623072793,3.517867500939182,0.890287553094504,0.32449831955427405,-0.2020415345414858
6.607868427,0.3508762134841751,0.9603671180213817,3.492684323039532,0.7935626132667717,0.29148704208768833,-0.19878300115437245
6.647794585,0.441452677325613,1.063130124727663,3.4288916505530467,0.7301523980443954,0.2816465580578107,-0.21012765568563221
6.687868764,0.5842338072165332,1.153323036207897,3.383359686223527,0.6179009125499367,0.2780330817976507,-0.21509576219647766
6.727802282,0.6603097176397031,1.211009102766217,3.3470445331712932,0.5682093612977084,0.2880646836803972,-0.22048447056207426
6.767773882,0.7751948332693203,1.2940665161347948,3.3097781762921215,0.46215417299151473,0.2863363902321452,-0.21910110214159054
6.807778438,0.8855552378502436,1.3476739776184183,3.2740351819892948,0.37551484767541493,0.2803065578422589,-0.21831132496313022
6.847768715,1.0161022268570497,1.3936329345496874,3.248319258165265,0.2960292021116492,0.29658070550811677,-0.23028530410898715
6.887806286,1.137769713873907,1.427098403894095,3.202728775308486,0.2050673692152831,0.32580922904051773,-0.23086169608782306
6.927790765,1.2720190846772348,1.4378804987129545,3.171241126985485,0.09598720735676845,0.32667029523758173,-0.2350973309162601
6.967775625,1.3915061590312197,1.4546360579328117,3.155756115208155,-0.0038276882897472966,0.3416727855534377,-0.23939752973349437
7.007796243,1.506048034852147,1.4328624290563678,3.136031369910778,-0.0910694431624146,0.37103277938831253,-0.24262507127984298
7.047773386,1.6015292403863413,1.4536438837453143,3.1293959640095608,-0.14267799719154636,0.38400374462690834,-0.2390034705569938
7.087784674,1.7650778407518817,1.4208227266166347,3.123776774294621,-0.2735796022535828,0.3902551018777383,-0.2414481282853597
