time (sec),x position (m),y position (m),forward velocity (m/s),"heading angle (rad), from x-axis, positive is CCW",throttle (unitless; -1 to 1),steering angle (unitless; -1 to 1)
1.012578307,0.7953722714492201,-1.3645506077944276,3.2750857500869395,2.2457752292296744,0.7067805013709508,-0.1658710278761907
1.05256398,0.7215045919988636,-1.2744691998776518,3.3722390100255075,2.216874941473691,0.6689046914478718,-0.12215486459789396
1.092571901,0.63335044845479,-1.1607779430366851,3.5616958360050957,2.174749146406033,0.6591690037326171,-0.07446548101523753
1.132569007,0.5548066619739153,-1.0663790539083793,3.661353257430686,2.1690997119557984,0.6490884968476233,-0.03324979856636909
1.172572224,0.47084906481537386,-0.912668845789641,3.7517299988625177,2.1662936452931203,0.6201184417487677,-0.007764585823710456
1.212567557,0.40513563481904075,-0.8188197905196379,3.8254518583449864,2.168836246376134,0.5521630908619442,0.024557388813263737
1.252570248,0.2763303090303142,-0.6451329767279744,3.916548145132164,2.1917053239334994,0.5312264369352945,0.04665630526077248
1.292579219,0.2044497633274706,-0.5147118198694065,3.961564427132486,2.2198125857087927,0.4968764428479173,0.0650376598558181
1.332624847,0.08393345116742439,-0.396336678217559,4.019414433119516,2.254272952253838,0.44765915973624476,0.07569535810888157
1.372571221,-0.0009272914353755761,-0.27960529153140945,4.026537450530939,2.2898193595082343,0.38798615928029306,0.09148408555871823
1.412590114,-0.135879011758157,-0.15900519515359152,4.0472004165296696,2.3504455934584856,0.3525262084172572,0.10549212553018354
1.452570797,-0.2126891198913883,-0.08288372701067043,4.004038985129407,2.407525157932642,0.3122931567920662,0.11945129523775527
1.492569509,-0.3599665526336349,0.06646129010238336,3.965306280525289,2.4810949827072517,0.2698386310483466,0.12846617358571247
1.532563965,-0.4459680011103505,0.11982885607886119,3.970159817177371,2.526553005899688,0.24765425560833706,0.13531952731657548
1.572573603,-0.5688875717394062,0.23307938445787482,3.9235318749645858,2.6424643988249654,0.2408802308937669,0.14389353840346736
1.612583595,-0.6925295693176133,0.28523120384135364,3.8655765924320464,2.6880254117403384,0.2121555420498306,0.14031277809503845
1.652568466,-0.9205253438135441,0.40261836420642844,3.7354585475601576,2.843529996022798,0.19160346800811268,0.14640540831740523
1.692567084,-1.071811917493453,0.4538335089694748,3.6740398613358054,2.9430695379540266,0.18647712075868791,0.14623164803990946
1.732587142,-1.1690077594441857,0.48066599373442814,3.6141966267756973,3.045297221263863,0.20183703604248301,0.1510786606649854
1.772588452,-1.3114210915074993,0.5036776074249801,3.552504352950147,3.100520900135084,0.2005020581502926,0.11931999085287762
1.8125663840000001,-1.4355508963754886,0.5028742390237766,3.4667663679994667,3.177211166285583,0.1949953651628453,0.12147531186540673
1.85257844,-1.5324089214087508,0.5270607841299001,3.39659401060713,3.254537946453492,0.20462599349601907,0.13303003257958368
1.8925754160000001,-1.7119666708519368,0.49754846246007906,3.342673023306179,3.355648525793162,0.23273401419017414,0.14028986391826984
1.93256923,-1.854249001771888,0.4892907794385163,3.281905150774605,3.4159107445669905,0.2235060295881113,0.13865765079536066
1.972568069,-2.01800931339732,0.4467581696800294,3.2310564276124123,3.5180399340632618,0.22131218801614522,0.15201960181573496
2.012573691,-2.1015627411616635,0.41997275397073097,3.1910138734770754,3.561791065779283,0.23408813797424918,0.15582123622043234
2.052647095,-2.211105388096931,0.3646683939681035,3.123536836953178,3.6719207102104674,0.2587299294291085,0.16606868018526832
2.092582486,-2.3094857938625912,0.27723388137564703,3.1258271788629517,3.7423232474602166,0.23579845653085038,0.1594016314744759
2.13256888,-2.4084618862031055,0.23285043002985711,3.047214928468916,3.8512162881403533,0.23644866368696418,0.17498334048469455
2.172586082,-2.4774985535022034,0.15964087965480103,3.01603519943362,3.9061099635952745,0.25492997587858846,0.18432068051576703
2.212565383,-2.5503942658642083,0.07926124426511394,3.015953328750347,3.9858658186344598,0.2798181696833676,0.19299311548838746
2.252568309,-2.639406043888872,-0.01610422406846501,2.995442028235202,4.088619629612467,0.2629654153454152,0.19361437087836608
2.292587268,-2.7101518118669063,-0.10670001347596368,2.9274648285514737,4.2064097502284845,0.27467660554702233,0.20578953253609653
2.332657845,-2.783429442478308,-0.24148976059705052,2.9057503591546303,4.312103888189275,0.28924939860526727,0.21100598878216112
2.372573998,-2.840605710359686,-0.35086122867387043,2.892981833887922,4.412400668131012,0.29526074909498307,0.2117791494260297
2.412577528,-2.8590350103773767,-0.47734976381495925,2.8641784725940638,4.534441074089392,0.3028782615708317,0.21423220945344246
2.4526452560000003,-2.8796497409429773,-0.5719200554164594,2.8492211477578997,4.626172157880571,0.3197036833901241,0.20870765432454616
2.492574589,-2.8781999223616848,-0.690812603426039,2.855158624633153,4.701904365128573,0.34903666651800797,0.2109232378674086
2.532575049,-2.8924856931806224,-0.8254263621131062,2.8312620766933874,4.829987025710442,0.351542729249975,0.20948191870615276
2.572569386,-2.8791446230498927,-0.9012975420963157,2.8076640813656386,4.89266651730448,0.35655506295582556,0.2153622903918984
2.61256697,-2.8649044595591144,-1.0261485511593254,2.859478118054433,4.999258636340631,0.3761135103830327,0.22011765763513189
2.652567291,-2.8220592940564364,-1.0821181200946879,2.8833797349392682,5.052871824466574,0.4137201562726737,0.21812288862099002
2.692574797,-2.7740063376831334,-1.2319957882067327,2.8472979928976208,5.166170233890423,0.4165453744144919,0.22656114628871163
2.732581188,-2.706496677176516,-1.3240731861425497,2.8718943580796585,5.289088230879784,0.4140741356880668,0.22939198983664957
2.772567891,-2.6618942081592887,-1.4345768666573409,2.9092801854424377,5.3739967665615715,0.43642355332420285,0.23896922989171748
2.8125907640000003,-2.5673212499512803,-1.526460003358974,2.9569505598516375,5.480487650999493,0.457731724868817,0.2341643034903816
2.852660789,-2.4951823230519645,-1.592171599534182,2.935240342059759,5.578516990594089,0.4641506905374055,0.23291252543103047
2.892585075,-2.397113697802229,-1.6936309472912692,3.0010049860431494,5.668202544644883,0.46873692786594834,0.2317445006945738
2.932615898,-2.2961028694416843,-1.753195427920847,3.03166033184048,5.744839886980692,0.49196177211119113,0.22918489585974236
2.972574838,-2.1815872229158204,-1.783411638104521,3.060168128854319,5.878128383977375,0.4886205104248636,0.22842236631518095
3.012586664,-2.07738110043897,-1.8392069670284892,3.107341531857788,5.967218406658961,0.4875026833882763,0.2253636311362349
3.052648934,-1.9831874195396424,-1.8586413661614187,3.1284082354468072,6.0058841829723955,0.5054091367281621,0.22196935791066102
3.092584505,-1.8367864586177318,-1.8945807591859212,3.1615748678802325,6.164731346819873,0.5025636512582401,0.22066174590220847
3.132569775,-1.742918300445525,-1.915789962206931,3.169907184223578,6.241945751354528,0.4950793746293232,0.2174562499599024
3.172637844,-1.5769423250519823,-1.9312177299671505,3.179890824139979,6.351001192917349,0.5078764858420458,0.22221152008112935
3.212632735,-1.4610506078034866,-1.9190474328127638,3.234719125174487,6.446734377598814,0.5118504661753102,0.2106466469778178
3.252567906,-1.3298059110597333,-1.9042626682781072,3.230482936817901,6.533390703764451,0.49537017463091226,0.21215597646205772
3.292580953,-1.2354004065742363,-1.86544171738494,3.231211779427225,6.600734057952815,0.4936500502675019,0.2000442391335444
3.332567365,-1.0861249149795293,-1.8263080540796832,3.2827298775813665,6.698283296771395,0.489829302045833,0.19588787304839508
3.372576674,-0.9746076273927118,-1.7726051410071384,3.2886914815667887,6.80358205674874,0.5092218960941608,0.19172545357951112
3.412569141,-0.8432675146696635,-1.6912257999673352,3.2995799592662047,6.911033528636038,0.47596976955641707,0.19468453823463877
3.452580876,-0.7538468695026035,-1.6478330673631618,3.312876543962316,6.9671265322688445,0.46648782271298866,0.18514583808744908
3.492616918,-0.6277840250292461,-1.5117042667647131,3.3167028422849505,7.0510254047007,0.4746769932563027,0.18363541378993217
3.5325594650000003,-0.5455358263820879,-1.4236532172935579,3.3593294944197387,7.159220952830609,0.45717240101124335,0.1834825399989782
3.572567886,-0.4643018209092475,-1.3214230106970122,3.3586318560299078,7.256566982668787,0.4526046550365782,0.18677185621912015
3.612566144,-0.38655606577625756,-1.2103008462791964,3.3307015276685754,7.344156055190304,0.4451886139309654,0.1778185340483061
3.652573025,-0.32477013337425226,-1.128090079447859,3.354270076266723,7.407018652928186,0.4467981150318625,0.1710563538311508
3.692572876,-0.2436304085149594,-0.9968944902598063,3.3934366635691937,7.5070363798966895,0.47092179072864293,0.11894032752686029
3.732585604,-0.1908462284314777,-0.86150240836513,3.4205937360471905,7.547118447361022,0.5035493632819816,0.06784914360157258
3.772567794,-0.15625501741582304,-0.7045514762290666,3.506765161021776,7.550722384584722,0.5398562251103922,0.02591575292488609
3.812630068,-0.11636754265225338,-0.5515377947395289,3.5848966161860565,7.548308133577927,0.5150982624863212,-0.017903615684105027
3.8526069620000003,-0.07636800306281731,-0.4782838725478225,3.585725255072163,7.555442549193371,0.5097063142304935,-0.05338665190812162
3.892573071,-0.03667886150617099,-0.3049902095460427,3.6368383591082507,7.528936699085905,0.4878678410175157,-0.08117070565371941
3.93258569,0.023400372767583517,-0.18362814442697098,3.6953911419651333,7.50640948886911,0.451744563442529,-0.10028784136328561
3.972582169,0.08206328781435285,-0.049874139962862274,3.725363010987004,7.4405134617871465,0.44312147006214675,-0.12148215712222929
4.012565686,0.1378435685273111,0.09275735122126037,3.732229288208564,7.392649663608251,0.4099555708568659,-0.13643357603777403
4.052562673,0.1937167878751506,0.23471651998076956,3.7040620947210927,7.323331097673587,0.391029761369901,-0.1487726781311555
4.092580913,0.28143760249261174,0.36456320272964315,3.724684783947836,7.254042229443391,0.3586375255751783,-0.15863094938466285
4.132569912,0.3526960418431262,0.47231674797374634,3.680235383675658,7.18079278458978,0.3431376131452941,-0.16662268449079867
4.172573051,0.46043649717670765,0.5895401434858275,3.657695442411708,7.099252229308975,0.3415092857203966,-0.17103841299989714
4.212582075,0.5360063008839284,0.6892620257322994,3.6544362991365884,7.010631040619553,0.3407690491607621,-0.17396895266894863
4.2525707090000004,0.6273992150710638,0.7901185495671884,3.615627433087156,6.945129423645587,0.32283679656841185,-0.17242821681264056
4.292570256,0.735543033621635,0.8687256954962721,3.5621600894185907,6.884214136206465,0.32208574066821855,-0.1747586581986342
4.332567196,0.8599675458827879,0.9489628998264504,3.556434934545927,6.788610765221776,0.318070408895545,-0.17748286723851217
4.372656009,1.0081440028162034,1.0299964704721905,3.511026587856924,6.694788290206862,0.3515692650853289,-0.1850459547915549
4.412580471,1.135790640792129,1.095443147321104,3.4626705587568503,6.5803519030076645,0.32194407636298106,-0.1847191487777887
4.452664175,1.2665831386577722,1.1325270548068467,3.445863576708791,6.498164873430243,0.3189158118494801,-0.18882223978762505
4.49261121,1.4168886834061134,1.1679998259289028,3.398685763651637,6.412729902998736,0.3336775524769655,-0.18554038420011842
4.532669618,1.5293315167348616,1.1815991636912582,3.3845858576568078,6.3376839132630245,0.33400296014787256,-0.1880080839036139
4.572575421,1.6354068998654288,1.2002048532170801,3.3548658176761395,6.26005363168691,0.3307742973041327,-0.19032448439390326
4.612663022,1.8399701073180983,1.1963746818101317,3.3109906140118186,6.131318023112537,0.3379037032642915,-0.1942681041838575
4.652567407,1.8965943851877591,1.1805825740021196,3.3108561344050433,6.080732520980823,0.3532630359260168,-0.19670116917906466
4.692583564,2.0552796234997595,1.155103848207465,3.2730568299176697,5.9766608755925965,0.3525819068391833,-0.19869386587678733
4.732571759,2.151998861996303,1.108251620451752,3.2614974075367082,5.90660640291892,0.3475365993455725,-0.1884690630346377
4.772574177,2.306764961991195,1.0359675391970573,3.270815354852658,5.813028654837881,0.3658670692061821,-0.20659539246938605
4.812569481,2.3824904018152084,1.0001622440431517,3.2253674133563104,5.7468770505032545,0.3953679945813152,-0.20415100099687525
4.852648999,2.5316336140293445,0.9039040438462732,3.2171418963441587,5.6200860156691475,0.3771078893712409,-0.21345350950590894
4.892574657,2.615486856042312,0.8452573589979716,3.1965012664817096,5.534959676372046,0.37405041739603984,-0.20901884542025373
4.93256692,2.7295148709933614,0.7643413212266834,3.211407366519101,5.453678118831089,0.4028500594138597,-0.2179433419579905
4.972577385,2.77246130610864,0.662651864477912,3.221811251109032,5.384574282123847,0.3993119803475956,-0.21011484957463505
5.012566916,2.8735307143343736,0.5398328676913831,3.184113762847915,5.2500859443664725,0.39223219472342513,-0.2131203852234738
5.052653318,2.9422911613677596,0.45076977760792325,3.193151849372015,5.147198033968445,0.39580364986218347,-0.21638000479607922
5.092615589,2.992231839566832,0.32460581171865355,3.1970265457824163,5.07299521048441,0.4220122960051038,-0.22473393802783243
5.132572859,3.0105592581636222,0.22277125906222955,3.2149469863728677,5.0206917705789085,0.41418720707104734,-0.21187068217365002
5.1725720410000005,3.0743136897408374,0.0976363919407037,3.198552806859038,4.916982149564217,0.4093765642086507,-0.21349765591089573
5.212575006,3.1093082968312715,-0.012980738117737745,3.177528218728467,4.827572477358085,0.4273923263227962,-0.21445213241055136
5.252579824,3.0948869727071533,-0.16409480897657241,3.1989890371886767,4.698448011026519,0.4543143070190059,-0.22337017707608076
5.292574395,3.1064717070157846,-0.3058427832456854,3.213257401492386,4.61984020364409,0.4347168245279352,-0.218034977651328
5.332576104,3.0742799503789606,-0.429595662747924,3.2470776717628484,4.529136481515881,0.441059133309431,-0.21935595564638988
5.372564264,3.0703840433110208,-0.5596331261025961,3.249931515559786,4.421028934256244,0.44539971231789,-0.21460357826422888
5.412620847,3.0376012578147678,-0.6174732682821921,3.2770489767402515,4.395731858744515,0.4650437845212403,-0.2164706465363947
5.452572518,2.995484782304249,-0.7799724984248315,3.2622599598679938,4.277016631474485,0.428815740653664,-0.21266319679059412
5.492570283,2.8990530496405693,-0.9406927048428932,3.27504337037866,4.1475386771289084,0.43621407644456356,-0.21393487960497595
5.532565407,2.855509798018396,-1.0180116087390008,3.260308262478435,4.0652903102946425,0.45974294604275495,-0.2276736150739984
5.572570151,2.788293950682506,-1.1090659344910343,3.2710596141043697,3.9922288677614697,0.4510269421661063,-0.21877516680514078
5.612583258,2.6758922753232235,-1.2467026449239558,3.3044615196123224,3.8727829186226117,0.4358479955974485,-0.20904502602061306
5.652567304,2.5743147280746386,-1.3348670489266898,3.2952463158578285,3.7910597871125353,0.449659659806368,-0.20510100551577973
5.692581962,2.454151759198329,-1.409058308783776,3.321782613204522,3.699638039442583,0.463207687685389,-0.2106329010046558
5.732566568,2.3492541741157615,-1.4716183349321068,3.3451812987651524,3.601808542378078,0.4364370037338365,-0.20391632028951864
5.772575379,2.2286031412009164,-1.5480968175359642,3.3309927106096158,3.5279966818457713,0.43791870672655187,-0.20364550940714968
5.812570421,2.13954899281317,-1.5554139090312507,3.3510535745503134,3.4660885636427934,0.4455998258287389,-0.20335042644019524
5.852569638,2.0341725434363362,-1.6119600206956923,3.347453582706499,3.3928057237457723,0.43499537478975775,-0.19379597488873493
5.892664069,1.854998945092805,-1.6623160000558554,3.3582930770799315,3.274655065743848,0.42131399471681,-0.19592228289000468
5.932576651,1.7621652006323374,-1.6576261735787192,3.346415052134421,3.20496643467926,0.4150100736551629,-0.20552963475614666
5.972572099,1.628084577678412,-1.678886629488303,3.3448647321573746,3.110791086535885,0.4272393784694332,-0.20837255952016945
6.012568908,1.4970879698057382,-1.6690462360436173,3.3355913317484926,3.0430828236289935,0.40033739250900174,-0.20451982542205888
6.052570406,1.3618824586227518,-1.658267707628731,3.3211754357659955,2.9391881937918645,0.39976932255501785,-0.21029064593806493
6.092572513,1.2324209976605576,-1.6363982425082404,3.331851965775475,2.8417146598213066,0.39761995488308505,-0.20760626084870598
6.132562801,1.072826246265319,-1.5740421649270762,3.310216203476912,2.7360449869851236,0.4096563793819732,-0.20663077884378941
6.172574963,0.990429930200691,-1.5416847863642957,3.29799344340518,2.6746528194291654,0.3842313979610007,-0.20669524026200006
6.212572133,0.8359752175118529,-1.4580785386687372,3.2861690761829037,2.5743649553932184,0.37975026985740973,-0.20575102342277793
6.252570863,0.7173868812295527,-1.4036424773380831,3.2761921871454374,2.4615472686164157,0.38415268795300334,-0.19938151053714964
6.292570761,0.6673699863184653,-1.3503506045163345,3.2699324876973783,2.4081875061957003,0.3931245102542269,-0.20797807230322984
6.332563183,0.5353143933177601,-1.2284959697094395,3.2519279483420953,2.2792010937794602,0.3963044794104301,-0.1953953371898485
6.37257043,0.4291678690837787,-1.122800586820538,3.2516209385471533,2.209698417926096,0.4061374637645191,-0.18832053464701556
6.412580275,0.37052233194225936,-1.0205306332703088,3.2725405013105218,2.1360037211624445,0.43237711369061793,-0.18878954692017813
6.452572041,0.3186047766876989,-0.9257590379334621,3.3159926259455954,2.0727480572765695,0.4585952292868582,-0.1464963461010469
6.492575405,0.2358266444749103,-0.7841055735732253,3.386895664362504,1.9940956479148637,0.49417226731028974,-0.0997140682919618
6.532609661,0.17268518141868558,-0.65866955000062,3.5027870456092454,1.988319089958605,0.527688653711502,-0.05563664282137359
6.572565102,0.12428638753519156,-0.5440874760297348,3.575050538544777,1.9623360104792271,0.5269777823878337,-0.026925620105558403
6.612568998,0.05627116047261425,-0.3643618015495225,3.6202372469154667,1.9765762462472032,0.49557049673113457,0.01645024384740233
6.652571689,0.011254300174313742,-0.2669641239306142,3.697611755564804,1.9849046657386336,0.4647526705321613,0.0448241179021309
6.692573188,-0.04905120243529089,-0.12292424233391112,3.7360595285453373,2.000943955988862,0.45229813940488395,0.06881965264799454
6.732566464,-0.13371642847317886,0.010940064625951179,3.769171179139487,2.0600208649009897,0.39575357310569415,0.08459766268691363
6.772573479,-0.2044993061519858,0.15772383015241914,3.7840515534741246,2.1002821681626838,0.35600155260800304,0.10271555298394831
6.81258601,-0.279848874430594,0.2459736948758065,3.7919957793394916,2.16522778461124,0.32911975011061795,0.11619572262177655
6.852577625,-0.38531455075421744,0.38549779913218335,3.7700843239139474,2.215061170482834,0.3132467247456808,0.12635876591954423
6.892561809,-0.49389065111619534,0.5369491063516936,3.751346784495313,2.3018892231940145,0.2719670402906033,0.13422838065225365
6.932567627,-0.5398777753361301,0.5908003079638167,3.764715943664612,2.336470149606209,0.24597141017295343,0.14157225931221462
6.972610197,-0.6919455740880804,0.7129707950366245,3.6998396888499303,2.4558440439627733,0.24396214036837438,0.14786501690734893
7.012555933,-0.8117167235732771,0.8339969097760127,3.6529650782809235,2.5628956037258344,0.226136275468994,0.14431140346427665
7.052555969,-0.8855716743286975,0.8969968066613094,3.581245176054131,2.6232462054266357,0.21443597358524585,0.1595540660034942
7.092593128,-1.0038538686147387,0.9745169250394665,3.514099766635412,2.700180170230537,0.2157517617770845,0.15607036390894036
7.132619702,-1.1405915904734936,1.0220738867089034,3.470950594992431,2.800293966760027,0.2276078174355004,0.15055991129381435
7.172650978,-1.2619497215244786,1.0854587726290423,3.4066196331386798,2.8941038238941226,0.23333283307397706,0.1548902117021848
