time (sec),x position (m),y position (m),forward velocity (m/s),"heading angle (rad), from x-axis, positive is CCW",throttle (unitless; -1 to 1),steering angle (unitless; -1 to 1)
1.006811958,-1.1602086154821176,1.1684049236109497,3.088791194805717,3.0434369749973875,0.4679890146845109,0.2334219376073189
1.046864161,-1.287503062243496,1.184226983559352,3.0956450938142175,3.139632346890542,0.45465584049138436,0.23060309338036783
1.086813985,-1.429580906634789,1.1721321607035404,3.1237214294345526,3.2281034869738736,0.45219484262011556,0.22781763115373146
1.126808321,-1.5472629004292189,1.1670691115507816,3.1462780657140272,3.3153920399411594,0.4579179068336698,0.2249396822992751
1.166810875,-1.682256593184898,1.1520668515054229,3.1673903827719356,3.4248059858277453,0.46277697760167713,0.22276987886048763
1.206810781,-1.7907054423343116,1.1099459800483864,3.1495531892306197,3.5027714118890083,0.448250461660466,0.21949080686236794
1.246863986,-1.9270720167471997,1.062602177652489,3.196763617925917,3.625142395457697,0.4506252653114798,0.2176017289358172
1.286822573,-2.012431985811135,1.0168693124343962,3.1724369892483693,3.71539849329961,0.4625129957655352,0.21794482527834932
1.32681107,-2.1231950150566026,0.9342299782869713,3.1789700134262646,3.8123853849729765,0.4544952803570351,0.21449620537316155
1.3668705540000001,-2.219966966752183,0.8633273794972992,3.1861631496428577,3.858466219890515,0.4476410032679816,0.212752808420649
1.406810414,-2.3097127953677563,0.7709159189667469,3.215072715083715,3.9573256207157157,0.4611059065146305,0.21147131871882469
1.446823934,-2.40830058265625,0.68582175863568,3.233201381647435,4.059292524189054,0.4527949909423779,0.21242064762751767
1.4868168480000001,-2.462139091688895,0.5700365928511747,3.2351233920490037,4.143634366763869,0.43848717927607916,0.21244976400479776
1.52680838,-2.556706379093586,0.480185595944167,3.246275069130169,4.231645793198432,0.4323812086340023,0.2113549751222427
1.5668223239999999,-2.621579855142695,0.344951319124353,3.230593210662263,4.319534995854738,0.4366201150945122,0.21056028017373118
1.6068089859999999,-2.6389128819228698,0.22712986943118288,3.2208521489128037,4.408491526448851,0.40692759073011064,0.20599783958903464
1.646893766,-2.688566135467108,0.10807210268926314,3.2191388513964645,4.506167498589697,0.37746937737210395,0.20548226405597136
1.6868244,-2.711134611633881,-0.002109694510978071,3.2014528681559367,4.577768857002234,0.37378606353599036,0.207951589501449
1.7268124720000002,-2.7324904019050305,-0.14079393919803232,3.2097646621513993,4.689068266726473,0.3622701085555111,0.20839006817575031
1.766811597,-2.7383033525999663,-0.2783979525500923,3.160855117065766,4.772147372487458,0.33604592246336673,0.20851987910164993
1.806848106,-2.7321629618936747,-0.40460724260159464,3.155688901924859,4.877213463309752,0.3248555166902295,0.2095949899422524
1.846858976,-2.7025899512878357,-0.5264841057172127,3.139812492080428,4.943948791668143,0.31767113640919203,0.21171074244075497
1.886819363,-2.677845378482314,-0.6501129949675301,3.1068408762454864,5.064027206230323,0.31592010548580396,0.21102839685649222
1.926808153,-2.631051336646711,-0.7540667935984536,3.063039089153123,5.153593873932313,0.3042224709128338,0.21332363508073443
1.966816708,-2.600456656784951,-0.8622895778046008,3.0418000789428548,5.258500449480766,0.28693751758022196,0.2170958235541997
2.006863419,-2.5225917973719625,-0.9691607951702992,2.9922387212994326,5.356088094972164,0.30963337650451855,0.21951429970749126
2.046810446,-2.4456625587518896,-1.060780552496205,2.9662123809233765,5.423298653572652,0.31398378184498993,0.22420915672628414
2.086828229,-2.3617269595611905,-1.1629630806081563,2.950529554498733,5.518887606911924,0.3173017123851043,0.22698328309239402
2.126885292,-2.2927348884811476,-1.2361325517319814,2.945718183803374,5.612589473548448,0.342189655905636,0.22974828431129501
2.166822644,-2.18503696466819,-1.3016413245712553,2.9489317193811133,5.696276886589613,0.37298891662168937,0.2360208828042658
2.206813247,-2.099124065161121,-1.3925632025326184,2.9400428932545517,5.793594596565588,0.3827777774883543,0.24005441466818125
2.246852553,-1.9789291073747788,-1.4295219181656473,2.9629873554606747,5.896710250209652,0.40086156683149704,0.2438373162087375
2.286823887,-1.8659159791706006,-1.4601333184503655,2.967648613698511,5.992922251760618,0.43591792383181355,0.2461783505133017
2.326810658,-1.760001743172823,-1.498408920734632,2.9772174945599033,6.111790827384776,0.4361524176532151,0.24646197995000946
2.366813026,-1.6345507361464198,-1.5147358204251022,3.00204305699333,6.172446782892191,0.43663692102514173,0.24514511876382306
2.406807379,-1.5153998262415032,-1.5245049916827942,3.018783543340914,6.264979867942014,0.45878011232409643,0.24397507872447802
2.446888755,-1.4066343913140382,-1.5222005429433758,3.055409302608255,6.370899388947494,0.4808633678536859,0.24167001672486227
2.486849237,-1.2888044745354408,-1.4977290811842938,3.0792892701845145,6.4550985494657045,0.46966269927229687,0.23833854462701098
2.526807615,-1.163421070702971,-1.4678595418489273,3.1080862761952757,6.579185925574026,0.48014875527267664,0.23824088599220675
2.566814393,-1.0332281831268326,-1.4512506825487104,3.1164457082176207,6.649612238627967,0.4898609363170367,0.23856722070627123
2.606870545,-0.9227524940613478,-1.4004208687009814,3.1356648847193287,6.761061783940374,0.49179363810372134,0.23260533112472337
2.64688539,-0.8012342592425902,-1.3353228054482686,3.1769855938586757,6.848231427662888,0.48273873747564056,0.2303337328838822
2.686835911,-0.7110653451246947,-1.241143669931801,3.17189486339453,6.950388954792043,0.4852362471521925,0.22780511968949493
2.726806663,-0.6083980294836419,-1.1914253744582968,3.203167433142213,7.044517290384059,0.4988015282129656,0.22403475592191144
2.766815946,-0.4950076515915133,-1.0866009056410688,3.237251021910694,7.14457483145903,0.5086044580535496,0.21012325333748483
2.806812181,-0.4166119806023211,-0.9953190451036519,3.2938226238196853,7.207603897165723,0.5246745246291175,0.18541299667569294
2.846891813,-0.3246186271089501,-0.9004153596694703,3.321883554986823,7.283899211672045,0.5378771306103753,0.16178671006963743
2.886820051,-0.25342171644185896,-0.7929817638221298,3.3941607211008846,7.346267878863771,0.554083288787171,0.13865620060360484
2.926812827,-0.200116895755404,-0.6693628597391894,3.4352906393752525,7.409067213623217,0.5498085934124155,0.10106517911899356
2.966817877,-0.14351962476908084,-0.5142836998196469,3.5317088028202677,7.413651006838495,0.5603662494900844,0.05638223022257114
3.006810746,-0.07912325819038919,-0.41689514109111353,3.600709684068121,7.43520517412778,0.5734202617646119,0.015886148669014413
3.046872565,-0.02405859453847866,-0.2634928689467392,3.650863458925608,7.441806944535327,0.5500755536517722,-0.014425142117305032
3.086829668,0.042385114413564275,-0.14109492911083174,3.7103321386492745,7.426892166069038,0.5178985913283222,-0.042631870363874426
3.126882368,0.11504437086424701,0.0007953934314992063,3.722242828237141,7.380573831075481,0.49510015660264944,-0.0654920171090794
3.166818478,0.18537730703056454,0.1409242006526992,3.7646851485973416,7.32394494496773,0.48043427237188263,-0.08512418146908335
3.20681361,0.2889937493339157,0.27338824799091554,3.811070722562169,7.309446187767277,0.4338427803310562,-0.096061990528866
3.246803268,0.3295640050806425,0.386252432720545,3.8027153617441374,7.2232783707693775,0.410848933084849,-0.10907120332078747
3.286829398,0.42921725648447717,0.5118118848094969,3.8153429191473807,7.1765578321087,0.38831426513437667,-0.11821783666158256
3.326878647,0.5380191894050591,0.6229128693084544,3.753478690150664,7.115373175856038,0.3782259195997746,-0.1272111023350349
3.366863685,0.6220577834389704,0.7325092299443474,3.721620967102076,7.046402221878521,0.3391100560768135,-0.1294241764160127
3.40684416,0.7578260243602977,0.8307934872038317,3.7103654478112076,6.993623340221566,0.3187708934358675,-0.13707336094667405
3.446882956,0.8644938502823871,0.9377877709054809,3.656079909998883,6.892230043003055,0.3269492368699488,-0.14232212535734243
3.486814368,0.9700262881099675,1.0370001739101697,3.6110458475777594,6.828682346850518,0.3060588601580176,-0.14610228431649785
3.526813387,1.1081858628923578,1.0796372072405966,3.560487152322522,6.723647287275823,0.2869518167397356,-0.14832463458565584
3.56682004,1.2207820923905226,1.1591609789187365,3.4938166007769653,6.66426070574525,0.28533157536177495,-0.15025056798507544
3.606810164,1.3594490418725311,1.1745118847357565,3.4284132378653136,6.584629822484969,0.2896424249191067,-0.1515616407245525
3.646807718,1.4642561914661005,1.2474159465046661,3.3630323397357285,6.492668990494982,0.26842907564524543,-0.15509419754162165
3.686832013,1.6087941962173697,1.2731182793620766,3.3138487835296124,6.418414449536708,0.2625154972662102,-0.15614276211913128
3.726810322,1.7379927776637307,1.2901756878857797,3.2702427014318354,6.346732822525812,0.26677776131832687,-0.15893757455120877
3.7668137120000003,1.8584333728803453,1.3104806883755642,3.2292216077351528,6.272199832040055,0.28007126582934627,-0.1625457946329167
3.80681989,1.9945613283531825,1.2818039032390072,3.1746386392484958,6.194204147326396,0.2672627847665147,-0.16854011221382942
3.846883048,2.1307993983273867,1.2791737343174199,3.139055942049419,6.088519840627659,0.26112647472107203,-0.17594060364519284
3.88686905,2.2293889973428573,1.2585299083129706,3.0797650864664643,6.015682019358024,0.26910653179220534,-0.1839698708175689
3.926809773,2.3605154781710533,1.2362481506642227,3.0262632161189518,5.94344681304269,0.2841419217622247,-0.19053871382291543
3.966811972,2.4836626320928943,1.170894985362211,2.972789462969995,5.839989658291308,0.2814629789771943,-0.19819641946897779
4.006814064,2.573263017592286,1.1142689184423094,2.9414008130738543,5.735637608015025,0.2902512245281038,-0.20638632065628826
4.046891728,2.666987957550204,1.0416355511156479,2.9269130554438902,5.675637846185645,0.31907220521663576,-0.21329383992604126
4.08682104,2.7687653688586202,0.9686238031297639,2.8901957278265438,5.5738795050000345,0.34558145765234966,-0.218073814221703
4.126809772,2.83958550935166,0.9001800563744958,2.876358978301039,5.47737290857224,0.3611770930901086,-0.22266371794475276
4.166810041,2.9069168559576584,0.8102903981486707,2.861285724985648,5.388264988194123,0.3864328404983724,-0.22800354452851393
4.206848046,2.9999526084878325,0.7118837702303499,2.910402626833562,5.2796729321910085,0.43363628041919317,-0.2323404725113976
4.246882024,3.046015232204787,0.613160351947694,2.8974708489306455,5.198096799752892,0.44888172419280786,-0.23793710044302926
4.2868313780000005,3.109387449394775,0.4938753092020915,2.9006197570209684,5.096046713896483,0.47142743064921916,-0.23869652831786226
4.326810831,3.141228183024352,0.3896821239888104,2.9446524581804945,4.998765301358019,0.4901542533759648,-0.23864800232542205
4.366812077,3.1641547102949668,0.28637475618355046,2.9306023401591266,4.892203008368465,0.518775565208242,-0.23215815424968628
4.406812104,3.1812256332559627,0.17376452051486088,3.0012977992821424,4.808745517095505,0.5125766555616605,-0.23117175043494326
4.446835173,3.1771344739665466,0.058039552236650596,3.0264729203208494,4.713034628113718,0.5110383815170761,-0.23046431388990146
4.48681958,3.1969034054586913,-0.07723048343878726,3.0598500580719983,4.627818164445169,0.5449548744723336,-0.2282748388973401
4.526815307,3.1552794561404047,-0.18177698733109016,3.061458703857482,4.525100979164011,0.5315269177997926,-0.22722526338298552
4.566813131,3.140014768950981,-0.30710730012148574,3.1018338134658796,4.446691407127617,0.5251134457188829,-0.22586908900961356
4.606814898,3.0915752831950085,-0.4581831164691296,3.1325301679280995,4.360531171496693,0.5281521733024422,-0.22418749705432794
4.646830208,3.070717946534024,-0.5526262658913016,3.1517276970456822,4.256584127499203,0.5506393612083985,-0.22244583273646198
4.686814279,2.992786076541832,-0.6759684133529859,3.1478635875747987,4.179287999885552,0.5339601537135217,-0.21810996650290465
4.726813637,2.925287950328597,-0.7588089384228145,3.1946194482797896,4.078646989186968,0.5186583154096311,-0.21724727701083027
4.766839057,2.8368563246880467,-0.8831130612922755,3.227736246532205,3.993168510192155,0.5275455189057363,-0.21655708784058436
4.806813168,2.7626421942261383,-0.9584468944894201,3.192603775827174,3.8911844427084197,0.5267720010610165,-0.2162887314053973
4.846874551,2.677928278442371,-1.0321497898046246,3.2401568121298325,3.7901233059590314,0.5105376497845808,-0.21209803428225785
4.886816264,2.5568814411711536,-1.116726349472575,3.2323635161476334,3.708303937740539,0.49946331569330243,-0.20797382295756267
4.926868502,2.4523743491853645,-1.2096248758026362,3.236297432939706,3.617051460590219,0.5092141218035076,-0.20422688218655677
4.966862275,2.347097203398729,-1.2451850614783344,3.251412309290062,3.5396483580262124,0.4867108436781137,-0.1987331334904945
5.006813362,2.2081067722981014,-1.305707308789061,3.269132983300882,3.4505564667667725,0.4689329657394028,-0.1972523688721244
5.046822691,2.1050129563022866,-1.341793406791034,3.2566315592971504,3.368302182591407,0.4683462581058293,-0.19772360196213878
5.086817412,1.9804928138137565,-1.3697386357031194,3.242060424049003,3.262872218731914,0.47347989088662534,-0.19685632709407988
5.126807935,1.8677024320053897,-1.3956610151282967,3.262074991357277,3.204997058832179,0.4284061499972583,-0.1891419011109298
5.166876148,1.7085949639752847,-1.4175465232753486,3.2127883018852192,3.0837215010700474,0.4049185216193178,-0.19227123393827897
5.206812163,1.5832562641831631,-1.399981232434528,3.19491744079009,3.0002155730970026,0.4023128246731717,-0.19343349727135287
5.246864615,1.4331665811490457,-1.3788876183253276,3.148018909227601,2.9292049202642843,0.4074982451639369,-0.19766815437859825
5.286833805,1.332968318563555,-1.348712119557311,3.1725105422606235,2.8294761861082107,0.3735459768884055,-0.19568083715273812
5.326814606,1.2276774085602007,-1.2995342921761288,3.1155822116752208,2.763523399351296,0.3637610353249825,-0.19708429911997355
5.366861059,1.1011151760585491,-1.2471583630837744,3.061258397971528,2.6469694429383943,0.3661870704027936,-0.20008004226074036
5.406854336,0.9992921965236731,-1.2040740078151053,3.076049720688673,2.5652655874610577,0.3576115796962295,-0.2042419267305333
5.44679737,0.8927396901251494,-1.1210193956635817,3.008656216917477,2.4699363191215715,0.3543853337077135,-0.2063756732396396
5.48681252,0.7950421319789509,-1.0533118154331753,3.010758922361383,2.3772596653423874,0.36525924824268596,-0.2085478777689419
5.5268478000000005,0.7313011474136744,-0.9719475223443934,3.009082865507322,2.2826098411087545,0.38201352723429527,-0.21079343495379171
5.566818835,0.6346856063515034,-0.8816464166215359,3.0037452413100776,2.190184996724569,0.4380362193064493,-0.18795931371915703
5.606812454,0.5619868261260185,-0.789577457968913,3.05196951481155,2.1240735700570386,0.4849522364205079,-0.15338446613716875
5.6468599919999996,0.4963177895176805,-0.673718529875327,3.1394454107800724,2.086010851048903,0.5274679077423416,-0.1191945846506424
5.686813887,0.45379298247974503,-0.5618467082851016,3.2138870146320992,2.021256520062065,0.5674491722138421,-0.08566394744207267
5.7268463910000005,0.38657861998074583,-0.4409772509178302,3.256443732258888,2.000779416472187,0.5458648930254515,-0.054764429682319406
5.766818367,0.3529027996200149,-0.33918763490426723,3.3544495129755405,2.0063177568249237,0.5476555200350255,-0.015823603509727554
5.806809671,0.2718413538801714,-0.19768297622770248,3.4369910157936103,1.995603538530346,0.5540364727159666,0.019253373589593007
5.84681347,0.1950947395544185,-0.0678446057652326,3.525608401585341,1.9829790294309526,0.5240030123884007,0.04627653438530533
5.886820063,0.1400198466146764,0.06677578116660522,3.5456377143227287,2.0199598868668316,0.48104053014823506,0.07082474206716537
5.926825967,0.06270945741555214,0.1829008684199907,3.606687473748796,2.0548702206238345,0.451627409963515,0.09113183649552638
5.966830642,0.01536901516838551,0.295122765806684,3.6312281867498526,2.0628169812401933,0.43216374402850294,0.10987382532442615
6.006836074,-0.06373469418252113,0.4398752098768469,3.6467294692695793,2.128053209308507,0.386719314477261,0.12311302909203432
6.046836848,-0.13072735156596405,0.5639857282637945,3.6316023539899507,2.191486300642244,0.350388065705444,0.13846746904842677
6.086814779,-0.22874298201904694,0.6621903837176238,3.624593825865099,2.2274458942971207,0.33101635518091277,0.15176430265875043
6.1268117029999996,-0.3109828631505308,0.7800642420552127,3.6126906655076714,2.292854463934365,0.3263235979066672,0.16216276924422107
6.166812287,-0.4358974893373817,0.8918414439382487,3.6109328993882155,2.3752764080522213,0.30693173398499246,0.16416175739228045
6.206814496,-0.5346345241209696,0.9839907456672264,3.5539581146894546,2.4674142030962116,0.28517231763231904,0.1733994023857663
6.246810997,-0.6153830300418776,1.0778442897851461,3.546041901664788,2.5819846425439335,0.28572139471515806,0.18143494363948454
6.286819172,-0.7363334489121173,1.156484087406983,3.496267760694579,2.658379649531947,0.3001599881543359,0.18881910048917397
6.3268147070000005,-0.8815197485598445,1.2275909038400754,3.4446444543826904,2.739569821257649,0.301839694915658,0.18996248560133647
6.366821124,-0.9905166185839944,1.2566709982233881,3.3990111651533508,2.8396334508767977,0.2960769988036989,0.19201725063016534
6.406811343,-1.1310777587806227,1.3334081679298533,3.3689682343350182,2.922438287325908,0.3184126390020412,0.19237554890044098
6.44682647,-1.247381859491569,1.34855054316871,3.3468771823121632,3.0377794221638603,0.3407337863666605,0.1933595713948288
6.486808784,-1.395406725717356,1.3727645844944094,3.3189263010050127,3.0964933203665796,0.35382973031925496,0.19290944073980656
6.526811446,-1.5294162275500534,1.388857028057839,3.3169324401161004,3.195013711080152,0.36803660447509456,0.1934524297423671
6.566809239,-1.6350617770573044,1.3707470746694217,3.2726274816908125,3.27558895943313,0.39421335161357823,0.19472380064621275
6.606865599,-1.7784505691655845,1.3657048666504417,3.2817319491413386,3.3503972744426616,0.4033726216202911,0.19268053262185314
6.6468502570000005,-1.921588791904135,1.3370787125888466,3.2968348991078957,3.4152562927673453,0.3981889798544437,0.1970253220052562
6.6868137480000005,-2.0387183762809644,1.2919095713180218,3.291174360597867,3.5280649165268847,0.41722378545982136,0.2028272939261827
6.726839154,-2.1629643948690513,1.2272218582853929,3.3070747907799567,3.6066983271793194,0.43416315038842124,0.20817017518470077
6.766813869,-2.2742143681325717,1.1964637790694477,3.32397526975691,3.697478074061362,0.41464251267194413,0.20465655350911513
6.806815823,-2.390562722055325,1.1041047952794025,3.32195834816302,3.7878695273875493,0.4119862274052409,0.20971573900908236
6.846821971,-2.502166440018205,1.0314560329245792,3.2977271851389753,3.880919811305757,0.41400355696450253,0.21212627982858007
6.886812931,-2.608113580540153,0.9460959432438361,3.2963462885179133,3.969442290004541,0.4304372880521289,0.21300679281750745
6.926819832,-2.6734412979204754,0.8325960557567386,3.2410697169079343,4.058292442448852,0.4121785749362216,0.20739966777240454
6.966819293,-2.754401075223599,0.7423878555962186,3.2799200360915446,4.152640565796819,0.41202270998226137,0.2062603640062571
7.00681609,-2.8154415164613256,0.6198085550550742,3.255018273834456,4.253728144951823,0.42175044118788885,0.20594267333492783
7.046821702,-2.879743282613233,0.49649328475040944,3.270016722655562,4.346639188381884,0.44059041686677086,0.20146519252605302
7.086814474,-2.9306675399798165,0.40138485370883864,3.278842575902968,4.4383365071342,0.3997132475734157,0.19954095858263296
7.126822961,-2.9680122803675864,0.2749591319192123,3.2475208174653027,4.515288288850529,0.3987004480931814,0.19868910201938064
7.166815088,-2.997624626064404,0.12461800781809534,3.222511910306849,4.6262764132980685,0.3999334183087302,0.19945017291420472
