time (sec),x position (m),y position (m),forward velocity (m/s),"heading angle (rad), from x-axis, positive is CCW",throttle (unitless; -1 to 1),steering angle (unitless; -1 to 1)
1.011061551,1.711517096345616,-1.2988087962164971,3.1069516241710207,-3.067834143192287,0.44078887914562864,-0.1927565090259142
1.051077148,1.5908238341297938,-1.3135072318140004,3.127684864206487,-3.1408891642053156,0.39330325573629527,-0.19324616360097963
1.091133408,1.4634013188751447,-1.310823760047664,3.1159002963135873,-3.26042621376277,0.37781627788564265,-0.19331465012007612
1.131058667,1.3432977691152084,-1.3114732548859451,3.07389461968782,-3.328427577404187,0.392006729974458,-0.19350932797253578
1.171055502,1.233964267255594,-1.2799325798705066,3.0905756118458236,-3.4112444884355835,0.3680014504193083,-0.19074747013264276
1.211059126,1.105752123136606,-1.2542409508525383,3.05854646561194,-3.5319700201051396,0.3520089496003695,-0.19237733077676827
1.251056293,0.9855362944885953,-1.199323203323534,3.0514769828734387,-3.6218254123621723,0.36619949008681835,-0.19518561793506253
1.2910538,0.8859801232159213,-1.1469927324743598,3.0194702971494682,-3.669168047255105,0.370813410621567,-0.19737796954946327
1.331055849,0.7883899876057974,-1.0842291712593677,2.98058704129259,-3.7872180669476516,0.3511558490810082,-0.2009210462048118
1.371056661,0.6864314025798495,-1.0072164645938024,2.9557556436174948,-3.8601062677617417,0.34767911056496714,-0.2020994429548627
1.411057355,0.5997009042917807,-0.9031237671245591,2.961196151089547,-3.9742382742557445,0.3686945615270837,-0.20360563918840877
1.451092906,0.5269556258864078,-0.821632651607122,2.9750732407350746,-4.073468757055432,0.3979699722147312,-0.19191987586688017
1.4911263670000001,0.4513556100794778,-0.7211430147040536,2.9756557843381244,-4.111247927442542,0.42856003002878346,-0.16957378484416855
1.531059549,0.4101919102211819,-0.6700352080762553,3.001195817793915,-4.228386976425073,0.4597583508318689,-0.14619953965886484
1.571052496,0.3206977742477433,-0.5316117274517423,3.086028780511306,-4.265047166556918,0.4792260839584479,-0.1228850561498838
1.6110491439999999,0.2746052906676028,-0.40929720686003096,3.1327079017075277,-4.297935136140007,0.48718584864220454,-0.08650809583249564
1.651055887,0.20071587692634063,-0.28375183341317123,3.198086919470737,-4.30810431645916,0.50158421841829,-0.0417544021325247
1.691055836,0.16927484933504955,-0.157179470392651,3.2532051380715745,-4.350137123327372,0.4998227112057237,-0.0006812672687851644
1.731054182,0.12173214733686946,-0.04815905278353641,3.3427114964468885,-4.332406521548456,0.4889232825282732,0.029327282619316445
1.771050473,0.07345052609602273,0.053977704166182354,3.382759171932434,-4.337811032872604,0.4605149399764272,0.060306567695352885
1.8110586670000002,0.02203479629803727,0.18866604170846274,3.442071902814513,-4.312550762145111,0.4371948706877636,0.08644433825559976
1.851052444,-0.06272642172261725,0.2899992868717682,3.4588527980940404,-4.287822271293466,0.4135791451165617,0.10795842102447631
1.8910594120000002,-0.12105611950540235,0.43879948930293,3.4802440526630143,-4.255241704375523,0.37670993847894807,0.12604884530912464
1.931053933,-0.17908967653202093,0.5481047204777804,3.4986084722624127,-4.176697851142928,0.34531561395970495,0.14435872015442155
1.971053737,-0.26745850695273965,0.6534472499181868,3.4964767843089772,-4.116268298145294,0.323868210942343,0.15896707254749354
2.011055303,-0.3290043135935145,0.7870182470750228,3.4885950082991672,-4.046575597693149,0.3243188776965647,0.17165610546848137
2.051050426,-0.42151587484618397,0.8745097354570506,3.45095746794103,-3.969434488255878,0.2940261429181969,0.18261507284344153
2.091052286,-0.5245109426656067,0.986608914034589,3.4363546234513103,-3.881354921334776,0.28515383308853753,0.19033685791015884
2.131069856,-0.6399414011035439,1.0858856913030244,3.4102308578333806,-3.799618554266217,0.2903988986859317,0.19594341756006825
2.171049646,-0.7312237139534651,1.1543428522698946,3.3624467720152706,-3.719568414926071,0.29388289610617085,0.20082756044226757
2.211058788,-0.8404044003520674,1.2317273113678573,3.343474026578109,-3.6165635998938925,0.29416812538778925,0.2027487297801854
2.251109043,-0.962353405343961,1.2806013417574669,3.2874684652528967,-3.5108273067354836,0.3031012702165866,0.20257239460629853
2.291087927,-1.092072813977383,1.343522685816396,3.2733917962869232,-3.404064002139969,0.33598138780517095,0.20133605079360706
2.331053323,-1.2062776616983184,1.3962350435298592,3.2574890929296125,-3.3150037760470576,0.34827027215718337,0.19415496071987443
2.371053634,-1.3341921306456812,1.409249374941307,3.2226097271680625,-3.249018488081067,0.36293595577454973,0.19478056512612135
2.4110641,-1.470170379716997,1.4275114380283926,3.2090991569025773,-3.1558461297561915,0.3801813518750616,0.19700874179111663
2.45111188,-1.614896498083008,1.427330666057835,3.2096048268225923,-3.0860470137973155,0.40432395984394487,0.1995665237360983
2.491053566,-1.7472618879040183,1.4076437835720501,3.252562766121434,-2.989837436747555,0.4053658944482441,0.20027108054404033
2.531059664,-1.849634486716313,1.3931558127385184,3.2378623513708304,-2.898854587674738,0.4093222895993745,0.20237246575338838
2.571104868,-1.9737796312390505,1.33971465141304,3.2459313644485803,-2.8164804209867897,0.41868458980464734,0.20384781896521675
2.611060831,-2.103023793110165,1.3060070075160188,3.2502970911178206,-2.742076063679091,0.4084777031597989,0.2041315042889951
2.651074548,-2.220139168024145,1.2684675601207203,3.246675354158527,-2.6642857250970082,0.4006098629856813,0.20434424682832483
2.691114954,-2.325649595642817,1.2032655838300041,3.2807636521809918,-2.5754889764847464,0.4059674130251796,0.20586811609257188
2.731063438,-2.43199187457163,1.138525091448529,3.265272107532933,-2.4896672795631685,0.41658579861522516,0.20842327753914375
2.771056547,-2.5282126253210087,1.020015832723643,3.2649550618683496,-2.3987588481499857,0.395663687800664,0.2094711138627372
2.81106487,-2.6304086534615037,0.9453312388112107,3.280398531719421,-2.3126142611495224,0.3846916869749336,0.20951062544569135
2.851074498,-2.736874304556936,0.8572775112472816,3.1993682796128096,-2.211921233047659,0.39212051430415107,0.2092306326468918
2.891057705,-2.7992638285949916,0.7651865852686434,3.2632006971523353,-2.1199499966040123,0.38397674411107463,0.20934412465790278
2.931056098,-2.8684036959507675,0.6396598458003128,3.229997794580965,-2.039086654589547,0.36596123995631935,0.20761528266143509
2.971052009,-2.919314484588776,0.5173897114197171,3.197483616154608,-1.9204548673914668,0.38395024710780273,0.2060189012501042
3.011077533,-2.981169811719236,0.41213317695419877,3.186543093087781,-1.8537042908771537,0.3755264678209844,0.2039159903802332
3.051047715,-2.9962978561199343,0.27845443580766216,3.196521919586873,-1.752495093117819,0.3577575949349947,0.20352202353926757
3.091062898,-3.0337005410441518,0.1483786131263299,3.2256513102771867,-1.6810523239003445,0.3509955279269195,0.20219390786403252
3.131064072,-3.0187954271183735,0.009537512731573,3.23648845406232,-1.6004565487403715,0.3532313824276038,0.2030667214450054
3.171052863,-3.0499427679218334,-0.1194250871371391,3.280907545589983,-1.4895114461379755,0.3395522036149359,0.20359523565102575
3.2110602,-3.029065647471902,-0.2237359758367478,3.183570855301151,-1.4022821646199424,0.3030332749801623,0.20728524875502144
3.251095947,-3.0055762910411032,-0.35859386647591257,3.127514547673836,-1.3460410795504576,0.28479021054094533,0.21075930517173608
3.291059025,-2.987377483339107,-0.46886561510860886,3.0784070031947985,-1.2039797938655334,0.2741521672213182,0.2124085577054583
3.331053926,-2.922488040000505,-0.591189919335092,3.0633817491442237,-1.1194161573290995,0.2836325078421517,0.21650103388119968
3.371097053,-2.8828881711428105,-0.6991027724608199,3.034089056493315,-1.0375450647116702,0.2953321392086744,0.21724536506349862
3.411064953,-2.80961301165328,-0.8086375236666588,3.0255325667144652,-0.9412488025449091,0.3001604425800714,0.218773224476205
3.4510926790000003,-2.736720305816814,-0.9065877138688483,2.9767509291829914,-0.8548360669616911,0.3170894285307251,0.22433213007745284
3.491055317,-2.6475536957966352,-0.995655701676107,2.991193771279548,-0.7741249325863437,0.31549027586075085,0.2272533001070993
3.531084593,-2.5759538208915718,-1.059871606471406,2.941936576585379,-0.6774528827688013,0.32390448328289945,0.23061658110798613
3.571072805,-2.486011716844395,-1.1384883304880802,2.9383642069536435,-0.582031372132336,0.35094712298587244,0.23334369681539086
3.6110638440000002,-2.3751517350995286,-1.2139191217697722,2.9559634523439637,-0.5040089154187579,0.37995555370989637,0.2376437952832859
3.65105419,-2.280955217042435,-1.258940598112659,2.94131927422593,-0.38852679961733205,0.3823615163035116,0.2322534980678669
3.69105476,-2.205634089336006,-1.2889882877922991,2.9883108451269553,-0.3059803138936956,0.40073338965833044,0.23861869524568693
3.731056057,-2.0656776971011976,-1.3128790750013202,2.97615182349618,-0.1971280762976278,0.4259253559909599,0.24372356870950299
3.771052868,-1.9498828924073641,-1.3460455751957308,2.9774240423065637,-0.11702910825990039,0.43565074601555526,0.25114210661086867
3.811059025,-1.8264167905425743,-1.3568514535930192,2.9884410135638237,-0.012434700270590477,0.43586539284766807,0.24805401381037284
3.85112078,-1.686563731284062,-1.3518979801683977,3.015888264238342,0.08067092561571475,0.4591923535603179,0.243079992748268
3.891058512,-1.5868244364209492,-1.343257354459826,3.0552554180291716,0.15956603926438254,0.4722040448797735,0.24013994905931152
3.93107352,-1.4665642098230847,-1.3132155184229561,3.0374205358731228,0.248677667863221,0.4720549704485034,0.2365317104525134
3.9710509270000003,-1.3698075601887125,-1.2990476797123742,3.121500828350037,0.3417024680420009,0.4743510057692242,0.23267191352232858
4.011072822,-1.2170855788536197,-1.2482240310127293,3.119693619458795,0.4417090985262633,0.48536125701682103,0.2300391703453973
4.051109476,-1.1164063179360277,-1.2004941518140666,3.15728087045091,0.5386005305500009,0.4760224333788231,0.22370004651790193
4.09106365,-1.0045402958545584,-1.1140729650384282,3.1720123202484323,0.6310042113810985,0.4563667727918024,0.22154345178862864
4.131055647,-0.9021233347616557,-1.0595274486435349,3.1891812339995895,0.7144304864672567,0.45988071068732395,0.21930508580319474
4.17105766,-0.8166817001296776,-0.9682030235889493,3.2016578878212023,0.8152283572788556,0.4667002824380265,0.21612320149038164
4.211067249,-0.7156505255568699,-0.8640243895529199,3.224225868277211,0.8917982861002407,0.47303369636201453,0.19341912469066738
4.251049755,-0.6327693908843851,-0.7611473196365833,3.2576700245279016,0.9901293581047392,0.4852314516261395,0.1701742824484398
4.291053131,-0.5721225741408654,-0.6380131897030208,3.293402718618686,1.048275474496285,0.5001365849807511,0.1474449714754487
4.331058119,-0.5035975199205474,-0.5262482580489317,3.347947696713836,1.1153829363473164,0.49943960325350456,0.11830533919344473
4.371057057,-0.46929085162001527,-0.4263100816024535,3.4213931611266455,1.1457522345923734,0.5096955814442458,0.0706676484408063
4.411071037,-0.38043177542667955,-0.3099596421443011,3.4848340256132064,1.1436535029036359,0.519476670348887,0.02488795126067997
4.45111758,-0.32883848168615987,-0.17441517514314775,3.5487311546460303,1.1456019500631132,0.5373531386292727,-0.015160277710597195
4.491055568,-0.2622481642146998,-0.040997227430025436,3.5754497963138254,1.1261429557012599,0.5017888103136372,-0.04265548527962166
4.531056442,-0.19880562221485737,0.09274376667915375,3.6020012102923222,1.1010728155057519,0.48056054305784207,-0.066789846156371
4.57117568,-0.11961342517724655,0.2139112368433094,3.6757799770006496,1.0412262975977935,0.46801494724077725,-0.08732335984358044
4.611059447,-0.062378854769450105,0.35645334165633297,3.6794684308334484,1.0075219480223794,0.46472603263018153,-0.10490735161733461
4.651052953,0.03140905021313717,0.4913785953015251,3.7260111426575926,0.9580479122444612,0.42250468726305646,-0.11233869627606145
4.691063897,0.10504697966830805,0.609764369464688,3.680017498498105,0.8690086549241967,0.40125042856784954,-0.12248884226966725
4.731096181,0.21056208284217184,0.730973712841941,3.6574588933656256,0.7965061783885417,0.39291274568816825,-0.13107681236672003
4.7711152850000005,0.314654677189139,0.7962044642263196,3.6397182063740647,0.7266345095934794,0.37178330824519423,-0.1312400834592892
4.811057223,0.39288281917151097,0.9006718695983917,3.612965512174081,0.6382795659521571,0.36158575314319047,-0.13431417240010154
4.851056681,0.5207378609634747,1.0053398248173815,3.605277927651817,0.5639076400523402,0.3609059007279237,-0.13736743755893438
4.891063461,0.6350309843193703,1.0931473925028163,3.5604987589564665,0.4813017313032091,0.3709157402997919,-0.13897873297145646
4.93105394,0.7634093100894935,1.147371824660435,3.5333524657969346,0.39415995436470214,0.349772138467095,-0.13375187749171577
4.9711156,0.904655066185696,1.1954806133661866,3.5052213125145313,0.31888048777057226,0.34160902879931465,-0.13554390324871213
5.011066935,1.0136413318579272,1.251790702860935,3.442591054223022,0.25004115071425526,0.33886146772765036,-0.13876597990190653
5.051105248,1.156183331212937,1.306541414444486,3.4116188919315866,0.16710857754017516,0.3468347556625045,-0.14206928437246952
5.091056932,1.2942548725503753,1.306152048060612,3.372269271303135,0.10218425535919555,0.32329695345149595,-0.14255036832949702
5.131055274,1.4344409872148403,1.327444870296558,3.3288135997903012,0.016506581883370123,0.3115584862349066,-0.14431916973779965
5.171107362,1.5669956176247226,1.3293654950581908,3.3272415435593783,-0.0672212826097949,0.3194921934421314,-0.14852716830842516
5.211059002,1.6733634361686764,1.3171447459802603,3.2585554427239045,-0.13266525891039638,0.33583308492203745,-0.1522367178773786
5.2510589450000005,1.8376765852717074,1.3294528754233226,3.2345303271322097,-0.2157497463793693,0.3041817729229851,-0.15389937734494824
5.291058336,1.9454601590748766,1.2945872598515904,3.1751236451520763,-0.29246318352651457,0.2934863781484694,-0.16032193146844098
5.331056549,2.059714617716578,1.2336622571261033,3.1508022696562565,-0.3747753735414841,0.30170136472021314,-0.16763802392483856
5.3710922100000005,2.1605340592309696,1.1812143896281297,3.124676820236431,-0.44936739921615065,0.32696176698928325,-0.17562125735151043
5.411055638,2.3066362933649045,1.1187985686748485,3.1072884904694327,-0.5372067160342624,0.30228872547727714,-0.1839798282730976
5.45108364,2.387808381727498,1.066972290349821,3.037262646975516,-0.6258448777094409,0.3121859493850044,-0.18990175996566735
5.491055702,2.4731859467807498,0.9967649536749484,3.011455961459025,-0.7383681543776062,0.33252060912153625,-0.19613420190766215
5.53111224,2.585434967225064,0.9146656789900605,2.9866180949432315,-0.8235247083573632,0.322380330510191,-0.1996984683053664
5.571124805,2.666979746972494,0.826336515514697,2.9446094837078194,-0.9135036976244552,0.3341712671593184,-0.2003903101286678
5.61105757,2.7270923014284376,0.7363247558441413,2.940186908055182,-1.010837671630265,0.3564200293813104,-0.20309217460813248
5.6511111320000005,2.78118919507882,0.6268334574892291,2.918051979569869,-1.0962630250532062,0.37261878413858285,-0.20657618792330046
5.69106129,2.8320194826600655,0.5260733363736854,2.9132546992852615,-1.1942499440648924,0.38601717047468115,-0.208371107993492
5.731061314,2.8614223590461076,0.4056264445370493,2.893817471807165,-1.2945871628504773,0.3975119968269756,-0.20993332139819676
5.771075323,2.9076349908344103,0.29834628632207594,2.9207282122083793,-1.4168928706523733,0.43080547402713265,-0.20978112154916806
5.811066147,2.9267872496738923,0.20294726016580844,2.927698896989981,-1.485586116179772,0.42935050552554394,-0.20728547174986486
5.851050338,2.927385690640535,0.06073264177661557,2.9181761724171578,-1.5837612318388428,0.4372884875089647,-0.20635004777876742
5.891080475,2.9313467584978015,-0.040659646958957636,2.9451734102615554,-1.682113003152449,0.44585331045288135,-0.20598232205071762
5.931056704,2.9175207288448237,-0.152541755816902,2.9494684628294245,-1.772694410325026,0.4605168547197369,-0.20596977410559325
5.971047615,2.8785453759342485,-0.29451909611375765,2.991233265019239,-1.8561439554009735,0.4537676731297759,-0.20625526686401074
6.011065126,2.835641280679254,-0.40323874570061663,2.9685162982466,-1.9554642947150356,0.45464368869967986,-0.2066187211241154
6.051048528,2.8034864520724185,-0.4990160980298214,2.9832225642761365,-2.038381104950853,0.47426918484723307,-0.20735164620498514
6.091055751,2.7596331525415456,-0.6140691215694426,3.020278427156029,-2.128790000843964,0.4623706411084492,-0.2026583734732635
6.131065383,2.683526871349739,-0.6928254855243322,3.033419672415334,-2.2371181308532133,0.46118215399703644,-0.20221778396221046
6.171047346,2.6087526525237714,-0.8217546719952555,3.033493272670946,-2.321880329003021,0.4637730284261923,-0.202316230361212
6.211061893,2.5262327394626167,-0.88696976272314,3.0326729995675143,-2.4102354272944773,0.47427794490112946,-0.2013603788828154
6.251047427,2.432059798511543,-0.9566575587828833,3.0485367385608355,-2.502520929274282,0.4627941067385573,-0.19479635646557172
6.291055172,2.3236386576798447,-1.0468847273468882,3.050228315575342,-2.5845801219992675,0.45549559913094595,-0.19363896856315954
6.331083688,2.236543768956422,-1.1042470696471296,3.068305892640785,-2.6769271707030082,0.4625201817151604,-0.1932826555391664
6.37113333,2.101372115215491,-1.1576911291276908,3.091706506093348,-2.7354340519862435,0.4640795440684355,-0.18929169006856053
6.411072141,2.007693154725238,-1.188502225089132,3.095395776242231,-2.8591630491264857,0.44439629969700983,-0.18993509851377907
6.451111247,1.8909425395441057,-1.2414249353584645,3.069913244122908,-2.9240516774554264,0.42970639039144903,-0.19141370363602114
6.491057274,1.7664870831625423,-1.2635291148296355,3.078162123225678,-3.01248272735439,0.4297032225845374,-0.19413145391485895
6.531068962,1.6519064259566245,-1.259618597654666,3.0605092089091075,-3.119196076396721,0.42165769452873914,-0.19192587134998804
6.571110765,1.524318522056926,-1.2829978080765516,3.0359656536584407,-3.2044039108286855,0.3995530632017656,-0.19151791744264404
6.611056512,1.4088206747779604,-1.2733668997289391,3.045144631038891,-3.306374391297556,0.3922558103642481,-0.19221176310258087
6.65105494,1.2830109696141263,-1.2390563320688572,3.0238203794068643,-3.396782822488309,0.4020407957921028,-0.1921229255542705
6.691057532,1.165213599055789,-1.2133844278397163,2.979785576535454,-3.494821024557413,0.2955540782262655,-0.217504103294342
6.731076782,1.0587762233001903,-1.1784137566309951,2.9062446291351423,-3.5952339354064455,0.24083074110962993,-0.24846582236396175
6.771139208,0.928446019511803,-1.105753285991077,2.7945662242439893,-3.7188911759256196,0.2507995772521108,-0.282346589869932
6.811059883,0.8589972950991149,-1.0800341236594693,2.76609890054997,-3.800457763387009,0.31350915664070556,-0.315071973045451
6.851105986,0.7829105448017533,-1.0107095730620448,2.7253664825266752,-3.909516578018185,0.36401529530380067,-0.25115452258564475
6.891054888,0.6949488249763689,-0.9236139953749666,2.770901702565401,-4.018948246181291,0.4155948472269503,-0.22172090662277627
6.931058443,0.6206027865191069,-0.8504900096823763,2.7836917546712616,-4.098440444960429,0.4487979194896196,-0.19158023635132818
6.971090681,0.5487096959962892,-0.7472004276938787,2.822217946962678,-4.158558094829612,0.47580449663719065,-0.16310274826297755
7.011110685,0.5027865475340544,-0.6550442231802399,2.9020763056892056,-4.231692018672263,0.5060180220005447,-0.13902993554691137
7.051130797,0.46142314219866565,-0.5508542707847047,2.963684361752456,-4.294815396362058,0.5347284538467295,-0.10512872302713867
7.091057045,0.395779622474701,-0.42666910404655584,3.0578529509517023,-4.338305912859654,0.553554053190684,-0.07539477324808994
