time (sec),x position (m),y position (m),forward velocity (m/s),"heading angle (rad), from x-axis, positive is CCW",throttle (unitless; -1 to 1),steering angle (unitless; -1 to 1)
1.01474828,2.652637427172382,-0.971445694812833,3.233074268310593,-2.7419334491000966,0.5809993051112355,-0.28409391122702854
1.054731204,2.500996793832923,-1.0341908764035426,3.2496183561398966,-2.8492119592138843,0.5348554823513684,-0.2739547612203457
1.0947432990000001,2.4262046070191565,-1.064913647777697,3.273783951883918,-2.927302740445038,0.5066525549744594,-0.2674251674088214
1.134739925,2.2969758747927855,-1.1012979167041654,3.27380916416822,-3.01029360435287,0.47428477682941733,-0.26436266903652395
1.1748336240000001,2.1755658190623914,-1.101653780800076,3.260705896099067,-3.092154000794591,0.45170907089499074,-0.24788842616499016
1.2147526100000001,2.015080360528625,-1.1113610295024008,3.2429276782114895,-3.1841557097829414,0.42442290772819774,-0.2555055157576374
1.254736389,1.893768469117093,-1.1118603714162376,3.278167899883245,-3.2792132207531632,0.3999555841765173,-0.25730411518405605
1.294737029,1.762859871328734,-1.086727403901503,3.2435885157333924,-3.3858635526574075,0.3972992348445595,-0.2597299912214095
1.33473707,1.6511133859296871,-1.0619830443246978,3.210280918336741,-3.458412191032429,0.37650319259076964,-0.2573431803403921
1.374730976,1.521043545488965,-1.0202350332987364,3.1732247178571686,-3.5878556184997015,0.3514043242648189,-0.2544457424994231
1.414731036,1.4042125603827393,-0.9623358118311381,3.1449219227769163,-3.699857863006302,0.35013398561572395,-0.253035623159387
1.45474976,1.2998254882108322,-0.8843409126336343,3.1341351280007563,-3.785779853168427,0.36248426174251164,-0.2510709417130462
1.494744515,1.1959962555586157,-0.8188209977798239,3.1422349039759103,-3.8809723430599363,0.40811545266792965,-0.2269614929486841
1.5347302919999999,1.1090338177962737,-0.7650833807208789,3.1585534553713672,-3.964779130050304,0.4539081036460494,-0.18504149589996488
1.574735124,1.0181308173307362,-0.6498048617403164,3.2207652325186453,-4.006879869129421,0.5017246733775991,-0.1590348775676588
1.614742978,0.9243232732177327,-0.5517444669826738,3.2805262948106555,-4.078897179844489,0.5377249695955985,-0.12608781911680592
1.654721879,0.8270669905182004,-0.43555647190575547,3.3986907783064546,-4.1095702418246844,0.5532946279821044,-0.08588554348294743
1.694736684,0.7611913959396589,-0.3261115225036004,3.4998439861426696,-4.107989234380514,0.570311001501217,-0.047244251353816526
1.734730474,0.6964515933705144,-0.21385225656021645,3.585731252090392,-4.098807305322553,0.5859258266161382,-0.014621332467023013
1.774824282,0.6183702088271363,-0.12029610611914904,3.656428064981017,-4.104522186659691,0.5213934410097911,0.008084151103474851
1.814747582,0.5190211255297023,0.01894102729349087,3.734303649886779,-4.098075173159459,0.5014709487941064,0.027362870568516363
1.854736613,0.44884512947212457,0.1414158564163072,3.758895969902856,-4.0763960725407005,0.48237348798363927,0.04488111875815574
1.8947416160000001,0.33918591352027666,0.26546388220097084,3.8049568876555915,-4.0320551119431896,0.44030051725173713,0.05728177477739062
1.934754957,0.24284279201930267,0.38293173725363705,3.869733114106315,-4.013707614107481,0.40056357064208825,0.07489265082194738
1.9747316760000002,0.1442348396288189,0.49753583438315296,3.868124339714199,-3.9753250807006015,0.37184860566705835,0.09088037539561267
2.014741155,0.030982361694786093,0.6136800847060306,3.8937580755732957,-3.9311129463521834,0.3592310088182989,0.10543224890506853
2.054724953,-0.07621334907407076,0.7032691673864113,3.8673911967615395,-3.884214363572369,0.31016097940979714,0.11515907168551023
2.094735996,-0.19961680677241386,0.8094470246368791,3.8729693786948935,-3.7992368853965885,0.278907818393731,0.1260778533925787
2.134728051,-0.3250568305165843,0.9087379590658831,3.8279991080676465,-3.74530552433915,0.25278767758455495,0.13572597161677313
2.174733261,-0.47593109378745635,1.016418037816483,3.7974880862253855,-3.62581375882189,0.2459157990223914,0.1433293175279572
2.214753646,-0.5828726110050529,1.0607618387998414,3.736624522012799,-3.538810306801523,0.22096373422063692,0.14843481032029215
2.254729886,-0.7035563818793827,1.1280192254832542,3.7084076639913093,-3.469386438499957,0.21120347600788367,0.15163038670187712
2.294744217,-0.8484391253741025,1.1691775377116613,3.650968152150807,-3.3699376539239423,0.20865853040892055,0.14571834671339595
2.334755312,-1.028410500364792,1.2361889337653627,3.5352232916547583,-3.2385549896238213,0.21689168442867057,0.1526084612407777
2.374743304,-1.1150331111972722,1.2365477473104605,3.4863767806410886,-3.1589168480646306,0.21261264374020666,0.15001681961999544
2.414744905,-1.2378561162217572,1.2709048330083748,3.431446374856979,-3.089357785552685,0.22547354256405347,0.14787058460947033
2.454750098,-1.3688984791779764,1.267557707717184,3.3380987623425864,-2.999867382942849,0.25851766094527684,0.13979546206027388
2.494742193,-1.5283380565146671,1.2333532740083049,3.3214678427588504,-2.915234453872489,0.2765954477198007,0.1477256425754895
2.534735104,-1.6637136240518375,1.2241029019823182,3.282940263437847,-2.8381045009111805,0.2884026331514864,0.14984685302513145
2.574892046,-1.7675717558258024,1.1920686232633466,3.239972605185674,-2.7328441849734735,0.31957718069705165,0.15496673909431702
2.6147450020000003,-1.8999541242705233,1.1387061666877356,3.2299544901396287,-2.654760987906323,0.35315799501210937,0.16108842110223676
2.654720084,-2.046764947250186,1.0702615026625095,3.1955497594146105,-2.5596481456746583,0.34767590031958245,0.16317050275351144
2.694742885,-2.1192311479631205,1.0067835650513193,3.19332618532309,-2.4845624613599595,0.3619865143398869,0.1686247455059492
2.734733117,-2.224698777558335,0.9238855769153083,3.1692444773498036,-2.405389519099679,0.37494419503326804,0.17392939247268113
2.774734377,-2.3125981016592516,0.8357465654390848,3.1684551676920045,-2.3013995546464834,0.388928344673729,0.16846728416426585
2.814740321,-2.3892496880873697,0.7459343091463834,3.1694166687013237,-2.224045927626345,0.38211581358068075,0.17834649565395044
2.85473169,-2.4691115378001145,0.6324071408771128,3.1949632488183,-2.1141290950992846,0.38560552935752573,0.18238885166599847
2.894730562,-2.5410256855039473,0.5481784119577089,3.17393317930153,-2.030159467504348,0.4090029836001825,0.1840211977806266
2.934740868,-2.6079323158183483,0.3855695511845981,3.1875446849539126,-1.9250279259453662,0.4030221171864786,0.18258426249233445
2.974857774,-2.6619650551969416,0.29327939170637424,3.1900635494202945,-1.8539771927428943,0.39484557740595416,0.18281942204957471
3.014732415,-2.685223423905376,0.18547115422734675,3.167678427507397,-1.7789488333488086,0.4023741927912974,0.18323697403953798
3.054729783,-2.7051354459292063,0.05220481155801296,3.17203823899171,-1.6799201467074831,0.4119193297296391,0.17860008566809912
3.094740546,-2.724748642762561,-0.07221121549067394,3.185582025527494,-1.6018726142937454,0.4005852160714454,0.18508179558382237
3.134735302,-2.6975403140204697,-0.19715974787566948,3.2001191106219387,-1.5095878968198309,0.3933219446670198,0.18832633978282473
3.174751156,-2.7093266269584233,-0.3099074804087824,3.1849534948280787,-1.4019698085296637,0.40131856477064043,0.1920687299623783
3.21474829,-2.6922299971130217,-0.45491148120693287,3.1845343606530854,-1.3141937276138087,0.4163804531390115,0.1959200404170733
3.254735426,-2.6544512279029853,-0.5782025457515031,3.1231147135451587,-1.204492653623727,0.38661508301178227,0.1990469270991996
3.2947347540000003,-2.6138033741700046,-0.7138248713994618,3.161670558378071,-1.089597952835404,0.3910818145854164,0.19953353674363675
3.334740623,-2.552743945919574,-0.8229163875107721,3.1502004924964893,-1.0197041907973279,0.4048897096070895,0.19994982279961623
3.3747266,-2.4653718835897886,-0.9318767258383936,3.134909985837496,-0.9160997166986805,0.41433811159505934,0.20395953066553343
3.414738855,-2.422947772216407,-0.9987721399699139,3.1322652342065296,-0.8234961366593221,0.40380798781470145,0.19583900891242517
3.454737879,-2.326460244057295,-1.1074564474477204,3.152368797054694,-0.7411524128757686,0.41880646262918914,0.20269350252303936
3.494738595,-2.2216165525538893,-1.174416324044522,3.1673505399146147,-0.6591850147313826,0.4478575178526828,0.19540575122895815
3.534734658,-2.126599016831695,-1.2588643699433688,3.174560358195547,-0.5671433929467604,0.4323541483395963,0.19918612038514324
3.57481319,-2.034395608507842,-1.324558053625741,3.171632036838756,-0.4908099381268304,0.42969667333148004,0.20428511070357577
3.614752973,-1.915610721945973,-1.3905489162971982,3.222379233291392,-0.3852002253023407,0.44174995377604637,0.20894578525416882
3.654746044,-1.7672313818333054,-1.4509434576604976,3.192344455410023,-0.267552890845928,0.43710236298113136,0.2140548112189472
3.694734513,-1.6731789942375044,-1.482480895336348,3.1767114005526595,-0.20836405441782452,0.42751840174236194,0.212631658647639
3.7347352430000003,-1.5503206216068826,-1.4973283010856793,3.197227207216572,-0.11021031837267264,0.4268375310508666,0.21014446504567533
3.774735108,-1.4224498426733443,-1.5046462805438414,3.2065014784874335,-0.004860343400809767,0.44446407234643875,0.19876370569091592
3.814742256,-1.274021673810835,-1.5143080085695217,3.2118180373374754,0.07278612323662906,0.4348786448599865,0.20461532066576582
3.854738474,-1.1419982109332836,-1.4904297653677014,3.219238231272914,0.18244940495852763,0.432970718591209,0.2028786185838796
3.894752269,-1.0226997666294881,-1.4461956971374543,3.2075113485930773,0.24900225505817966,0.4381949700016368,0.2011140411879971
3.934737747,-0.9179224485780302,-1.430490184067347,3.2236655665905523,0.35550864042816577,0.4400073444546797,0.19515031533994381
3.974745001,-0.7981478732560567,-1.3797501287412346,3.236665545529797,0.4678128770416225,0.4234353454552166,0.19326019836959812
4.014756807,-0.6841944820515705,-1.3169839388836453,3.2442988605296206,0.5482571592372326,0.4221595116591765,0.19383463011320662
4.054736338,-0.5664059065311998,-1.2810737387790265,3.2527236395019896,0.6334348786821653,0.4304861902648101,0.19300713774084366
4.094735183,-0.4673150909226142,-1.1815630203943943,3.218714462286275,0.7375946760338129,0.422753160124118,0.18784451468453942
4.134733986,-0.3670944623757683,-1.0948106482340432,3.2336948685936155,0.8191651318779444,0.4147502370115298,0.18686280568552688
4.174865007,-0.274248791368432,-1.016817064282561,3.2411146532681734,0.8894025214345109,0.41992160233619136,0.18629373810871114
4.214761376,-0.2224248482568224,-0.8990959579644309,3.2168920462426582,1.0245531651253315,0.4409889149832692,0.18554130674233688
4.25473343,-0.11534227907373995,-0.7689370809138156,3.234451814768471,1.1293749058479288,0.45678388140223486,0.15694757367517806
4.294745149,-0.07461208280958188,-0.6699531130938352,3.2731118522422307,1.1601308013639609,0.48464128322612227,0.1182116179435237
4.33473323,-0.010291610434011559,-0.5606440587778685,3.3326035035434396,1.2095306334077582,0.5149327028500487,0.07938786625986474
4.374743991,0.034267878226157886,-0.41763327278970697,3.384293518195255,1.2462849371011484,0.5087226543070921,0.0390110959467913
4.414744257,0.08962736221733361,-0.2922328100378651,3.468625829501827,1.2706695235998695,0.518170753280263,0.0008202484672995012
4.454757625,0.12181491735206366,-0.1718705861307489,3.531692294244298,1.2552429296939283,0.5159795468026086,-0.03662764424852318
4.494750259,0.1644270274566526,-0.03180148324575888,3.587923069131225,1.2629848024367467,0.5188414730693784,-0.06665693184123304
4.534736131,0.22615473695569743,0.08366010311230473,3.6094644704244434,1.2266111464737346,0.46798912041214735,-0.08706951981035743
4.574812243,0.2845857033021499,0.2751390103377511,3.658048775127822,1.1800061169906868,0.4419613236447405,-0.10822129545515682
4.614732945,0.33335179557697353,0.3805960064110721,3.670160733301836,1.1036862787913158,0.4216908119607755,-0.12707670326019058
4.654810832,0.38865133567450727,0.5511154203753612,3.665936794239574,1.073031347159103,0.41964664548660896,-0.1422834210353061
4.694747957,0.4571578077346638,0.6474154060697808,3.693936899625062,1.0009786919549557,0.35408584524648545,-0.14767692384842457
4.734741665,0.5564279569207343,0.7961133972832907,3.676390194441107,0.9320085910225174,0.34083431008505055,-0.16201584092620994
4.774830082,0.6261578402907386,0.8813352926163829,3.6653358042908772,0.8802431751104596,0.3293431316927037,-0.16667182990529186
4.814753108,0.725877308038058,1.0032568574684027,3.605679795379627,0.8025207540562638,0.32177968319047806,-0.17719105684889144
4.854731904,0.833651738498774,1.1339511604543238,3.606464623510955,0.7002240700527791,0.29853434306234733,-0.17835924310593737
4.894747631,0.9293929680219588,1.1928645471683335,3.5589480988251285,0.6248701877860864,0.29972867277653525,-0.1887719362740295
4.934738408,1.035060270567632,1.2736912444604775,3.5136833015921756,0.562242780679652,0.30875014541926615,-0.19328284993503891
4.974741575,1.1491022705234655,1.3466563405863354,3.4773351839976137,0.45226350216801564,0.3045336319140079,-0.18905248669517657
5.014737888,1.2635628253233155,1.409198767627691,3.416671079610107,0.36900287614703176,0.29639490172187244,-0.19879299508385523
5.054736864,1.4133592866497375,1.4727097200471244,3.4017464648545137,0.28004248639107404,0.3032730754573899,-0.20271734449191647
5.0947456110000005,1.5543104581550355,1.5051387001159406,3.3598078790573336,0.1950002373336922,0.33219216328703005,-0.2065691121340172
5.134731736,1.6533407311013302,1.516127012069397,3.322004666509244,0.08725427337991354,0.32341779180743246,-0.21521072269692626
5.174815893,1.8304011206276272,1.534236841904853,3.2785862337095524,-0.01066422610505684,0.32654889544723265,-0.21693655389797856
5.214735688,1.9693174451707463,1.536548120871082,3.2779530903487544,-0.12538331474240652,0.34592014714429603,-0.21898460685097945
5.2547334,2.0578675307084437,1.511477646470003,3.2495700903340548,-0.1883230059072503,0.36642330024662567,-0.22315064364036824
5.29473529,2.2365162445713143,1.4837132073087622,3.230422875875662,-0.3211770538842402,0.373913699753116,-0.21654676942132062
5.334729784,2.322630914547106,1.4431772892872203,3.2149049565808903,-0.4157186491354456,0.3828518357766516,-0.21710344075138668
5.374740932,2.442488811982465,1.4166995052252673,3.199158870645375,-0.4789295870277165,0.41637383875799266,-0.22666159491561977
5.414736595,2.5472516405268433,1.3382931695813478,3.2127775214835093,-0.5566227419698037,0.42256866519728914,-0.22167281006375636
5.454750157,2.6494519931318803,1.2626420502077929,3.234684932600537,-0.6623445314413211,0.42897775031515956,-0.2248565483503998
5.494734033,2.7298271418636677,1.1963095043883063,3.232391074792313,-0.7579529351093884,0.45740083971193146,-0.23501633658171878
5.534809178,2.865689687753017,1.0814130038762075,3.286919701474567,-0.8577520654340297,0.4879929602673837,-0.2363486370740677
5.574742617,2.9243943509077215,1.0136155078118192,3.2655442358430347,-0.9629125049324895,0.46913660685872427,-0.23365317261928953
5.6147450580000005,3.018370129004551,0.8995870861429064,3.3094889541069064,-1.0353272204047526,0.47218282070812734,-0.2346163807334566
5.654725016,3.0891702601302278,0.7405183642529756,3.31716151319993,-1.1327761667995777,0.47683108621194453,-0.22858993524117113
5.6947522500000005,3.1141757219220203,0.6656190953065259,3.3100935405927356,-1.215756839000259,0.5205089031064227,-0.23605478342466926
5.734735127,3.166031138354514,0.5265141258596339,3.3374767982643934,-1.3103046396194933,0.48274090882888393,-0.22930263778481033
5.774736509,3.2148575038100935,0.408753872796163,3.328996808096427,-1.4049010595513522,0.47561275001260145,-0.22421745105355775
5.814739345,3.219172450766221,0.27969793199836857,3.3752475442835097,-1.4959561477492025,0.5033247991875514,-0.2313537920927789
5.854733479,3.2213772721696032,0.12731206139837845,3.3874919147413514,-1.594259174715044,0.5028450597831462,-0.23104541544292517
5.894734633,3.2320913663319253,-0.01960967186628744,3.409235428935079,-1.6972182995788043,0.49939049066526575,-0.22837269266380308
5.934727212,3.202023867785104,-0.1688917179564854,3.412079522984177,-1.7774213205221157,0.493740380892229,-0.22622805702041757
5.974837137,3.184550652645129,-0.26826960064498573,3.4186660748359805,-1.8590524127846915,0.5089055614181358,-0.22451180861461942
6.014746372,3.1643759501260376,-0.3901255098777801,3.459261568325048,-1.9464066461185934,0.4885239977474285,-0.21233143677908733
6.054740075,3.109884376196063,-0.5271725794911194,3.450402602318567,-2.023865106042846,0.4875189501509107,-0.2100433066285422
6.09472917,3.0548206584693105,-0.6563616385803509,3.4411551823108333,-2.1072960345296003,0.49643251172538194,-0.21621614910303824
6.134736122,2.950394436435455,-0.8138963370856509,3.5077902529319007,-2.218850165787762,0.48128128276612336,-0.20981281036369384
6.174819267,2.881832678386499,-0.8917008743258762,3.4519013791068534,-2.3008432167001636,0.46761519273330787,-0.20872831832653552
6.214729917,2.784236828621571,-1.011645075042931,3.4645289354598026,-2.4074786651550566,0.4643668378706285,-0.20909117579153416
6.254743913,2.687484930674293,-1.0860117503412068,3.4934867937125977,-2.480408755113054,0.46880652457696836,-0.2003210815725685
6.294730997,2.587680289241659,-1.1689728818702232,3.4892491141293482,-2.5707728890287203,0.45842052987955273,-0.19994777005392644
6.334740677,2.4876284274430605,-1.2450768638013208,3.4840198909510076,-2.640763941378279,0.4398927874050237,-0.18975071824308887
6.374742599,2.3522239147383814,-1.298541579020408,3.476424120921808,-2.7316664859816586,0.43611494765186676,-0.195921087520566
6.414756696,2.2300963357219574,-1.3804835305786718,3.4876851314211015,-2.803348485203556,0.4230285681886998,-0.18934964328089918
6.454736625,2.082447816602583,-1.4213656717369318,3.4391885305592167,-2.9130146596681197,0.40536444139473865,-0.1949351882209819
6.494742998,1.932395720462361,-1.455406507987854,3.449342800212983,-2.9927979886474154,0.39515753361123923,-0.19577293834638151
6.534747095,1.8203965204217116,-1.475463022222879,3.4709768259013907,-3.066997035752557,0.38877883837104205,-0.19717734890538582
6.574738426,1.6807984856859806,-1.4962827839747386,3.4329120525019667,-3.140846332252622,0.3885681466013089,-0.195459915306108
6.614768594,1.4947547045474676,-1.4786355104432782,3.430645417330104,-3.2459094088283154,0.35633796686615005,-0.19047164079053866
6.654726859,1.3755135808667611,-1.4552489724256896,3.3871963061704555,-3.3279586732033635,0.3509964669974796,-0.19924520830453799
6.694777042,1.2511261792589352,-1.4260895027388627,3.3464712705555857,-3.431436385428969,0.37278043769464947,-0.2007362701637914
6.734728811,1.1459709882365225,-1.42103867845888,3.3314535818421525,-3.4917783787350043,0.15364922442692222,-0.24320452368805176
6.774733975,1.0430961248559,-1.3748797431105253,3.212075995967382,-3.6333192823960165,0.0942256154598606,-0.27045686725397444
6.814732072,0.8860892241174293,-1.2892894512233084,3.0561140922049876,-3.7420811407671475,0.08268644640869359,-0.3013667038140474
6.8547358030000005,0.8222632865545835,-1.2458414928920518,3.0402026014901353,-3.829583026491452,0.21624877718184118,-0.2664095343299532
6.894739198,0.722253862863793,-1.1579426006974183,2.988200604222336,-3.9345419430832034,0.30301640832604587,-0.2439308006040052
6.934730182,0.6381613912916784,-1.0817771647814238,3.0112160805292305,-4.047074098481616,0.4037316508915581,-0.21061235093357536
6.974741511,0.5453889251171093,-0.9869108305706846,3.0529959054630673,-4.102279917020199,0.4888437869825279,-0.19149554529088628
7.01474743,0.4801745586655303,-0.8939372571442941,3.1242754957458407,-4.175081611596818,0.525234012633231,-0.16979537624140606
7.05473729,0.422899370495692,-0.7798685258416573,3.2143556585199464,-4.215110003729094,0.5610298368317472,-0.12714132384818821
7.094740555,0.3485695834418519,-0.6326255604562271,3.354602413455736,-4.2697882329686445,0.5843650818423275,-0.08972857178467258
