time (sec),x position (m),y position (m),forward velocity (m/s),"heading angle (rad), from x-axis, positive is CCW",throttle (unitless; -1 to 1),steering angle (unitless; -1 to 1)
1.002815778,1.9968502686317164,-1.0208134898085819,3.1367060814043914,-2.9395928135783596,0.4953424937258652,-0.20902502590320132
1.042754011,1.863673839990448,-1.0734305069886378,3.1459836894940554,-3.016209108134019,0.45302287700696425,-0.2047186146720272
1.082741885,1.7583608110140534,-1.0602082219985745,3.134136193563905,-3.101329924423219,0.42483254327592973,-0.205690959472055
1.122793033,1.6256675149388067,-1.0650572310490558,3.123570667311463,-3.2047446419348007,0.40240813970286354,-0.20619452714280478
1.162748402,1.5105607268492975,-1.0687523345769439,3.104420265528781,-3.3054537936142623,0.4113667931742919,-0.20673420429838438
1.202797987,1.4017915641736545,-1.047037362376982,3.093079442150864,-3.427874404960572,0.36986766403341564,-0.2029122208129327
1.242753048,1.2516842629492422,-1.0282440695232928,3.061774509677021,-3.5086061984513575,0.35628823615451477,-0.20205158202812162
1.2827927080000001,1.137604099160965,-0.9497304386732909,3.0229919880070555,-3.58152854102039,0.3564597042279532,-0.20328690270078797
1.3227514390000001,1.0409662526641972,-0.9125099387195182,2.9709865689187738,-3.6922642004642943,0.35604475798170443,-0.2010428768833822
1.362747643,0.9390330867783655,-0.8457686212886792,2.9562454464746817,-3.767792990445129,0.34533100845319686,-0.2034986473715724
1.402808178,0.855070161030918,-0.7779061205932538,2.9133763798777594,-3.8804433049307527,0.35110026813371764,-0.20717022869686225
1.442756517,0.7489306922387464,-0.7000738551000677,2.9246800891089393,-3.9710075566006666,0.37132947689515466,-0.21100561053082736
1.48274111,0.6846036580350283,-0.6168390252713722,2.912405309095688,-4.059928131179694,0.41188837344834933,-0.19380711404991852
1.522753991,0.6100223752893993,-0.5049963564225455,2.9743989573045284,-4.139554030018355,0.46045927617993493,-0.1611354285448506
1.562746551,0.5739185098559294,-0.42346384726327285,3.019771759517608,-4.1926590822232574,0.4985051493234779,-0.12914082152774853
1.6027893149999999,0.47548356465664926,-0.30006416941789427,3.063258499129833,-4.235082670097336,0.5318348645549461,-0.09520001139701986
1.6427509869999999,0.4361713819948742,-0.19610520462039563,3.1374205733401825,-4.295298597426393,0.525655250874329,-0.058197072873325185
1.6827451180000002,0.38878006774937585,-0.06660464657958265,3.2398520464380836,-4.302613417760877,0.534001985503949,-0.015838160881218546
1.722751266,0.330822899429804,0.027508467994474012,3.323203991022618,-4.319096105997932,0.5463139360763564,0.01962009536316057
1.7627496599999999,0.28259610758181436,0.15693652304331662,3.4143395868324093,-4.281845157771278,0.5152534652052557,0.045265036026160076
1.802794312,0.2283967932583278,0.27025499174932666,3.45838981615732,-4.274897454961202,0.4762708284216607,0.0715453038145643
1.84276152,0.14694806828013313,0.39155824109408466,3.498863896862305,-4.255935803952138,0.4483749880836012,0.0931341267779552
1.882808011,0.07263927188925691,0.5587066462936174,3.553592071616548,-4.2037117544277605,0.42806921222404337,0.11088370093860989
1.922740981,0.013881474114319557,0.6486619129512194,3.5792689073008424,-4.157129463139996,0.38030853357170114,0.12925037113395157
1.9627576850000001,-0.07140929680286139,0.7637696554310398,3.543635097765561,-4.122825116109569,0.3554161199322604,0.14561128531050782
2.002799812,-0.16141110453292803,0.9035229811171531,3.5457399423133857,-4.072586454693038,0.33636681681570463,0.15882261881572335
2.04276,-0.23938282262512692,1.0027749304399762,3.5177917874732625,-3.9740906376860647,0.3114697205393876,0.16991466051622686
2.082794583,-0.32657772375695504,1.1043122983638813,3.5482464876532314,-3.897219377059851,0.3023508105688782,0.1797942953162622
2.122752986,-0.4432071721608785,1.205206208009987,3.4994914774959094,-3.801922277469412,0.29747551598536354,0.18713470095060084
2.162752416,-0.5531807214244733,1.2809416171643264,3.4864262982950263,-3.71797845305763,0.3090938085530605,0.1919516117018524
2.202741702,-0.6872247160404803,1.3859130453351494,3.417799910495589,-3.6270946904087222,0.30682062887143535,0.19294715774630516
2.242752083,-0.7904524436331544,1.4305330992005723,3.3867570894070083,-3.5099017354379725,0.31068241835401855,0.1943842255918478
2.282739862,-0.9021174463612487,1.4809772340860337,3.3364350861823766,-3.439028567542827,0.33264793992682523,0.19409350125526859
2.322753711,-1.034354035685271,1.5070941050536562,3.3175838036757606,-3.3376892205287683,0.3677096109987004,0.19560824730182155
2.362753,-1.1599316118855727,1.5511974989843085,3.2863853694043006,-3.2731632421739842,0.3734058930374662,0.19401363179896366
2.402822492,-1.2991735770958908,1.5937623295292616,3.3213616665947936,-3.1849660294387614,0.38935341787399336,0.19509358241670471
2.442763594,-1.448988459514963,1.5606347755441998,3.300002234657934,-3.1092384003554745,0.40835333757287673,0.19701761991865774
2.482740281,-1.5884472167701282,1.5804753831074458,3.2980857228346476,-3.0220165686962996,0.4338331456328369,0.19494515435718077
2.522748267,-1.687048571585526,1.5561235603395853,3.2798997073542977,-2.92734036770042,0.41560227124107246,0.19834486212571661
2.562747936,-1.8197097548993655,1.5322342036833694,3.3021532292989684,-2.8236146942058933,0.4199335082999846,0.2011176213390353
2.602738498,-1.9307061989991399,1.4823467023745867,3.2989602028103864,-2.752839429699602,0.4440914806983493,0.20365723835613245
2.6427488290000003,-2.078568542630581,1.4704551457794064,3.298951902778521,-2.652664806003655,0.44284813527179956,0.19871604124098963
2.682740596,-2.18020012582466,1.361521642226884,3.306845154641399,-2.5845222774727517,0.4292379160727647,0.19906319964631697
2.722751959,-2.288614333863626,1.3161437151474444,3.3013849834865843,-2.5017813485574223,0.43890059008653215,0.20034437890219786
2.7627478,-2.435378440634589,1.2281637182299774,3.339359672407391,-2.431158791187608,0.4566202127916697,0.20402096109635853
2.802748893,-2.521052778143251,1.1337004915471363,3.340027349971897,-2.3510508319498826,0.44205402211083916,0.20287115930560895
2.842765002,-2.592586064738258,1.047969575669724,3.343708002388742,-2.270293296619752,0.43029750478920564,0.20517516089875362
2.882742371,-2.6710147989990873,0.9519891876704187,3.3388772029575007,-2.152977809389446,0.43017413212875766,0.2088688126440296
2.9227456810000003,-2.7681387161255104,0.8347562814015476,3.374407365607327,-2.0550899404751113,0.44731579679419575,0.2102071260894802
2.962841,-2.801342105283407,0.7088109226224023,3.329801942635067,-1.968871507604802,0.4055799459419786,0.20436196452935965
3.002811757,-2.883473722632828,0.5969283188017734,3.3631485146639863,-1.891867809081378,0.4026503895921776,0.20539834820742708
3.042754051,-2.926496436286788,0.44954447420926874,3.3198551319724134,-1.8133658174645335,0.3825932180956195,0.20420119655069732
3.082740507,-2.94008128831747,0.3308005956195019,3.3586789119574685,-1.7123340005486465,0.3683454021057812,0.2086619439767009
3.122745715,-2.9607440860934435,0.20282926032100673,3.2861034401075284,-1.6373064645993862,0.3474363276541787,0.2047896474824699
3.162748955,-2.967594384196953,0.06914523074070635,3.269956667958452,-1.5540953321975468,0.35015374358586254,0.2032347239190662
3.202745946,-2.979136521406633,-0.049894489357149074,3.268842762307529,-1.4414908549885352,0.34126739841498677,0.20138247855557262
3.242751216,-2.9386245109858646,-0.20114514616864,3.207990460189669,-1.3613852939136541,0.3315979158722735,0.20546035466174958
3.2827424179999998,-2.931769387597217,-0.30177917232734996,3.193753145725286,-1.277276550619006,0.318417809169165,0.20663213964486163
3.322762674,-2.8809135931709426,-0.4276356688794844,3.1479387035591335,-1.1881652689293931,0.3125551250230177,0.20795008152874664
3.362807944,-2.8456404830573234,-0.5528093583785028,3.166019426914182,-1.0944041856188764,0.31756361312511056,0.21363956732865047
3.402742145,-2.7900348173772573,-0.662294644018186,3.131871829373197,-1.0112942044967097,0.30978929053176274,0.21718062519195722
3.442752555,-2.7286646637013705,-0.7616184479703283,3.093402705587303,-0.9027786118629585,0.31366769525277094,0.21975168735339343
3.482738988,-2.630820041151964,-0.8469772443807982,3.048411259926182,-0.8275880944800439,0.3249181100377531,0.22198247290185852
3.522744997,-2.568219451230337,-0.9664350380685478,3.0019827485270785,-0.7276023735147908,0.3375617008998835,0.21611625242993648
3.562745093,-2.4729646812555153,-1.0338658798389344,3.025975754617454,-0.6446953701262327,0.33704930724563636,0.22054951244975948
3.602823147,-2.358062786732607,-1.100610996857231,3.00819109408727,-0.5485508782119396,0.35881950564992243,0.22712260976597287
3.642750876,-2.266147705737431,-1.1694621994108587,3.026300426828499,-0.46649019981742124,0.3955681257700293,0.233420464296622
3.682819957,-2.158587489861561,-1.2140856469654353,3.011102803254989,-0.37827003199044895,0.39293302180184836,0.23722376950957563
3.722784711,-2.048508301448298,-1.2669216461175326,3.0344752004275057,-0.2690741538316274,0.405813504781011,0.2402526723965196
3.762751446,-1.923877359405791,-1.2863807068005546,3.0401027249598966,-0.1881415502973592,0.42044321080905767,0.24253596058489255
3.8028100680000003,-1.7970172794336492,-1.2887595175961808,3.049339855033337,-0.10647755358398558,0.45074434096673344,0.2364391394647117
3.842753242,-1.680982295235534,-1.3105535513217355,3.0441964186550985,-0.016855670561859274,0.4358258756650569,0.236426696734357
3.882784174,-1.5666729561104802,-1.3136044290127185,3.1284613825696046,0.09289952570701752,0.4472853859831366,0.23700922672705663
3.922749528,-1.4362828384807733,-1.3253368614254037,3.123583977763003,0.18693906590498235,0.4656011288444462,0.2385898837762856
3.96274872,-1.310578460577747,-1.2785161196472743,3.1348885500953036,0.2643092769038327,0.4672540903416758,0.2392683659086408
4.002814626,-1.1976296110669997,-1.249683426752577,3.159883502959251,0.3642277933188389,0.45631890183783935,0.23663837536263208
4.042753557,-1.067381410856389,-1.1892907175667387,3.1574141844893777,0.46879443616093597,0.4587947591203381,0.23332169274355816
4.082742679,-0.9687832789321593,-1.1283844328603365,3.1916626729371296,0.5539070875584996,0.4802336706915516,0.22996061890178782
4.122749585,-0.8651677371342882,-1.0836921518876341,3.198810989688546,0.63559064606164,0.45753619959013786,0.22662727513952344
4.162747823,-0.7724983495168587,-1.008002750364184,3.203793012732946,0.7288280607048117,0.4600546301528774,0.22453762191743126
4.20282255,-0.6503792928739751,-0.9066312763482562,3.225593842993898,0.8205363270577065,0.4603830533851382,0.22086238896421223
4.242752902,-0.579506041951233,-0.8032831005913528,3.233255584125476,0.904161732331116,0.4821000569751662,0.2048133996543244
4.282740057,-0.5029250412966795,-0.7098339942888859,3.283546584667294,0.9829522106644281,0.5090865773749705,0.16702379313402285
4.322748074,-0.42092497645138804,-0.5940394560967636,3.330975138412479,1.0617314299184517,0.5358987281266008,0.1279582183595085
4.362749932,-0.34039943537365314,-0.48302768266760443,3.402724329118792,1.1082104460494704,0.562228311370139,0.089748600367698
4.402811273,-0.2932499329860707,-0.3441975923343247,3.4539827973882797,1.1429777672652903,0.550666046704493,0.04958102961637558
4.442749013,-0.22802765283905463,-0.2383637664822157,3.517180574625958,1.1415126634449013,0.5519266960491893,0.0073322860304756675
4.482790655,-0.17747122025831547,-0.09975137184637575,3.5971990668752727,1.1093447871622202,0.5518797364807384,-0.027409784265379638
4.522749835,-0.10285107209219402,0.03353824037034081,3.6612996847076915,1.0996962833400732,0.5315290234574661,-0.04473289234355962
4.5627464710000005,-0.04268827692783379,0.18241989269763426,3.682493901413084,1.0864297634633775,0.492574530859263,-0.06731157452530362
4.60275234,0.040854116769527715,0.2975115482575168,3.732946666304773,1.024756348162772,0.46914742127407516,-0.08685551817300928
4.642763075,0.1137152971956073,0.4237316885323959,3.7305746592235303,0.9448854621143653,0.45859141952092586,-0.10253552430342341
4.682745409,0.21366716327325425,0.5269056859748993,3.7260074986318035,0.8978395093083168,0.41699143522281956,-0.11258407928649491
4.722740312,0.3073614329045516,0.6456821114529148,3.711166026405392,0.8327387211809258,0.3856763067332853,-0.11965934074157401
4.762749803,0.39395220481111354,0.7624187277918436,3.691016828918692,0.7538063527614278,0.38253609829503127,-0.12489754028077787
4.802825595,0.49027625438921624,0.8601189685989064,3.662575194361647,0.6917700085983761,0.3721464854521578,-0.12618372905939804
4.842763373,0.6107236049720685,0.9567068156504063,3.6470752302579763,0.6127809163047985,0.35489135388518406,-0.12962757393978236
4.882799819,0.7189843180313448,1.0538428099538018,3.5989322611051056,0.531294280515121,0.3468469711759461,-0.13155525167921264
4.922745437,0.8525030878539644,1.1240496904146084,3.5724254766352503,0.45852229155736585,0.3506125705970202,-0.13263200478255543
4.962746038,0.9950568797841375,1.1860813691338876,3.5144017240578544,0.3794816091523263,0.33686732380669376,-0.129279681658824
5.002812135,1.1044795107625223,1.2293531552607841,3.4555302570838236,0.2946020076045373,0.3253441570142105,-0.13173158648398342
5.042744865,1.230098521930435,1.2933051597908107,3.4267612851410765,0.22797633094843134,0.31458642569052214,-0.1344086733415318
5.082739221,1.3788974537601544,1.3107125229817072,3.395216914962871,0.14226512608940262,0.3247105930163875,-0.13729735260602594
5.122741498,1.5154222898130467,1.330124916539586,3.3390406041799783,0.07489427508886728,0.3057145031423094,-0.14383844684885747
5.162736271,1.629207689672417,1.3357405835860525,3.317573699423545,-0.031551366474398865,0.2930430238355785,-0.1469862744764934
5.202749641,1.7502694839104882,1.354434157289236,3.2311390209946356,-0.07727586650059448,0.29688015836603066,-0.1510479787329653
5.242751376,1.8912596328773215,1.3145398692074106,3.208524322663163,-0.18036211943546612,0.3043070990605653,-0.15167466427800208
5.282803997,2.0226290757332537,1.32193324335394,3.1707756651698276,-0.251721060569269,0.28202700031477157,-0.15756406727913955
5.322769981,2.1338374590963425,1.263027515881725,3.11800109829886,-0.35250791110079616,0.29073453119702936,-0.16351439674981036
5.3627470630000005,2.2542440327600732,1.2380837646968084,3.0964875141191883,-0.4238521910067739,0.29142239079378124,-0.17137553126139227
5.402774146,2.374744819786602,1.1629546872139562,3.053320559610892,-0.5328897124936166,0.3136337338885071,-0.17185781800882213
5.442745513,2.4803630555591942,1.108843009224547,3.018007837211002,-0.6177369920056,0.3075713005529831,-0.1789900357347144
5.482800064,2.5519119954068916,1.0441179460958545,3.020855690829167,-0.7001303412454813,0.3135946516701103,-0.18779021329141138
5.522742052,2.6301632365256036,0.9703535376415642,2.9817835903732473,-0.7867047847469668,0.3417911723121416,-0.1958603106659612
5.562745689,2.736850122494896,0.8705736626013698,2.9530095698713983,-0.8657881846114762,0.3685915671272729,-0.19965012132248647
5.602744086,2.8160077774014978,0.7893819693503803,2.9341806114285993,-0.9679647268317243,0.36406099385185875,-0.20504876968233948
5.642749409,2.8766194989094096,0.6694484632943043,2.882005851050573,-1.0596397804803588,0.3957161877808326,-0.20990128532188224
5.682746241,2.9224480364273058,0.5756169333825761,2.9272419244105365,-1.1493639354473053,0.4270589372810678,-0.21434549165586864
5.722742544,2.9708001300334055,0.4653429187576104,2.937780540240323,-1.2603865042688402,0.44750160867702726,-0.21710167316039336
5.762742715,3.0068916540564605,0.370397061126075,2.955525418595289,-1.3545023819871045,0.46966972659088163,-0.2175838349000286
5.802746092,3.0277807916378623,0.24027904378837647,2.9550452535391636,-1.4685090743603029,0.4741882032638738,-0.21672966720571024
5.842745981,3.032492071594568,0.12945141544472716,2.9753841849790374,-1.5377440965331042,0.5086398266240483,-0.21440491018969815
5.882741616,3.037976585790456,0.023092701223664018,2.985799930755007,-1.641141015468285,0.4922582481021561,-0.21097540222004657
5.922744364,3.0168567090462375,-0.10889861921196765,3.027015936977229,-1.715960219980368,0.5010287414213462,-0.20925013292857167
5.962746038,3.012266719028854,-0.2266515246497047,3.081858490668444,-1.8173166707524886,0.5132460017519233,-0.20967038243331088
6.002778273,2.987692352883449,-0.35108504954712705,3.04829244127384,-1.9185784254424476,0.5241683791471743,-0.20602428150901425
6.042753766,2.938839225668837,-0.46261614992489264,3.0897254605347597,-2.008708935407414,0.5095222499875934,-0.20583577986532287
6.082743516,2.887476933699743,-0.5691835202052359,3.104061717120247,-2.115155104588803,0.50232793821241,-0.20555332486707706
6.122745116,2.8108364746263343,-0.6708182362568512,3.1252206898945536,-2.1926427143774583,0.5260807400234203,-0.20443487228229634
6.1627464849999996,2.7561017105075254,-0.7762917601882181,3.1683467025629803,-2.2948716638462803,0.5167801482133136,-0.195752271665541
6.202744217,2.656291447447734,-0.8721437556950177,3.1089833970507135,-2.3893718251631295,0.49067234193616555,-0.19509256650406911
6.242746938,2.551058099368833,-0.9475271051222782,3.140307645369688,-2.4791475208349625,0.4971877664987766,-0.19383223083844522
6.282749555,2.474776023064403,-1.0406160830693492,3.1625500637446486,-2.5827241335236186,0.4963262292648383,-0.19438754431457725
6.322746164,2.372330008034828,-1.0931771774505818,3.1587538055841815,-2.6428042976800734,0.5013012133581674,-0.18725622209899076
6.36275087,2.244284458916414,-1.171770706212716,3.1910244852719827,-2.7458474578143433,0.48253690239053315,-0.1863374990870612
6.402814308,2.128573845730448,-1.2145315050036052,3.213023974629983,-2.8193547271787542,0.47059381622841323,-0.1855600103886419
6.442750404,2.008155001180287,-1.2451389103272785,3.1824810550717997,-2.915546282965455,0.4846714015565223,-0.1847739430465385
6.48279261,1.8819494012109057,-1.2751240642440262,3.2051977808353325,-2.9882818285278407,0.44269427241734927,-0.18085051720170334
6.522742326,1.7574265946076677,-1.2921754503521499,3.1785726311980893,-3.0915161316314097,0.4178619893728316,-0.18398265830928345
6.562744244,1.646727826556324,-1.3033274569204623,3.1737123544846626,-3.1538962156580057,0.4200110221719184,-0.1859892435108529
6.60279561,1.5046373786602156,-1.30602618037691,3.1617142161425384,-3.259153480669486,0.4242102348647169,-0.18712946408702613
6.642746689,1.3916144848668524,-1.2945070566788999,3.149040119480487,-3.331795117637892,0.3885113908832241,-0.17693514517871886
6.682859734,1.2631809300158645,-1.2558433449029356,3.1376545995084273,-3.4312609479125853,0.37275587071438204,-0.18023409588286374
6.722751004,1.1164876223465383,-1.2312306798456862,3.11199789956722,-3.53690066182141,0.36994402467945653,-0.1854506433611521
6.76274493,1.024033806290265,-1.2031359812420959,3.0839501304237626,-3.617352511572427,0.3625205579327622,-0.19144941018305558
6.8027477990000005,0.9099259503994349,-1.1313618961666283,3.045814347830978,-3.696342197374381,0.34918658385871926,-0.1923387956249883
6.842789172,0.8208745865631927,-1.0528536717251338,3.002063550563468,-3.818279098215953,0.3521658061597678,-0.19448801316959868
6.882785568,0.7183159248021567,-0.9994396547303803,2.9701814349986444,-3.897676809468728,0.36189092883814317,-0.19592655689168492
6.922742795,0.6437582326545165,-0.9106036045793283,2.955543986750686,-3.9834998311103287,0.3885569254353527,-0.18911017219324872
6.96274493,0.5698854423520754,-0.8293958385987833,2.988020964186579,-4.072354260603955,0.42155646128522,-0.17615640139089953
7.002772375,0.4930886446930949,-0.7148171525744523,2.9950062091676015,-4.139038499118772,0.44655335719179245,-0.1638125260835231
7.042744021,0.4298540368502401,-0.6359765051127215,3.0230659722805253,-4.248697807984438,0.47602090585853124,-0.15161916819341414
7.082742902,0.3782313764434847,-0.5100424074387282,3.060938575367057,-4.295601791469151,0.4949038540132851,-0.11230345834973562
