time (sec),x position (m),y position (m),forward velocity (m/s),"heading angle (rad), from x-axis, positive is CCW",throttle (unitless; -1 to 1),steering angle (unitless; -1 to 1)
1.011545699,1.2064103817506406,1.1427463085701994,3.048751438698258,0.11544950277919239,0.44800607718249574,-0.23168863689296668
1.051499156,1.3311599007449115,1.14510672094374,2.9897241407640167,0.03382084388917829,0.41931067397860783,-0.22750396722117858
1.091567584,1.4466258450787661,1.155818031983618,2.9731359804046744,-0.07567402541097402,0.40723751573048406,-0.2257300264684429
1.13149689,1.573384795475769,1.1269344093133153,2.9582466897909323,-0.17140597761778759,0.39373672253660036,-0.2255464073270236
1.171543783,1.6804586275059126,1.126653482143048,2.954791150956312,-0.2622182021326237,0.38183867443464437,-0.22657163312477716
1.211549243,1.8116312111323845,1.081233650130847,2.9328975321338993,-0.3816623839667726,0.3680140894960624,-0.22454156905234848
1.251508083,1.8931791981851935,1.0207168662147525,2.9119606723968965,-0.4511649870473079,0.36037424026440296,-0.2227852079264783
1.291490942,2.01033315156031,0.9756500775545227,2.9038088809657228,-0.554919758798067,0.3662304310519719,-0.22460418967097023
1.3314966830000001,2.094487866280657,0.9160545281598339,2.8954737004907063,-0.6535613739597854,0.34785650884443164,-0.22492974229356782
1.3714988670000001,2.1727390772764017,0.8225476864160509,2.8481394129140636,-0.7372181987870223,0.3503412504278881,-0.22698768695819974
1.411523871,2.268305809620927,0.7487396132017902,2.8558442101160812,-0.842206250958007,0.35748342268503985,-0.23106568365425895
1.451500535,2.34208637947995,0.6631515729925005,2.8496800055521287,-0.9290099086027594,0.36470671990614634,-0.2330488166681429
1.491504964,2.3967471377740943,0.59256436328548,2.8164263196950188,-1.0169295393351636,0.3646617960418495,-0.2354699173785637
1.531544656,2.450896751248545,0.5118746017586483,2.8185235095276733,-1.1158399228910523,0.3709604448240245,-0.23785066596040483
1.571538694,2.4923268466345148,0.3703692009289966,2.81091216590111,-1.220730330543788,0.3910639048632186,-0.2396013252769944
1.611515394,2.5381770271750703,0.28061539493218735,2.774783892411533,-1.3229043301777197,0.38832961704152286,-0.23761111179452166
1.6514965,2.557133874569127,0.16796918774094327,2.8120681167354555,-1.418312893114171,0.39148736177691806,-0.23960796358804753
1.691508602,2.5694272709364374,0.04497147109090099,2.7707665375443393,-1.5103637649256636,0.40614609002224555,-0.2415151589669182
1.731503295,2.5729924334439414,-0.06444366582634858,2.789176799856057,-1.6160305877737513,0.43116173966061994,-0.2406863464420359
1.7714964100000001,2.557034798317597,-0.17845175143913075,2.783759039250506,-1.7067743783739546,0.41520992500217535,-0.23926908611028136
1.8115323600000002,2.5458081275062012,-0.2786211873034409,2.789748552890643,-1.7911536453479755,0.4210496366881116,-0.23903912726144674
1.851498604,2.515853560802837,-0.39602812092976103,2.8329136468021856,-1.8976394461297357,0.43653485948924853,-0.23855864785958097
1.891495189,2.4718402578346943,-0.5102687358250296,2.852371304850238,-1.9888917968659248,0.4358073185786347,-0.23881886312314926
1.93149719,2.4198429308063405,-0.6171829072813023,2.836715941518208,-2.084892226968738,0.43328274131249245,-0.23790899072652286
1.971502186,2.36265706172852,-0.6764698148937437,2.844133455821142,-2.1725246752704552,0.43372128965319257,-0.23664163752394468
2.01150375,2.292420400360614,-0.7941370250328672,2.8461240666639287,-2.266209298142558,0.447568689284088,-0.23164281722433444
2.051496938,2.202245008958785,-0.8671706845143278,2.8811007698721287,-2.374588492175608,0.43864650862359067,-0.23010677725304626
2.091541796,2.145343979667652,-0.9533648771572942,2.881457222281829,-2.454495110658569,0.4351226958418284,-0.22957614376380048
2.131548244,2.032102316441387,-1.0212535471695812,2.871253421186849,-2.538806511253131,0.4495633809211332,-0.23034195066417057
2.171583863,1.9571989223795858,-1.099058225774749,2.91382812183202,-2.632380750378875,0.44783168490442715,-0.2182492406444693
2.2114972010000002,1.8331443221345918,-1.138361611911666,2.9386395158895473,-2.714593402591875,0.4291241339381514,-0.22055289632221375
2.251498202,1.7259074606459237,-1.1748633733526515,2.911519118903256,-2.817304399597518,0.42786109622784485,-0.22395474847475302
2.291549956,1.5894483697791182,-1.2137795787066816,2.9072189598638225,-2.90793155031393,0.43261824108591845,-0.22786895924509212
2.331504805,1.5084645825239946,-1.2328203947756382,2.951542594958255,-3.0008455114497883,0.41150849842660797,-0.22785110150626983
2.3715006560000003,1.3623480579599851,-1.2484426435499472,2.9132778444921232,-3.0891851235605063,0.40278846966140136,-0.2268147303011464
2.411561944,1.2422065890239902,-1.2575803190384682,2.9003068399174743,-3.184579234180518,0.40483750529293155,-0.2258070495003943
2.4515018570000002,1.132662189164547,-1.2285156975708373,2.8885261985367956,-3.269645544823305,0.40712376806063605,-0.2251915675380903
2.491550342,1.0575996149005198,-1.2193627509607758,2.905631314587368,-3.3653176415504285,0.3895298981875549,-0.22286004756698427
2.531505852,0.9256983493442097,-1.1804709104236668,2.8834018167395534,-3.4802401299702437,0.38099339171045915,-0.2242449146558935
2.571519985,0.810953720882298,-1.1579397954287205,2.870402821771101,-3.5631280769195834,0.3894614979877259,-0.22557303282334146
2.6115341880000003,0.6981431327699633,-1.1186057794444917,2.8611821041588295,-3.655435161715563,0.4069051507296945,-0.22531038761895839
2.651499994,0.6342409095883829,-1.0456238276648337,2.863553926876519,-3.752498815325344,0.3792895648123487,-0.2170801653106722
2.691550134,0.5292870870361396,-0.9841972666861678,2.8344066720764065,-3.8365067415227307,0.3772461341582908,-0.2207736935526852
2.731500769,0.4501477501898725,-0.895610087546712,2.833426352171334,-3.9138244061617162,0.39648798105773714,-0.2263669921410659
2.771560393,0.37557309436728575,-0.8085014740828125,2.840707190978195,-3.9803700114134486,0.4141015303880421,-0.22215562582978632
2.811562045,0.2964479660463008,-0.7234956933573573,2.8694845582848822,-4.092143860484163,0.4422770458786241,-0.19680265701972596
2.851503663,0.22533701875047435,-0.6327990298742083,2.9244740191098875,-4.168777099195444,0.46091993782602064,-0.17168361026727486
2.8915598950000003,0.16768857463534678,-0.5267223695774043,2.952450338805179,-4.22630690266018,0.4881560244778946,-0.14429976092654384
2.931500578,0.11934233590316702,-0.3943930932915002,3.02779129256218,-4.296486941897631,0.4920326920801045,-0.10383585622815272
2.971515286,0.07340461189466177,-0.3008960431646661,3.112204347213569,-4.302639617575308,0.49329391009049794,-0.05570164283133939
3.011519225,0.014304899628364644,-0.2166275972424396,3.165735719925041,-4.316780095259354,0.5072477916141085,-0.009524155944095837
3.051501197,-0.04507046762603377,-0.07426699018879249,3.2567403678047455,-4.314626483981178,0.48822928656381837,0.021712465362952692
3.091497256,-0.08116030385560778,0.04210765760866934,3.319701190650161,-4.297099460454301,0.4553748974107266,0.05212110048005273
3.1315014310000002,-0.14775304924563454,0.15571645092179714,3.349324468246345,-4.285088351782914,0.43108809166608164,0.07753679619189287
3.17154348,-0.20785776341416728,0.29270341793181603,3.3550703466445624,-4.214362801480944,0.41402710031307266,0.09990323763763109
3.211497128,-0.2760012993784965,0.39573668073828433,3.405583995358549,-4.194314759577621,0.37275371683123154,0.11728794267192812
3.251497905,-0.3421618791383224,0.4999111021895751,3.421049937865551,-4.148879844765494,0.3443726286838399,0.13483881099554712
3.291557439,-0.4316726289672251,0.62971227015811,3.3833830531314453,-4.041406749177837,0.331018598809008,0.14850029466740347
3.331495094,-0.5270263237383901,0.7130146893258584,3.3793276513739903,-3.991415730459232,0.32331546717827997,0.15991105883345713
3.371498188,-0.6201599395728882,0.8342170587699875,3.3550405329223163,-3.8812939976575733,0.2967911648431096,0.16963436813797875
3.411496891,-0.715665564570223,0.917304877394238,3.345313069917798,-3.822476200721668,0.2927669071564087,0.17609793621624784
3.451496386,-0.8467180039744705,0.9949012824038211,3.2903379633020027,-3.7252860974944744,0.30015167357798767,0.18111339214897543
3.491499387,-0.9436055779722736,1.058538111488697,3.2794716749290482,-3.6263486698480807,0.3059931727607853,0.18290121607163815
3.531575902,-1.0404306048340253,1.1311323648335847,3.2515550531098465,-3.52718276775714,0.3050419771900653,0.18384572928075882
3.571555613,-1.1659610174558785,1.1734733609107166,3.239158006831105,-3.4308571695684686,0.32187472679497786,0.18305869600583505
3.6115067,-1.277464834755939,1.2095826915739225,3.1825904079462766,-3.3532339115770133,0.34462825431206723,0.18043403076817033
3.651496704,-1.4233414963429367,1.2534951364107527,3.1652316295905476,-3.2541757675368577,0.35299767556193035,0.1801226399730888
3.69155618,-1.54508241594441,1.2575529611099734,3.160254309401407,-3.172828660181726,0.36148294550103405,0.17954923175599782
3.731508893,-1.6792059933109997,1.2534347057668036,3.1646829688543643,-3.075267825535998,0.3887897774093224,0.18030731659194923
3.771555308,-1.7872976640721137,1.2492393336948013,3.151400274058653,-2.9901918990263296,0.4007786784945879,0.1750539341277198
3.811497523,-1.9288563485483832,1.2383692170066027,3.180957923665808,-2.9245775106176466,0.39380822918053526,0.17666504340105676
3.851507024,-2.0368290818462507,1.191191588449983,3.150272217827217,-2.821327358831868,0.3898908132438651,0.18029572800079757
3.891576923,-2.150491688333224,1.1574272798441227,3.174866253013288,-2.736659933626485,0.4135943172386928,0.18335468917613998
3.931505144,-2.290132009775262,1.103899297726785,3.160774791122209,-2.6550775521690166,0.4015130821337925,0.17289875432183996
3.97149198,-2.3801317178874086,1.0395858516370817,3.1673671026741372,-2.564738377862127,0.39109952671042053,0.17633454140687982
4.011535135,-2.496391242045071,0.9747956133085953,3.172839059532512,-2.467696162113956,0.38809051525700516,0.18002999478547146
4.051511906,-2.593316977337971,0.892704278658954,3.2002217709952503,-2.391979981627534,0.3979211072239045,0.1842239095824227
4.091555386,-2.683164940226023,0.7961889989650263,3.1646523368964883,-2.2942033760828173,0.38467623631857256,0.18545501661989033
4.131500047,-2.7696482645550815,0.714365376619423,3.1612580737395555,-2.19904025269084,0.37251490054177516,0.18606632269894302
4.171526451,-2.8348885353740827,0.6080669854287347,3.1453011107679405,-2.1265165871612934,0.3701460726438193,0.18752833510315683
4.21150828,-2.8941945962225226,0.4993399543391557,3.1767828874012314,-2.0358515196227276,0.3908447473406802,0.18717345396888435
4.251502005,-2.9503550130694727,0.37296109023443025,3.1457643269723228,-1.9425005276431735,0.3524636483782289,0.18970390002128354
4.2915138,-3.001242476535228,0.24771832896807,3.147190552409381,-1.8665387825981326,0.3533803373048314,0.18845596360015973
4.331497491,-3.0383918504676144,0.14100175324331235,3.157368638186613,-1.7753205162525867,0.34711001160162636,0.18727390590833023
4.371495397,-3.069989723352227,0.01012469568827261,3.144659457418936,-1.6845928226961477,0.34239234165966065,0.19067782885240425
4.411559209,-3.08664892461178,-0.10043898949524782,3.153949262750598,-1.5884738043837878,0.32282705379778237,0.19113669382938475
4.451516919,-3.1008952236438114,-0.2308293956823791,3.065009992857776,-1.4987316948427722,0.32192652768307867,0.1916690994141173
4.491494166,-3.072127281955477,-0.3572219128982222,3.05105961054044,-1.386218809274338,0.31120443263372227,0.19424102963416004
4.531548559,-3.0428305817204566,-0.4802131264755499,3.022787078402715,-1.318212628020604,0.28620454026772835,0.19308881069399553
4.571492807,-3.0061508658692118,-0.5859635642997454,3.0097421435758323,-1.2372484161287671,0.30993108157492644,0.19444427615472193
4.611548604,-2.9789694155939115,-0.6872449110924105,2.9790590016205223,-1.1442896961181688,0.30878339047355113,0.19460534073944974
4.651500926,-2.9241664472815834,-0.8031116470471923,2.989391860515755,-1.0545526265523928,0.3152158888959506,0.1956041582660529
4.691585267,-2.8541108144111376,-0.9193373159827178,2.953314289705972,-0.9548135454526941,0.30222673394736366,0.20075444024937167
4.731498229,-2.7857369856899243,-1.0113719588669745,2.9256104487579706,-0.8711635427863887,0.31023960724471206,0.2067442510752218
4.771492829,-2.7418958598681527,-1.0844692854353908,2.9147282960224605,-0.7847140760799338,0.31927425334503684,0.21284380161657074
4.811515306,-2.6182822805003987,-1.1724377567209903,2.8973995359571076,-0.6883277584937434,0.3398794209609211,0.21558158824861495
4.851517691,-2.54058665238467,-1.2493080334847033,2.8745153651827136,-0.5837079361956328,0.33865673487089604,0.22033633402130529
4.891497074,-2.4441858447225995,-1.3136024783007707,2.8825300021415443,-0.49248282818061656,0.36603548859804413,0.22429936832331657
4.931503333,-2.332739402363755,-1.3562385420230745,2.9271829232142643,-0.40789260538486466,0.3915293997742236,0.23129136111832144
4.971538238,-2.20422830374379,-1.3951707748987419,2.8994938579588374,-0.3158718142306234,0.39960009762512566,0.23053333219107316
5.011537621,-2.107797117283556,-1.4633364019680961,2.9219398295880867,-0.20276425737807294,0.40977256054363803,0.22975562733358074
5.051504495,-1.9977465361572988,-1.4552619783679168,2.963116204750913,-0.1127604700401458,0.43114019514546253,0.22923244626841416
5.09153547,-1.8800838142304643,-1.4754102306609538,2.9777801142713627,-0.015277362621432379,0.45149248530069813,0.22691417764950547
5.131503496,-1.7488290526890808,-1.455360279879159,3.0434583554028363,0.07621622118756578,0.4458182774975265,0.22500745607340444
5.171487542,-1.6355553216001046,-1.444210791943093,3.042876073828775,0.15208214692633204,0.45916430722962576,0.22419298049925834
5.211504016,-1.533920575172156,-1.3972523805593362,3.0550567454179167,0.2501840803399615,0.4763264343398318,0.22341297978480643
5.251499298,-1.3952572344241594,-1.3870647395565407,3.0975059931153033,0.335209782738251,0.4655015571644882,0.21881512531043829
5.291574892,-1.290435371470456,-1.3487174667369373,3.1386166803519004,0.4375062724741417,0.46418433871908577,0.21581578201456922
5.331501677,-1.2007643116201745,-1.2739735619425074,3.1411648026117795,0.532197301227272,0.4782949841484495,0.21297988946507973
5.37149815,-1.0751346793898324,-1.2333855301594223,3.149264603395914,0.6222789227158159,0.4696616216477378,0.20459295353588122
5.411525618,-0.9566199787216227,-1.1460572166030298,3.171497435156911,0.715480026650837,0.45915624205146593,0.2021132539566642
5.451506161,-0.8843145906817933,-1.0465457280802326,3.2076963373599754,0.79987870642349,0.4506960894071838,0.1991431976544562
5.4914964490000004,-0.7931752498998973,-0.9708245495184715,3.208759880127179,0.8982882092290806,0.45717984538748524,0.19728607765775352
5.531504202,-0.7125266445543887,-0.8662878667324705,3.222190574741404,0.9788352721419881,0.462764362289579,0.17745322954014478
5.571492968,-0.6264697311682309,-0.7440715830312008,3.2683017324799604,1.0497751338730872,0.46929338954826555,0.15096518075398446
5.611515708,-0.5663603485561961,-0.6431060253328909,3.3137443445661665,1.1149785252527,0.48340664620038476,0.12476027898362592
5.65150027,-0.5130929853243684,-0.50456155314462,3.3434276948054866,1.1846985143868949,0.48874531823495193,0.09829902902871362
5.691573919,-0.46607501201258983,-0.3976152608563422,3.3933032685139954,1.2111460335545958,0.4839053284590001,0.04878316995276468
5.731498913,-0.4168125794645096,-0.26867486055073025,3.4566704258098984,1.2084849520504044,0.49000522330827456,0.004153548100440909
5.771492988,-0.3447192357820605,-0.15883205127971545,3.49489792589427,1.2151520393230206,0.5069603194540453,-0.03592394372110005
5.811508389,-0.3138771192325614,-0.01624741206863556,3.565858100205872,1.1676285140017562,0.4774220153785872,-0.06134584359002174
5.851501532,-0.25485827739618694,0.1172015069531618,3.6218022463646333,1.1796136898439769,0.45500541453625576,-0.08850363674659062
5.891494494,-0.19403768401501892,0.2591919955491347,3.633057837940555,1.1284992478202682,0.44173535613465686,-0.11069711098818417
5.931505036,-0.14122191593366634,0.3910257314884336,3.641169355657932,1.0811925835635772,0.43337790762075756,-0.12953792064338499
5.971552059,-0.04938882123492619,0.5083927302130071,3.6549251482941933,1.0125843909309755,0.3963419814275475,-0.14194847474296268
6.011501283,0.03774882039447073,0.6348845278786549,3.619190210487732,0.933566061217626,0.37901728108939686,-0.15318035936532087
6.051499142,0.11043494283958061,0.7443906295018222,3.5940961041729347,0.8460924047704006,0.37960643369422536,-0.16042781779283757
6.091603902,0.22253311011478918,0.8842349934650882,3.5563970963915232,0.7764876057415241,0.37052135873528125,-0.16358941961738432
6.1315397,0.3018652722491204,0.9664011911765936,3.5522666746729117,0.6952351660310407,0.3603743296351816,-0.16574441769766646
6.171532609,0.39682634876638573,1.052001087449311,3.50264765655755,0.6156217266056344,0.36440878848818303,-0.16587696036947402
6.211508323,0.49247996490571594,1.1415168384201373,3.4835672944476257,0.5478242264675308,0.3785886554040128,-0.16672688233095673
6.251511738,0.644424522814179,1.1866636506665567,3.4583722644445833,0.4685742040258968,0.3567032237796901,-0.16409252924350629
6.291585443,0.7605149693074648,1.2633631995081858,3.459608144236092,0.395078345085014,0.3594234645011401,-0.16454147931370128
6.33149558,0.8948550495965536,1.3274274963891841,3.384650279464173,0.28805805129775786,0.3601833176281051,-0.16676549382286776
6.37149925,1.0207394216371033,1.3579888743736317,3.36595617859563,0.2244200253253974,0.37219213892607345,-0.1692862020020718
6.4115492320000005,1.1373999480828056,1.4001537863358098,3.3346325258807723,0.1421411393815671,0.3395051876817799,-0.16897550243158846
6.451499552,1.2710606430221485,1.4226211023977966,3.2922632613054947,0.05949171236664737,0.34206736510986513,-0.17028689657054286
6.491492198,1.4253847715341705,1.4193748257822478,3.2639590747624543,-0.006211568623046207,0.3431977862674997,-0.17255031786513764
6.531538598,1.5264171526154442,1.4263125273703934,3.226895578894732,-0.08819833369481521,0.3514049659516943,-0.1648710123371927
6.571496855,1.6588473461800544,1.3974878420915249,3.1904592054918197,-0.18434924163865787,0.3290145993365354,-0.17014582623479899
6.61154466,1.7865118383100556,1.3799840407290747,3.1390400374663585,-0.2463355402595286,0.3202704806512307,-0.177538074566842
6.65149991,1.915264087526282,1.3301418804948957,3.124405810662537,-0.3340063711002263,0.3311993330625219,-0.185769934222082
6.6915242930000005,2.0235913248184567,1.3253624812711804,3.072258915974898,-0.41377680229012437,0.3253035610165674,-0.1912962234640298
6.731497387,2.128045411761268,1.2594102103856213,3.063288297840256,-0.4935274386557815,0.3165482479801226,-0.19744229450219114
6.771495854,2.2361920381480034,1.1860309083610039,2.998624973081058,-0.5805563823697761,0.3182906988625078,-0.20381332638737215
6.811498023,2.3506172230089795,1.131248971796046,2.9918130472720783,-0.6845334609379582,0.33634538898261734,-0.20964429604347862
6.851505809,2.4310615307874164,1.0522952610618963,2.957331911365295,-0.7695124521058865,0.346039739650397,-0.2031727516314722
6.891494124,2.507251881721455,0.9561916904413728,2.9544905348146533,-0.8420548785761723,0.34822060373561814,-0.2094509076246662
6.931500382,2.5789381017404165,0.8886080556588092,2.9093648546018773,-0.9421592562753601,0.35158117031309594,-0.21604467917335146
6.971502969,2.646618878429213,0.7710307391642268,2.914693684895675,-1.026133512289377,0.3802036395432856,-0.22246922528366167
7.011502678,2.71545463406124,0.674830365311832,2.8851493305984786,-1.1277347109805156,0.4127771186114966,-0.2296179622939422
7.051509389,2.7534288568936365,0.5731723576104787,2.885911517018243,-1.2111815506014076,0.47415113291031163,-0.23461532921168668
7.091590655,2.783801667973848,0.46761459824883206,2.9061926498440167,-1.317085844282659,0.43335127556190567,-0.2374557225463809
