time (sec),x position (m),y position (m),forward velocity (m/s),"heading angle (rad), from x-axis, positive is CCW",throttle (unitless; -1 to 1),steering angle (unitless; -1 to 1)
1.001739862,-2.58964473537783,-0.06341787899436463,3.050302580240005,-1.6335224685052792,0.33707616839520654,0.2264457562330124
1.04173075,-2.6096089339010033,-0.182366996545478,3.0328610885094416,-1.52052271697452,0.32866802655646127,0.22627733922121646
1.081724256,-2.613471975251473,-0.2943390165421838,2.983263664134292,-1.4188630094229793,0.33069902209179175,0.22586469122389943
1.121748413,-2.5798044006908385,-0.41394744623790036,2.9880109481393857,-1.3149448023391954,0.35414014890701495,0.22281108925106394
1.1617378170000001,-2.563276818515242,-0.542906799899341,2.986801020356466,-1.2452187705490627,0.37982786081074876,0.22018727349548828
1.2017293549999999,-2.502876782122612,-0.6468685829672169,3.004138531515418,-1.15171411046108,0.37428740490763573,0.208290145873846
1.241723476,-2.459789358863175,-0.7601686081689512,2.9454125613057354,-1.0724844230472328,0.36928933772557504,0.21079708526174587
1.281723837,-2.3904007009552726,-0.8871187752750374,2.967170036627237,-0.9627560483745448,0.3860968747013797,0.21550674443153348
1.321748823,-2.3465325453372436,-0.9630432597496333,2.9785137201229572,-0.9141175488012006,0.38047839986608784,0.21963773819623197
1.36174517,-2.2740642887231184,-1.041963019696871,2.9777703632565875,-0.8186599475514837,0.38179516514299544,0.22180105838366815
1.401740028,-2.185120263769428,-1.1425041262048525,2.98715847152047,-0.7351078536415803,0.3749761811963369,0.21854850211257942
1.441751936,-2.0841571512990558,-1.2251875392494773,2.9641547500677894,-0.6384901889270468,0.3887307992914502,0.2271328536032154
1.4817294540000001,-2.010472067777918,-1.282605735189712,2.996172459411693,-0.5581328031838317,0.37419316821048937,0.2246964258847677
1.521725102,-1.9168035947908166,-1.3568002709272122,3.0034192502280366,-0.4645485006806439,0.3650103822082872,0.22885697448701572
1.561734648,-1.7852834424552229,-1.3926249644037587,3.004198323139397,-0.3782296213402481,0.3725218527788321,0.23258502714521775
1.601755409,-1.6749129777523528,-1.444306917405554,2.981158210723965,-0.31439565801333275,0.37111153849929657,0.2351152392239769
1.6417824680000002,-1.5718220880743674,-1.4716556531613934,2.956881524030053,-0.1946099003922564,0.35115560991825395,0.23524835532038904
1.6817243940000002,-1.4504428443088582,-1.5029413930596622,2.9447480330758444,-0.1114594350417474,0.3570085693757158,0.23439937325309868
1.721753402,-1.3431027172916385,-1.5162118197537613,2.945890705842913,-0.014616443469620467,0.3685189054299959,0.2350266961959084
1.7618042919999999,-1.2094327039164452,-1.5133051349302282,2.955323014906764,0.07590137192533206,0.3739764893089443,0.22937138450138173
1.801821977,-1.113464591481691,-1.4979794502816692,2.95381204982076,0.18555185962748738,0.3674662404139181,0.23179981779297001
1.841743442,-0.9789526391636525,-1.4865909862570554,2.9542056517820017,0.2863607999918511,0.3743590550294386,0.23446726943884047
1.8817827020000002,-0.8552366726327043,-1.4497732837030242,2.9101914989029214,0.38971234114747444,0.38738910801827403,0.23696884516390218
1.921814257,-0.7872315516441467,-1.4051922833017338,2.933762443488709,0.48406936300693704,0.3837199033901814,0.23363620225715429
1.961842472,-0.6449815950404372,-1.3463701012560718,2.9009896491205973,0.5938712731452527,0.38489340499879343,0.23235171735074983
2.001840203,-0.5642459464488518,-1.2833675655730856,2.905562953680631,0.6527572212456496,0.4043736770883169,0.2305134854313475
2.04173838,-0.4735319981704283,-1.1994114611168982,2.909644970678118,0.7619685007653945,0.427207934879518,0.22803469359502918
2.081728402,-0.4187151796493974,-1.1566180397860528,2.9139730345753443,0.8147954074328108,0.4293413107415585,0.2168506610064746
2.121741546,-0.3077222018401747,-1.053796080402044,2.922981560076123,0.9393957905421009,0.44348459470320695,0.21146659055069217
2.161750533,-0.2356666806107071,-0.9414262215185145,2.979541223569925,1.0164281773078994,0.4599554782706238,0.20573947099714013
2.201723654,-0.17587985878520115,-0.8338397724114779,3.0291765568234617,1.126865242537306,0.4876133991640898,0.19165776436079002
2.241721725,-0.121356932285483,-0.7548755743977746,3.0644284100116774,1.1613247602137933,0.49787642975984947,0.13241653246293175
2.28172686,-0.08506039343149109,-0.6085683419775695,3.116192025969671,1.2133214588894405,0.5126614704909512,0.08088350813955236
2.321747998,-0.010612087126284541,-0.46678370097820177,3.2201911650868094,1.2249926295564217,0.5310772995449161,0.024959123166957427
2.361727849,0.02933169176619798,-0.40472700701600767,3.3058036059794675,1.2104742378955913,0.5122200741299802,-0.003635098916235797
2.401740278,0.06726970444172438,-0.2699010247831535,3.3907190503528875,1.2441422381460758,0.4852660688133137,-0.039521375902732345
2.44173874,0.10378609555284246,-0.14621157272663501,3.427987512968102,1.2265677421891619,0.45504744656659885,-0.06911179359964213
2.481745965,0.18087000193226418,-0.0037037283828095977,3.4993997276765145,1.2117571496375652,0.45276354748015885,-0.09396639881701281
2.521748456,0.22810877141451613,0.10973566158903514,3.5451159041077887,1.1910687436614171,0.45150226135651855,-0.11761918516909622
2.561774093,0.27923876829063615,0.2602412742233258,3.5205596949837106,1.168443564872579,0.3628894556562265,-0.128195714432392
2.601732079,0.3383437017321082,0.3756011633547332,3.5366535695325743,1.0841275255664657,0.3292984489690768,-0.15399853578543066
2.641820197,0.41467271729490063,0.5093380687509829,3.5227658429495867,1.0353766849580308,0.31314547718793023,-0.17749592994476399
2.681790994,0.49431760695303195,0.6134334416852115,3.48092141518838,0.9562087320135494,0.27382266010225326,-0.19363118568761578
2.721747115,0.5838612513717328,0.7281844548045902,3.4781314186569428,0.8711922296851499,0.25257439984592434,-0.2023353360725021
2.761726279,0.663911718298037,0.8403825149113922,3.4094251802893694,0.7716617186218754,0.2481884045489624,-0.20714000698200172
2.801844973,0.739413891441938,0.9214356915102142,3.3468339714423094,0.6950210889035298,0.24718492960513688,-0.21093805435117688
2.8417297440000002,0.8548117083123742,1.0074221531256817,3.3015015525380016,0.6013790301559592,0.23504856641552835,-0.2136261461138101
2.881739388,0.9795764020657699,1.0827063571583033,3.235666301335781,0.511371052879223,0.2365594025771343,-0.2166682051803354
2.921728279,1.072819888656456,1.157319250959061,3.2177336751566834,0.4269614314688725,0.2548374437896818,-0.2196935026681361
2.961727353,1.228255426440731,1.2238560713033,3.1643514534269497,0.309546901299973,0.26720605341764186,-0.21968217104333468
3.001814529,1.2815364242986431,1.2375069489233599,3.1377517621208315,0.2775892591165652,0.27711690993538535,-0.2238076640538857
3.041749152,1.41909818087694,1.2783416568662191,3.1153985783546414,0.15588613351622033,0.28981918089459896,-0.22836705472486532
3.081721576,1.5491741386059457,1.289459505869707,3.086839251203634,0.09279112676208587,0.3191592486857836,-0.22770983414773846
3.121822633,1.6984951089907463,1.280138599949071,3.060402242484745,-0.021146771289079457,0.3272845863957183,-0.240449000895236
3.161839107,1.8058520440542516,1.2819413210548565,3.0534270957148197,-0.09379861657643622,0.33408480452014266,-0.24013012909482812
3.2017789580000002,1.9215353982744094,1.2736332741978358,3.0195805665366717,-0.19002685744158934,0.3549130735420819,-0.2464945227489923
3.241789007,2.0487126130802547,1.2535041144308907,3.036707466023291,-0.28598021842804533,0.39369941227774163,-0.2507293536720127
3.2818358659999998,2.1547551437628796,1.2163630680755237,3.023882372042439,-0.37517401432360276,0.3757440223609891,-0.24769554006813654
3.321722066,2.2570127613463953,1.1609395405917615,3.022746263563872,-0.46349090748103544,0.3823325306576315,-0.2515717546515928
3.36184626,2.3796477944765804,1.0825618534982198,3.028216278256305,-0.55732531817489,0.3950312410633699,-0.25451302431256645
3.401734673,2.478178754768029,1.040176292039112,3.033906509416799,-0.6647860966732642,0.3921512903946181,-0.2540484442686925
3.441827574,2.5523720272835306,0.9427373122050983,3.0016617689521734,-0.7599576950825342,0.3958019953997052,-0.2536710963831311
3.481738746,2.651854255289146,0.8477434729111527,3.0247146053783074,-0.8370177480297103,0.3971746573568333,-0.2510902283773967
3.521738858,2.7136732023137102,0.7646730576932926,3.0085816561780176,-0.9343610215046354,0.4123432282206727,-0.2502263439606141
3.561722104,2.8141994261911107,0.6411184510466014,3.009399020653049,-1.035769292965496,0.40888216473658096,-0.25106277732815346
3.601723787,2.85058699764682,0.5555791993367722,2.9935275937772534,-1.1317837443713543,0.4046540665292023,-0.2508605346830917
3.641807007,2.910618262437454,0.4566436010085966,3.0086856693520994,-1.2174899989515708,0.42079305923998794,-0.2506456976592514
3.681857063,2.9389047141473292,0.3328576522393686,3.0563601107942535,-1.316675919298512,0.4239194819191688,-0.23650845023287298
3.72174423,2.9646970238833545,0.23201845269562862,3.028011053985398,-1.405939234079378,0.4150362898283504,-0.24344389769502967
3.761839053,3.0040560713708744,0.09449514483286059,3.0377048906451214,-1.505391849477326,0.41592519889145085,-0.24234773949282173
3.801818059,2.9954058218154556,-0.014962025892737128,3.071558591574187,-1.5852976654871176,0.41771522335643985,-0.24276789025887222
3.841738529,2.9898444649759206,-0.18090824390339388,3.0412430691814794,-1.7034876247280908,0.41108949729607097,-0.24327433293584988
3.881725291,2.9620838009960377,-0.2651255754072993,3.049975846496931,-1.7530813718769223,0.4028954980953765,-0.24338693855878832
3.921753659,2.9444855182733356,-0.3865799909091561,3.0471648269472587,-1.8488880237763516,0.4006434383978311,-0.24266679032551045
3.961731651,2.890683379760513,-0.5010516839931606,3.0458762478921115,-1.969931209126793,0.412375244433397,-0.23616878607769207
4.001801527,2.8472461126743913,-0.6043744316825974,3.0316430145344104,-2.0307367051622944,0.3862733964592405,-0.24417342266339193
4.041728144,2.796527395653398,-0.7049023029156839,3.0287198996660343,-2.1548328997070936,0.38285848794749117,-0.24513316771849747
4.081858707,2.723816544754122,-0.8114323141247306,3.0088725445057367,-2.244087911718289,0.3818916752794871,-0.23743463568011408
4.121728829,2.6525474666020865,-0.8972562900148098,2.999369827418677,-2.3355208768737152,0.37974629793684705,-0.2450636555814442
4.161728392,2.5969303501499783,-0.9897276321181443,3.003100103294322,-2.4102103810544024,0.3723304797026989,-0.24210335740181718
4.2017489,2.4601999332677718,-1.0636858066201267,3.003144441804712,-2.5278259614221517,0.3742855806393033,-0.24042245875246337
4.241727341,2.3709989873318484,-1.137246209424886,2.9990730524328013,-2.6289031476777316,0.39516309460000215,-0.23748637058360356
4.281725519,2.25168187110528,-1.1943537134438427,2.971562347136558,-2.713077359005124,0.38399811083339547,-0.2471991246817001
4.321725848,2.1495421544449584,-1.2200964347924064,3.0175800072202583,-2.804588867311916,0.3768053615980015,-0.24217109565263006
4.361724406,2.0281502913639415,-1.252436396452852,2.9846634999081267,-2.872932557429518,0.3836054576959476,-0.24440410794726117
4.401730118,1.9208697620815394,-1.3114931463699135,2.993976405655913,-2.9675637818764398,0.40063013946439413,-0.24230169310644195
4.441727716,1.8281550943465978,-1.315466048857277,3.0165637024774186,-3.0447102882020505,0.3863089417381472,-0.2447997779585056
4.4817269490000005,1.706415014400263,-1.329458398366568,2.9943930232338625,-3.1409614866535445,0.3980057251914088,-0.24700584933062977
4.521731466,1.5535477854757487,-1.3083346105127944,3.014401031220547,-3.2470817244303487,0.42261613525246355,-0.2500042054351853
4.561807003,1.4368896103166382,-1.2874927270596532,3.0152700260630017,-3.355998116768885,0.41789280336198714,-0.25201278070797517
4.601730057,1.3249971947144334,-1.2536203220564714,3.008164441543969,-3.454415865478564,0.42777428491224717,-0.25428709731480376
4.641872927,1.1992853053199228,-1.2310849088529148,3.0322079323370614,-3.5116959515302018,0.43212104135917223,-0.24773671347377538
4.681737168,1.11085125992504,-1.167576973977317,3.0476141008608484,-3.615803189521575,0.45859537564596026,-0.24830566570366522
4.721724912,0.9908939153203962,-1.1039942702416,3.032295188878387,-3.7159616844543324,0.450237784392105,-0.24533080139133748
4.761725296,0.8676198691917469,-1.0339582917401624,3.034655040801143,-3.848585865396166,0.44867187402385744,-0.24395782492388454
4.80173171,0.7918105892784065,-0.9609442458315063,3.0420918266507133,-3.925911097050295,0.46427696686285147,-0.2404714500690922
4.841743448,0.7158355417583084,-0.8675034257213011,3.0599685857808585,-4.023716765873822,0.4773458453586365,-0.22660724158370427
4.881738299,0.6535864536891046,-0.7884275860018456,3.0903666161600114,-4.07816751925344,0.48355360236341915,-0.19508531500333762
4.921723753,0.5669143905420503,-0.6756522432488198,3.147305381466596,-4.155028621695342,0.5017347912766617,-0.17840487454915488
4.961725688,0.5345044204516533,-0.6094246260220774,3.187475358355286,-4.205914161748364,0.5155372974104989,-0.1563301326038383
5.001729556,0.47422349346338316,-0.4744044801590054,3.245928229565134,-4.25369893595509,0.49875637565913816,-0.120157255699829
5.041727224,0.38558793860791163,-0.33039598315366486,3.3455287143845216,-4.278980056595472,0.4958257614394255,-0.07268426491469557
5.081723473,0.34665411574665117,-0.20805619554049823,3.422022966690152,-4.267266768142929,0.5041015094820719,-0.03510080223206722
5.121728741,0.26973954620011537,-0.10719199963064575,3.494324354408139,-4.250641735761067,0.501891359463843,0.0028850978983572086
5.161727728,0.202863204684987,0.039354741581056805,3.5573607781931,-4.23717465266025,0.5033558721460171,0.033945214266517656
5.201731776,0.14167030376916692,0.16399987833238389,3.583121329969415,-4.2240438739092525,0.4071207459698568,0.047715163346805596
5.241725101,0.0714983251906329,0.2984942222412437,3.6098795821290426,-4.203699368565523,0.38581179054990833,0.07294400229674278
5.2818534,-0.006541023388912171,0.41716791073088,3.619298804450338,-4.157456404659668,0.37467515929405226,0.09738022937038308
5.321723757,-0.07471066527598283,0.5502023311494456,3.6059176630932406,-4.117724600673585,0.3224811387890808,0.1170373031746637
5.3617466270000005,-0.1545956380625242,0.6591555083445254,3.616427262679758,-4.053139891710477,0.3073517218184924,0.13206605667149446
5.401773486,-0.2551074977856076,0.7882247240017155,3.6241668253426496,-3.986114260489182,0.30198541799579504,0.14323513790273312
5.441745417,-0.340717929575667,0.8827120443647538,3.5955392138009232,-3.9192328105696315,0.2768188520569082,0.153599742389628
5.481722818,-0.4299912500198002,0.9857907907201197,3.5669843758204283,-3.8609198486002683,0.25678927768224197,0.16254760268685406
5.521750518,-0.5536204456383137,1.0986884051478092,3.5266704410156917,-3.7655800896775187,0.2546033689510472,0.17026030521167543
5.561747982,-0.650398655113841,1.1765626302732644,3.4831264169552356,-3.6890876562623016,0.2650164530897988,0.17588855631826977
5.601722684,-0.7786049459394017,1.2424252895989556,3.435153620257866,-3.5797475635741463,0.24189107401112928,0.17617196229447793
5.641844282,-0.8957021639478803,1.3089969906874646,3.3654317400479603,-3.4965748361925097,0.24259648042399942,0.1797742254356255
5.6818291,-1.0187436233247706,1.3540337034910073,3.318477343562636,-3.410873333136617,0.2577493352256741,0.18121466350907214
5.721722828,-1.1413712522790116,1.3937434503015522,3.2468222003897216,-3.341475635212199,0.26425174320171185,0.18492496207738504
5.761753314,-1.2701937776548062,1.4131279959430625,3.244833594278881,-3.241798493304484,0.27012968768270945,0.18576682327045962
5.80172328,-1.3677388056735909,1.4373112030954707,3.2041511916787475,-3.1751544639079556,0.285293679437791,0.18794566279740407
5.841732997,-1.5538570692023677,1.4391094216500997,3.1774020002522723,-3.0737117080715137,0.3096908648042364,0.1911551984074663
5.881738214,-1.6559910967618738,1.4595119303886785,3.1463167795504687,-3.0162047521350916,0.3003693577105284,0.19684620007217826
5.921729129,-1.7830198718117778,1.4206389324092692,3.1371836714387027,-2.9204624471608285,0.2971874208702076,0.20152864503884144
5.961722899,-1.901418008678531,1.3766369918970136,3.097626527809876,-2.8142171723031475,0.30906486683954587,0.19975281714483933
6.001725354,-2.0612179905120653,1.3342679639120456,3.0570566114056543,-2.699707642005204,0.32290739013040737,0.21049230477371159
6.041724861,-2.131296791950592,1.296168300609916,3.022096445790034,-2.636724043346372,0.32358589696695567,0.20997058953104913
6.081831783,-2.2283210577173147,1.245473648977032,3.0170374006805125,-2.5660160029246155,0.325297934275773,0.21035829821708973
6.121724657,-2.356965481087167,1.171519457589363,3.018905390790047,-2.474110795456753,0.35305044342616165,0.20646493565475854
6.161724612,-2.441537100110379,1.0707628027369132,2.9974867776551015,-2.3616352360804913,0.35918926600210604,0.21196375739130463
6.20172446,-2.5244497391224345,1.0238578759955952,3.0204299530164023,-2.290517830229881,0.36287618651954334,0.21575159853905795
6.241724392,-2.586133763545245,0.940103158911287,2.9994610939952393,-2.1954446022291876,0.37420176006610034,0.21884489735182494
6.281827497,-2.6574046841017918,0.8392179723468508,3.009883639984212,-2.1039397923799936,0.38464115187033104,0.21520496497664054
6.321727446,-2.727699171249045,0.7247068976985117,2.9672191242841457,-2.0122164507735687,0.3816516761854245,0.22243484334830585
6.361739455,-2.765957318958593,0.6423152578358915,3.002015430655295,-1.9046845077176389,0.38932535959037495,0.22311828697106148
6.401742344,-2.8076372700802517,0.48394804251528256,2.995894135723817,-1.7909404658929382,0.40266193364690156,0.22252934664554097
6.441819242,-2.844132601031255,0.3996169132721262,2.9776845798426836,-1.7419746128774625,0.4227912302341759,0.21995649425167701
6.481745082,-2.8736908456242563,0.2779813318978506,3.0020921213034284,-1.6283610143922225,0.4102525440811656,0.21885468115528406
6.521732599,-2.854717785582126,0.1389293495794731,3.009929173249532,-1.5453763140896257,0.4148602111514343,0.2114707092148125
6.561804758,-2.8565586705947354,0.017594614677807506,2.976493061637277,-1.4302968998890686,0.43613009504241457,0.21834598252272513
6.601734415,-2.869942116477867,-0.08033896055615385,3.0380419727733865,-1.3770547728941416,0.4261646924779575,0.21213744717937183
6.641744344,-2.8226424761521294,-0.2017787983845152,3.028366613096965,-1.2740591014654659,0.4273943800837067,0.21331228098747584
6.68172615,-2.7949431647210643,-0.32195787523162156,3.040837281957748,-1.1856290205597795,0.43488933218738207,0.20772503629150182
6.721725472,-2.746478032839724,-0.43214549314299133,3.039646234641239,-1.1216814072032768,0.44023512652499747,0.21464471871892993
6.761722147,-2.6808963809063173,-0.581558776017579,3.026577302557124,-1.0059130639562386,0.4235675316346558,0.20823399779228585
6.80173248,-2.616615801783889,-0.6677976646893695,3.0467064610726178,-0.9235728319109543,0.4165879576612302,0.20933846308307683
6.841736398,-2.5524113042449206,-0.7533431150118273,3.051918979655386,-0.8263070101527281,0.42374984578005365,0.21134304505395285
6.881824912,-2.48742315942126,-0.8105962911642142,3.067716507992726,-0.7723301408039105,0.4123337496923461,0.20448113245211777
6.9217292310000005,-2.3794841879351045,-0.921869352083461,3.0292723769402268,-0.6526867219159799,0.39764921373800105,0.20989558345008738
6.961818911,-2.2868509646080444,-0.982171889999658,3.025334781792272,-0.5880317126227396,0.3983929184240272,0.21014523841199764
7.001792942,-2.1910420942569857,-1.053978865412562,3.0410049452656636,-0.488544782160025,0.4021271257995111,0.21677102310115404
7.041833456,-2.0874887075616577,-1.1171479743678208,3.044116189138715,-0.39004843766014247,0.39821249505732,0.20046592522553439
7.081722238,-1.9622934247119563,-1.1437166439112907,3.022473965278545,-0.3312085148246261,0.3787285892174001,0.20518764991333516
