time (sec),x position (m),y position (m),forward velocity (m/s),"heading angle (rad), from x-axis, positive is CCW",throttle (unitless; -1 to 1),steering angle (unitless; -1 to 1)
1.011727591,-2.255705999709411,-1.1174716891148708,3.2064525444170964,-0.1623679118643545,0.5212114716854374,0.23636044287866512
1.051743865,-2.126639560630945,-1.1349739708930247,3.2535179319175613,-0.06629964755598515,0.491575845889275,0.23018152720164775
1.09175136,-2.0044674829212448,-1.1211056861516389,3.2553939654378428,0.0332085821541963,0.48679746761409,0.23866096805014406
1.131723923,-1.8533260863500485,-1.1094552132620943,3.3098424484026245,0.11832453860092974,0.48910815030796406,0.2389796564774423
1.171737375,-1.720358581465622,-1.1104824909353876,3.3168541127221856,0.23131875357796597,0.4471795092774185,0.23695204004564344
1.211723661,-1.599071911562947,-1.0819760222632948,3.2914591886835787,0.3206729210668661,0.43096145731893615,0.23412379908325617
1.251723976,-1.4769585612767013,-1.029667829915409,3.2788624050699102,0.41923310966578087,0.41580332311211415,0.2286632555457524
1.291779922,-1.3527282539911967,-0.9921501455415311,3.2633768098350107,0.5211649549978764,0.4255513723910593,0.2238301094310526
1.331729786,-1.2338742822488578,-0.9143053064672709,3.2429481153635513,0.6375403840434641,0.38474973775416027,0.21317847471370052
1.371719225,-1.113770049996561,-0.821477090714163,3.225302873618984,0.7289445154912941,0.3768413580105372,0.20854266372984998
1.411724463,-0.9978655527650525,-0.7289351989381632,3.203188947641327,0.8376807808438305,0.3796575340297665,0.20576348116293727
1.451798597,-0.942929035200745,-0.6884502561539044,3.166609882840003,0.9033999459284083,0.38708952465422625,0.18955906788603588
1.4917288910000002,-0.8794539809871547,-0.5791835405557678,3.1749605403354972,0.9673596317341514,0.41032928722893536,0.15526296815369317
1.5318023649999999,-0.769568125796883,-0.4372992559106513,3.205779733758021,1.0575737229974957,0.4257189466247922,0.12841348383606127
1.571717604,-0.707759440778829,-0.34161391251426854,3.268498607602833,1.1329044378868636,0.44875560301018114,0.10872771790666344
1.611714533,-0.694469032277769,-0.20452193335102506,3.2878113171311876,1.154263307701128,0.460012492587951,0.06094871604228328
1.651727796,-0.605296142086239,-0.07360338518483098,3.3179021263491775,1.1782937497323955,0.4720745621546584,0.008985806578868421
1.691716143,-0.5549831114777332,0.027844829091294508,3.4211667781323616,1.172017162118388,0.47892805116898407,-0.032827210201913454
1.7317145900000002,-0.5114722575610504,0.14053975053369974,3.4472470708234693,1.1591578581639614,0.47054572558486046,-0.05834173902473084
1.771730228,-0.4592507520175031,0.2508233036664987,3.5026901801342776,1.1309942718607198,0.44989035626307144,-0.08707151456844585
1.811739057,-0.38313685435481526,0.39011921528692045,3.513507024220849,1.1144354917332673,0.43083734943454927,-0.11084558448396793
1.851728029,-0.3195052120736376,0.5255060895648965,3.5555807182783083,1.0509589618774293,0.43364727671483144,-0.13055949442970632
1.891733287,-0.24639354787072681,0.6252146030917479,3.5622243728382887,0.9821097053281784,0.4081435599007539,-0.14309007707959429
1.9317412530000002,-0.1611540936726817,0.748460393415033,3.5845551263937563,0.9267627380887175,0.39625929560983886,-0.15642432230189382
1.971734474,-0.08450682097948561,0.8500683189596642,3.550793568504572,0.8277088802860915,0.38837510573627476,-0.16508617158751906
2.011740379,0.024934396684522367,0.9414654310335367,3.552195352913591,0.7546874851288187,0.40100586007392414,-0.17200779406254024
2.051808914,0.14487512633984959,1.058273557058395,3.5435431816671263,0.6313092544856094,0.3790807092180954,-0.17024701489835417
2.091728358,0.24596571735609674,1.1274779010983143,3.5408860360128975,0.5938342569010111,0.37869245123688283,-0.17415118122352152
2.131725968,0.35726558450979795,1.232301280145346,3.554730955306489,0.5234238864080799,0.3847187755033689,-0.1770960656056541
2.171770761,0.4719426757347392,1.2799868758755433,3.5250460281959257,0.43688193548471393,0.3997868086611593,-0.1723798527881452
2.211728058,0.6020940168351973,1.3598539922783797,3.51107385271695,0.35394953439155163,0.3788650861406291,-0.1741445350572125
2.251748503,0.7205863289624684,1.387264487734238,3.49148469777872,0.261115749453074,0.37837146458451565,-0.17627002577720818
2.291728788,0.8477805740156992,1.4514897396495008,3.4821545023006406,0.1543613363969807,0.38886099341975183,-0.1786948654860032
2.331750755,1.0155255612048786,1.4773014213794688,3.4607058158879673,0.0917920507898866,0.38745885107595973,-0.17402726304012817
2.371720246,1.1874907383611526,1.4768771302057557,3.4745510126145542,-0.010924135141806412,0.37356925415390374,-0.17477244827392716
2.411722735,1.3173523918165033,1.470498198792043,3.4227214420693635,-0.09124811923188327,0.3806178893720256,-0.1759830406589876
2.451811031,1.4543541115016514,1.4335227826649355,3.4145525033187685,-0.1829308175673937,0.3879987289590837,-0.1772690644230394
2.49172731,1.587596658135303,1.4225091748643675,3.423084036835095,-0.26104768866720957,0.36190080727546825,-0.16955066218499126
2.531755346,1.699629345519118,1.4193601004837728,3.4026172992564288,-0.34036225489702787,0.3663093785080968,-0.17007840030420918
2.571736447,1.8643374912948059,1.3448709009354494,3.3885316408371353,-0.4363100056032905,0.36797057135590944,-0.171635492269513
2.611729891,1.9722875454997069,1.2955377348184882,3.383649143265533,-0.5150502973078421,0.35855948622629186,-0.1742267147204417
2.651730889,2.046789642927848,1.228125336115694,3.3920634082850922,-0.5810159984497658,0.3558688712634284,-0.18228536131834513
2.691739834,2.1581389698143396,1.1639015791743195,3.36619054411301,-0.6632404299502815,0.34466060219100747,-0.1794049225947936
2.731730447,2.2868932495516825,1.0725807400551324,3.3360184255916723,-0.7347776005364617,0.3524209999107038,-0.18303209310194427
2.771735536,2.392902370318081,0.9886860472145566,3.3288132446166,-0.8294929562435467,0.34348331235435886,-0.1922158451176698
2.811725399,2.4477794802861843,0.8858089065358804,3.332118059500019,-0.9038336828868342,0.3341243058880264,-0.1936425378911809
2.851727824,2.5379844024975893,0.7756909624186056,3.2951925767023664,-0.988400865867186,0.34182018241292206,-0.19550518261272734
2.891729335,2.6028436665889774,0.6645010378015007,3.27288270423553,-1.0942315715921018,0.35779377377388377,-0.1975188434592966
2.931726395,2.6670651199916366,0.5223482422689603,3.2690300059072803,-1.1875333970276993,0.33897907813507255,-0.1861735593221366
2.971752599,2.73440723235515,0.40967919721211465,3.250858179695281,-1.2829300983758403,0.3328901349828471,-0.19199422565032903
3.01174724,2.758400754747226,0.27506208135268356,3.24020854174788,-1.370820195708989,0.3424285789770157,-0.198896529847108
3.05175386,2.7717004332650883,0.17584507514825562,3.2068052408553798,-1.4677612469186578,0.33750203696111586,-0.20397813389108557
3.09173147,2.7711066404808826,0.048216919102578706,3.20603266347846,-1.5478941793277252,0.33340106381918605,-0.20279701884380133
3.131743336,2.79023054622293,-0.08525014545798412,3.158549237415083,-1.6369046944967536,0.3394468788114864,-0.2027567355462518
3.17173759,2.7589864206221484,-0.21539315273597548,3.1430880281800304,-1.7237560434794545,0.3623155376216579,-0.20918243542179027
3.21175033,2.7514348267164617,-0.3194635230736132,3.151485455435304,-1.816545758328964,0.3603651204185643,-0.20807879958899844
3.251744109,2.7252703327995698,-0.46138430094866195,3.123639665541867,-1.9177187375182356,0.3630009156796592,-0.20934574872430936
3.291741167,2.6839271026060953,-0.560207118958498,3.147361467202469,-1.999965582118094,0.3763566055989202,-0.21077548189298578
3.331739246,2.629238469860677,-0.6824543890127093,3.144666971611196,-2.0875438920634264,0.3969403658554241,-0.21331268226350905
3.371731476,2.573346082880336,-0.7994519528767137,3.1318686767669703,-2.186477628588214,0.38824572326538237,-0.21402626555176374
3.411735014,2.4816783067216672,-0.9038001168874331,3.1499559706278975,-2.270857335699469,0.3839970246285317,-0.2147543288569918
3.45173313,2.4060819444439883,-0.9833049612508903,3.1095147287359817,-2.367698702311165,0.400971972828259,-0.21650404595412837
3.491729447,2.3105058014903443,-1.0956802152554974,3.1605130291166614,-2.4444151330746724,0.4042380784529317,-0.20995929180651973
3.531733864,2.210294773348716,-1.1287066213747454,3.157526007672365,-2.5361360399998634,0.3894056177766717,-0.2104492357862695
3.571724405,2.077186463197489,-1.2273313979644331,3.1522016044689223,-2.6409341238380235,0.39989251830447764,-0.21022555380948
3.611723772,1.9955284559078448,-1.2632763687437965,3.1605351660446286,-2.693575602642818,0.4070778857183561,-0.21213757531980282
3.651823577,1.8432132138519755,-1.3409860068778998,3.185506674559813,-2.819452619577229,0.39634499074457447,-0.21056901269759712
3.691735624,1.7615056152720878,-1.3624495820523326,3.1580559917545674,-2.893386923529987,0.38178542037565977,-0.20620263986743684
3.73174373,1.651971846788027,-1.3634394741423492,3.166322504857802,-2.97992871189986,0.39150218685335914,-0.2140228569724768
3.771736048,1.5044756950290337,-1.4130777632380713,3.1598005097517277,-3.0749551810512825,0.377979417306079,-0.22077562962500666
3.811723514,1.3516934379539916,-1.4225891252493652,3.171961597109035,-3.2110999392716177,0.3757042576864256,-0.21771488564729682
3.85174711,1.2437598465356132,-1.3891286981594255,3.1554263857358174,-3.2606030474137957,0.3718817965037269,-0.2142674293567181
3.891736213,1.1421257437629126,-1.3785318878375301,3.1415157189204677,-3.360075272012253,0.3825007002640527,-0.21124658526521684
3.931740745,1.0315996473750733,-1.3506983405852093,3.1464243263522045,-3.4592814663980658,0.3670412208781133,-0.2013028789787073
3.971749258,0.8556663135341406,-1.3011976864703951,3.1449468866350383,-3.5734984581580798,0.3658533213568298,-0.2063691383739209
4.011728123,0.7898015380641287,-1.2429810444962968,3.140283014220422,-3.650623610194698,0.36615807459236777,-0.204021075921349
4.051775181,0.6574549047925151,-1.1881544278556904,3.136002459681635,-3.7306041966853445,0.3807497165011722,-0.20352939667104872
4.091731867,0.515394138390911,-1.108058606700988,3.1244530452244175,-3.8557984627045827,0.3601808733957772,-0.19543127390469092
4.131730515,0.4779432034415808,-1.0360313075710772,3.129881127234835,-3.901677311128171,0.35349683415793703,-0.20363686800744632
4.171733242,0.39894841724120006,-0.9561303422562472,3.119124653259871,-3.9990764311232034,0.36236219514600193,-0.2055992223116986
4.211789659,0.2959032876881986,-0.8074837452148426,3.1030577473776453,-4.120322034670487,0.37141411420164566,-0.19415373804914096
4.25174668,0.22237126682914182,-0.7479211459268021,3.121415128307838,-4.17796004167056,0.39947299900131134,-0.16872641113678735
4.29173229,0.15278696903584435,-0.6251581346775659,3.158965001385681,-4.251564850084781,0.42760986377459076,-0.13547690875280383
4.331728481,0.10492426908386196,-0.5292552011779708,3.22899556207985,-4.288453911759275,0.4486498793751622,-0.09507582375855372
4.371728922,0.04519340788589467,-0.3666344676564209,3.3414636994439695,-4.31594924272361,0.4534200807523199,-0.06365433248315984
4.411731086,0.017729042101935148,-0.2686410544073453,3.3791614671617145,-4.339469648708794,0.4529480572858228,-0.017880988429909803
4.451815878,-0.040220549034859325,-0.14729246498935827,3.46018363584587,-4.342253531668757,0.4466083537919126,0.019752208141645834
4.491736621,-0.09811875582942572,-0.026728228740281464,3.512341812780367,-4.332908267143404,0.40845842415555816,0.04882924083288223
4.5317319860000005,-0.16238189859315164,0.10278452172321836,3.532620259599201,-4.282450635773588,0.38566853164756587,0.0739757109581563
4.571777952,-0.19575402249963042,0.238949944325905,3.57638796195169,-4.277861682800957,0.35556928495468026,0.09685382387774627
4.611731136,-0.29237526513868073,0.3897434401425805,3.570364311239707,-4.215382665048991,0.3382241683503118,0.1168397330629789
4.651728972,-0.32983157745160535,0.48315264774264227,3.630268999727992,-4.174317579978838,0.3044958381373582,0.13086766938952157
4.691739728,-0.4234736202671909,0.6353004428687474,3.569261765020434,-4.0970354489839105,0.2730476020891271,0.14524009850640374
4.731812961,-0.48196801088809826,0.7047350676496807,3.562790043379708,-4.026769305096565,0.2630663962070413,0.1539614620286008
4.771733652,-0.6170139288650491,0.8485614703987958,3.5245561320257903,-3.941304999084501,0.25188873855718785,0.16800938691412307
4.811726711,-0.7219519974476384,0.9674832310928707,3.492321791961276,-3.8338941217770275,0.2344734473539179,0.16823925132073814
4.851733224,-0.7957841868746081,1.045799233034205,3.4398730029732563,-3.7727573860921226,0.22717939341282523,0.17819118808756593
4.891733098,-0.9409243201933769,1.1291309962964664,3.3896886860250093,-3.6537993424711304,0.23352486235246506,0.17318581478611164
4.931762534,-1.0230002011358814,1.1867724521276273,3.3384580465190123,-3.5981684891839607,0.24137420679886554,0.16836038752005247
4.971771659,-1.1569644471119345,1.2515096923881754,3.287439119116122,-3.490602284331255,0.24606369133076852,0.17573618007183378
5.011824487,-1.246637331121368,1.2854910631784806,3.25194833513184,-3.4136690196308668,0.257139469123576,0.16874117210896028
5.05177965,-1.392567573685368,1.333042517938871,3.188423938982658,-3.300958191329204,0.2877428711973782,0.1772232630625139
5.091729872,-1.5383820275746152,1.3533469407459955,3.1530983949236604,-3.193863014137552,0.2979872837893271,0.17094353683338773
5.131817237,-1.6487270541441204,1.353935452464726,3.128865360061382,-3.0973546371612652,0.29765112097788815,0.1726766339723029
5.171731101,-1.7624869803422125,1.358694452999062,3.104975759107325,-3.0436700562776458,0.3191687488627392,0.17497626821168993
5.211727899,-1.9226466215679137,1.3430852142379293,3.11552913520697,-2.92627598789286,0.3376218657283207,0.17103752629592545
5.251726744,-1.988997398807328,1.3332799508130009,3.0980822353797817,-2.8923708902808536,0.3292532539349987,0.17206699664324152
5.29173002,-2.157575956760092,1.2765806518386489,3.0970162148047975,-2.762317822082677,0.336461016709183,0.1806236040429037
5.331737446,-2.226295893316974,1.2177586200258106,3.0761162814602465,-2.7056967198298834,0.3410974743867703,0.1768401546350792
5.371724345,-2.3717170554020988,1.1697719534337143,3.0677624224098072,-2.597493174662782,0.36433353629698867,0.1882102753249339
5.411731361,-2.4379964444414104,1.114191832901013,3.0520078063091947,-2.5211919322006326,0.3301513357785488,0.18425699081765315
5.451805103,-2.5420656366758196,1.068406056018421,3.0533981697829566,-2.458785903416838,0.3422576577841599,0.19402184235488557
5.491731316,-2.663778517494742,0.9500136666213606,3.0771790549546445,-2.3363700515654404,0.3443636233929197,0.19029120946348652
5.531812693,-2.7240113469734735,0.8809255927544206,3.036984031968047,-2.261512217017493,0.3439986512801761,0.20036746002802772
5.571732509,-2.8053578778190196,0.781184302888323,3.041072171186647,-2.1579851772303424,0.3338777731977185,0.20105154300028386
5.611725842,-2.860173345952191,0.6746097977444936,3.013202421399419,-2.077197221913696,0.3319234966476648,0.19374242782798348
5.651754583,-2.9258533597780665,0.5789414812795934,2.9908976780004854,-1.9738328014855693,0.3586402203109424,0.20061460738208375
5.691727321,-2.9727851535521035,0.4462023885482923,2.9960542263349748,-1.8494689495431456,0.34168315499908286,0.19556003263884206
5.7317691150000005,-3.01148195696072,0.30949825928563207,3.0003704954202695,-1.7794107497088272,0.3468884894093327,0.1990322407631348
5.77173078,-3.0094732286001653,0.1789758664497657,2.9638033629654976,-1.6731022414700945,0.3593848488164835,0.20241668423854187
5.8117269910000005,-3.011263725447942,0.11061395113219467,3.0115498113919075,-1.5956936288286439,0.38031011732719183,0.19829564326984694
5.851722446,-3.0326066308106836,-0.03524312995769184,3.0447862826270793,-1.489282870272248,0.35386136972693444,0.197291722902121
5.891732593,-3.0097464896046766,-0.11681062266097714,3.010621141159024,-1.4019664225792938,0.3772115927380251,0.20180711589928332
5.931732564,-3.000015090459135,-0.2428721798849111,2.99467824814173,-1.33650094350729,0.37948496889438,0.21125680156765053
5.97174224,-2.960426739765066,-0.35146959243894665,3.013625649635299,-1.2112666417821534,0.3639149826971572,0.20718137703940598
6.011746546,-2.9130707100995528,-0.4889694307002647,2.9979236972602816,-1.1279645213326805,0.3838196241773,0.2154013036158256
6.051843598,-2.879027540688363,-0.6038825792870315,3.0269921771288555,-1.043880665599622,0.4015221290155771,0.21787106447319096
6.09173441,-2.807141736294502,-0.7016218166264455,3.0330531206121187,-0.9339388829775032,0.42212886666182764,0.2183752212894936
6.131851139,-2.7378801173233533,-0.7966731095619014,3.0443595440486986,-0.8586246821277396,0.418277592312166,0.21700351104371016
6.171734541,-2.630860040195893,-0.912555820830702,3.059417432210283,-0.7371701764573461,0.42060756187714565,0.2186588460872986
6.211750495,-2.5600653976629397,-0.953529053095761,3.046692776660736,-0.6586921738181076,0.43949825177763324,0.21750920516535385
6.251739921,-2.4636610085695567,-1.0470740966970402,3.04943392570218,-0.5601371396417102,0.46854280573073004,0.2158984488676422
6.291737719,-2.366621064370697,-1.0966559314550475,3.096963339269714,-0.48206520932991426,0.4376826870803997,0.20236966394166547
6.331746112,-2.264607945594605,-1.1593784535651528,3.1119356281972,-0.374384593035531,0.4552839933843781,0.21065948976162527
6.371718975,-2.104642453273491,-1.2245111397602104,3.1439771654667052,-0.2970437805305203,0.4785939187179792,0.21106542921891405
6.411725392,-1.988725313269426,-1.2483391956495178,3.1665599838616627,-0.1881352575303552,0.46277173731459925,0.2048378358980653
6.451814532,-1.8852691320554367,-1.2658895802936099,3.1826032851496397,-0.13241645632401938,0.4523570547807604,0.20548385797515742
6.491729885,-1.7241339806782756,-1.2793587278287775,3.2031927806791756,-0.028647393471152888,0.44144169895588187,0.19844223554291213
6.531734692,-1.653571217090986,-1.274440389602729,3.2473554063263985,0.05537420555465636,0.4550963771080933,0.19922508176295287
6.571728713,-1.4776575682063147,-1.2712450984559172,3.2398012932830125,0.17429551753996403,0.4868239813778592,0.20623581767176669
6.611727178,-1.3376631597686053,-1.2423396100579023,3.2468631658727545,0.23667315614985984,0.41997767185426277,0.19439421992381095
6.651728949,-1.230895563949381,-1.2219133409965455,3.2505088649997513,0.3295102697948864,0.41324519809752513,0.1946494196884017
6.691791382,-1.1059279620858269,-1.169462845212822,3.2663504587964693,0.43815527125947423,0.41944087687231235,0.188567967073304
6.731818148,-1.013355029362976,-1.1245305041519165,3.253932530765422,0.49341158231397303,0.38866148084594165,0.1857940848266361
6.7717300080000005,-0.8855727503844343,-1.0601627984397692,3.258984038812129,0.5951327316807912,0.38517706103177124,0.18992014036974753
6.811731571,-0.7693607868713515,-0.9830870763006189,3.2358730045122543,0.6717067702939375,0.376589965846367,0.18154396623606284
6.851818695,-0.6836441291188209,-0.9092996913947857,3.2429034454879178,0.7647928293457537,0.39618936454585124,0.18804770000804677
6.891725585,-0.5852579313343433,-0.7889890737734575,3.2164786364678926,0.8766705467389675,0.3648417925130813,0.18071373868090912
6.93172666,-0.4818596715260098,-0.6870484935895704,3.2109941304971223,0.9678421220953395,0.35405875159718797,0.18434600178591953
6.971730373,-0.43145011168613717,-0.6300096959341603,3.1939532787450022,1.038005645612688,0.35639811027387747,0.18774879051443027
7.011724287,-0.3677006770305506,-0.511765759096517,3.215992734416838,1.0933557315864801,0.3560103889353992,0.16879503770966395
7.051730837,-0.3252515914613839,-0.3898949050442236,3.1853312912694047,1.1821011800707142,0.38546936182281827,0.11583361932752126
7.091727039,-0.27398809679360026,-0.2757633095301035,3.2090984689459474,1.2426905391065708,0.42112302756214653,0.07094720615056133
