time (sec),x position (m),y position (m),forward velocity (m/s),"heading angle (rad), from x-axis, positive is CCW",throttle (unitless; -1 to 1),steering angle (unitless; -1 to 1)
1.011620762,1.477640582832975,1.1424012558902845,2.851891515736327,-0.1899743349685654,0.3600256449669432,-0.20909656132418117
1.051621772,1.58994926785777,1.1183182297147396,2.874875914024441,-0.28495091628796715,0.3461227146748826,-0.19283081993277082
1.091623799,1.7131242602895993,1.0795752065191042,2.8847819202131713,-0.4123265348214866,0.32707763020509184,-0.20120254130454243
1.131642223,1.8119144005877248,1.0143408368071711,2.8702652975910152,-0.46534005156052755,0.33304962143739564,-0.20212618919070174
1.17166871,1.9118012085867293,0.9763512735683716,2.8841134878555565,-0.5625179049032195,0.3344033926777051,-0.20245183495891403
1.21163803,2.0041433228029413,0.8999043781301854,2.8669927038424636,-0.659238754523036,0.30802333827113704,-0.19552390978187864
1.251635043,2.081266797238046,0.8260775722745755,2.8679541684196366,-0.7590767550192686,0.3114710082331778,-0.2014386744360417
1.29163058,2.136015590703169,0.7478399991196248,2.8446860012147086,-0.8661598702739808,0.31542762539241626,-0.20110568516048558
1.331619657,2.2343444759531175,0.6568159392475045,2.871638058641871,-0.9262566982136209,0.3348595091230204,-0.19903854777981986
1.371621121,2.2707827900295676,0.5491449546180185,2.865717205069741,-1.0215395811523316,0.29984308560151085,-0.19816503468555313
1.411623524,2.357448093699563,0.41885977418397996,2.8726673640357587,-1.1371521803616105,0.30616460780925514,-0.19813153966740119
1.451627599,2.387150530716782,0.3518747977347003,2.859314411254228,-1.2274876993089425,0.3146566045392333,-0.1987519692438007
1.491637102,2.429414188863243,0.19957833105874567,2.864955096948257,-1.3110353197271938,0.29680961434989706,-0.19270406522861053
1.531702962,2.4460125534231882,0.13497836904124585,2.841554280477704,-1.3756943814724918,0.2842503857656752,-0.187881888990313
1.571629954,2.47798357866318,0.030920599038871534,2.8437265726600347,-1.4712609116501127,0.29254803671145496,-0.19864175364246364
1.61161393,2.461812559131881,-0.11776155579744867,2.845313990247433,-1.591972491847706,0.2843570155312144,-0.19111053310729395
1.651646345,2.4622529537410447,-0.21015434582554293,2.8223237738464615,-1.6584344318154578,0.2854055017403448,-0.2006871618175597
1.691627176,2.4298228353319744,-0.31797215516949917,2.7993497996591845,-1.7379504843192652,0.2812985666531014,-0.2043608472008821
1.7316342420000002,2.4160495841161214,-0.41927141758482134,2.7716512482301674,-1.8304547031955005,0.2959582873325317,-0.1996957027233619
1.7716267710000002,2.38459197281858,-0.5402322098035521,2.7919591128995,-1.9210649164528457,0.28925959116206723,-0.20032880219658816
1.81164659,2.3394415133081017,-0.651849721708408,2.7620709241552497,-2.0290003861672417,0.285373134526498,-0.2045891101311822
1.851639746,2.2892928130790744,-0.7339910135429889,2.778693311223028,-2.1072422905865285,0.29451115732238264,-0.20930287462865307
1.8916259210000002,2.2144894729967635,-0.8368673504700356,2.771917339094991,-2.208341091917094,0.3095705865397625,-0.21308738407953315
1.931619058,2.159852270184391,-0.9247188658544215,2.750762382453582,-2.2982561451166985,0.294132785828074,-0.20683227954955774
1.97169492,2.0827999268167563,-0.9886354186711476,2.766200729862038,-2.386448697760877,0.2912087322711701,-0.21059410264795153
2.011624413,1.9811136680866366,-1.057216628865671,2.770877505678078,-2.476690208835985,0.3012433903149162,-0.21384500433586034
2.051617634,1.91236848584848,-1.1012604116678522,2.743094534369285,-2.576775718158344,0.30862739429747044,-0.21009137298482058
2.091653173,1.7848767504227525,-1.196076550563015,2.7540784302020964,-2.679378421001499,0.30193065876513964,-0.2108290979870075
2.131620624,1.6919019963436193,-1.212261241090631,2.7452160503807947,-2.746019645884543,0.29503821590316087,-0.21353218696827858
2.171627788,1.601126319186843,-1.2531326825483176,2.744501115600379,-2.875714327197669,0.31742480443129745,-0.214966788903159
2.211623285,1.5001938471709964,-1.2745771116292737,2.752083717872505,-2.963129580436885,0.3057066367255226,-0.20626843158147357
2.251704721,1.371199300814078,-1.3069746394979551,2.7564875979504095,-3.03682487931933,0.3110708144199896,-0.21350997928661386
2.291630915,1.2749710026501517,-1.2904512546910354,2.743927725895704,-3.1526286713323324,0.3177476822446025,-0.2137748359573419
2.331647758,1.1625217030539416,-1.3052132292796583,2.7571059648494503,-3.244974666053066,0.34175111098784244,-0.2135091773982496
2.371618863,1.0242067880637358,-1.2681729055683395,2.742343811153696,-3.362131940739697,0.3174311725000449,-0.2056690455718145
2.411630813,0.949557847522301,-1.2338497332482663,2.770207953287387,-3.4192055256114773,0.31751472041964046,-0.209349815552474
2.451631872,0.8383150950638327,-1.2209910895797769,2.7668224241649053,-3.5206191533813107,0.3301840465906849,-0.21191380481393132
2.491628352,0.7558191452386478,-1.1686737746469118,2.798906303713982,-3.6214523179942546,0.3560127333178538,-0.20523578378560545
2.531635085,0.649896479391335,-1.107948984878146,2.7809318354790715,-3.703877109563464,0.32782218870355806,-0.20154752446854568
2.571635639,0.5682765930441326,-1.0422553599758697,2.768981739463694,-3.8066307191177,0.3279660587027988,-0.2047096318858203
2.6116140039999998,0.45761737623725823,-0.980755766865412,2.7892766470700154,-3.8753306846918165,0.3351622846696466,-0.20774806395971987
2.65163569,0.3916957471104806,-0.8950280690418907,2.7948641896352275,-3.97602615808799,0.36437623947509973,-0.21039871925561382
2.691623339,0.3024026233750473,-0.7980727104204384,2.772826726087934,-4.103159784370794,0.3323723390827257,-0.20421511255851937
2.731696595,0.2705397507693631,-0.6985620310373875,2.7970904209238636,-4.172429186616615,0.33197137403956484,-0.20689502645530872
2.771668501,0.19548895533929397,-0.6034057349774244,2.784779686131026,-4.280112170134208,0.3462449685383247,-0.20811383804105638
2.811627504,0.17368954535974399,-0.5082392918398868,2.8104683896958536,-4.356126110084182,0.35224807552051474,-0.16568614137560606
2.851664146,0.12395619608222178,-0.4050307144495244,2.826949311462891,-4.447917616054732,0.35780727081932207,-0.12771797556188
2.891634054,0.09935634466558131,-0.28865934204790367,2.8960018649965322,-4.494157885248647,0.3623426473241335,-0.07282630990894952
2.931627985,0.07587584150297697,-0.17922055842652396,2.9504454314540185,-4.529094901687167,0.3666373382097035,-0.03476612542918733
2.971632345,0.049770766151776696,-0.032599922555292205,2.9934312314060283,-4.544978562164267,0.3546281711090617,0.015942816816085635
3.011625512,0.04646301780580757,0.06832860884399092,3.024908896520261,-4.554934890490055,0.3234758047725942,0.06879314271995367
3.051630045,0.0171974960665904,0.18705332519895138,3.0870868681518044,-4.509051663071094,0.3117694305455296,0.11366099303848136
3.091624223,-0.02431922303627108,0.34619796568957883,3.115531804191606,-4.449275505189591,0.30631468587725696,0.15303394347589488
3.131704785,-0.07152781242919425,0.4560781843347026,3.108101567616395,-4.364874062138946,0.27535446210281117,0.17892185595516608
3.171752058,-0.11704302484859039,0.5551574684565398,3.1203346270841372,-4.3077650178901585,0.2598198138926147,0.1995039291184587
3.211626083,-0.14958968051338647,0.6524880356846245,3.091857966103953,-4.242887451524452,0.2579247636778034,0.21033209567623654
3.251627003,-0.21470826298730605,0.7574966975713956,3.101315595086546,-4.165632139319592,0.25603161681900966,0.217530921692248
3.29162112,-0.2938016397047708,0.8677351934072138,3.0536734224476874,-4.068384475298658,0.24941309132409095,0.22312895522345394
3.331639549,-0.38438295957984076,0.9715175873807601,3.024928858143474,-3.9351488517989646,0.2615169435060152,0.23278382601695893
3.371653792,-0.45182940282862444,1.038214078257095,3.034821273122902,-3.8595986217796425,0.2861692390628978,0.23430739772990802
3.411631052,-0.558159572428224,1.1225107214095826,2.9933764829478493,-3.7750926119923345,0.2780451763619893,0.22609102859988525
3.451703706,-0.6238812824617553,1.1712363389103972,2.941323650386443,-3.6559467229274425,0.28120518243386444,0.21867428845606432
3.49162142,-0.7701849693991127,1.2700789365262255,2.9209348574830982,-3.5287084135577107,0.30090485525951755,0.225464116807143
3.531619036,-0.8442757926670815,1.284967582656032,2.9189525347474605,-3.470539183855163,0.333424245687568,0.22273162139828315
3.571622234,-0.96663751729498,1.3199003526726087,2.9016081093437505,-3.345917989222505,0.31844164034189115,0.21156357021393613
3.611625247,-1.0685936005534649,1.3387526910476815,2.92457396053853,-3.295899201117468,0.3266975782384143,0.20228431980989373
3.651639255,-1.1766239436114911,1.3710649654838933,2.9160574589036288,-3.194186495016931,0.343520545689992,0.21019927949987677
3.691621398,-1.3376054859569915,1.372340834242465,2.924738376062237,-3.110244183652321,0.3688527918374871,0.20408165385380025
3.731617972,-1.420479174744513,1.3684414640877276,2.9452707861943885,-3.0446048672839483,0.3333561822381314,0.2049423356131913
3.771627924,-1.578317329779285,1.3158577186324583,2.9626954865713206,-2.961090463804013,0.33312456316358124,0.2109167540041292
3.811633646,-1.6654177291504098,1.2990268830773797,2.988982090233267,-2.8708411562521623,0.3377164866423936,0.21090196508781583
3.851620688,-1.7661648061754491,1.2509917500862613,2.981306891748465,-2.765639252593463,0.32950112575264257,0.20780341841639205
3.891641727,-1.9086976366861532,1.2162045554516785,2.9527543821908644,-2.639018968162072,0.30539632230344455,0.20649321643768712
3.931624502,-1.9576557743836878,1.1605511251502039,2.9830692965215646,-2.582145698338428,0.29833472865604416,0.21747427270018316
3.971627258,-2.0899619104324416,1.0983027881773484,2.9543828125894467,-2.487224616155643,0.31616344839832683,0.21966231341802897
4.011624216,-2.164144357929793,1.0331879922380207,2.9493035442402946,-2.4056604143268108,0.31055915499994013,0.2039847562412296
4.05163375,-2.279515813010244,0.9587337313841114,2.9288508444395136,-2.29779807845313,0.3021977458064395,0.21145561478360797
4.091624252,-2.335139798873996,0.8539543007601578,2.882483612428907,-2.206715684032815,0.3065339395021232,0.21191004286534942
4.131617906,-2.3909163593170866,0.777251808830805,2.911779008854079,-2.1182722505165246,0.3305724676257699,0.21333484667514604
4.171628497,-2.4566262384309807,0.6889743485435493,2.8957846523625443,-2.014155394533953,0.31349071401416606,0.21290080611247117
4.211620777,-2.4946859184109007,0.5531844249531269,2.902882522291014,-1.9338265791641946,0.32396307454283535,0.21308353641478872
4.251620871,-2.5433481497621013,0.4530111792877773,2.8765876584903634,-1.8374734159974648,0.3163294625116496,0.21281145575518778
4.291625948,-2.5649458483661998,0.3133454207592161,2.905406147033318,-1.7511541766296408,0.3207787869875554,0.20831565653370654
4.331700766,-2.597384559520814,0.23453172950837567,2.906557543629913,-1.6748705040912968,0.30803871462039517,0.20866919217985325
4.371638269,-2.6101138095127636,0.09674268196037729,2.8963921618281514,-1.5893018466777826,0.31054200583740416,0.20916192727592203
4.411621245,-2.599421777388929,-0.018877604205181617,2.901597587880755,-1.5001606999939214,0.32878440398444364,0.211317926092237
4.451626364,-2.5592747689434527,-0.11888799655867197,2.8739534391096186,-1.408810274701249,0.3031798749648648,0.21160009763051163
4.491627297,-2.5602821837098624,-0.23861761794493525,2.8849060695637205,-1.3314688557796737,0.29926565675226,0.2157274147861679
4.531621424,-2.5212932862570816,-0.3508444760488822,2.8944842761905236,-1.2351873977648193,0.30537805834887677,0.21810430041712486
4.571625697,-2.464822422884649,-0.4677242424434986,2.8847096727135972,-1.1155348611443758,0.3275442193336661,0.21981011523276675
4.611623923,-2.4277922056766013,-0.5646078132870441,2.8749840823858617,-1.0442116553680985,0.2976386367724336,0.2172207944573919
4.651624041,-2.37113414259105,-0.6608310993047911,2.869767992574628,-0.9662008577422546,0.2980781651341967,0.22089856402680877
4.691637096,-2.2915990826301513,-0.7649149768051354,2.8647011299440255,-0.8572301051435338,0.3019491943213484,0.21622375017984571
4.731616779,-2.2110318373477025,-0.8273976979545505,2.846959308188105,-0.7701773201725923,0.29505270177470166,0.2167251891980564
4.771644705,-2.1464942706046224,-0.9123983375847627,2.8335861159459674,-0.6875428420002375,0.29292153504119833,0.21821822752246015
4.811622827,-2.06040095824072,-0.9548932916540654,2.844738067693749,-0.5991164932742589,0.30073574547223125,0.22104427790107134
4.851700822,-1.9554678215139316,-1.0325777280179798,2.8214854217297938,-0.4923015421495345,0.3124299008591509,0.2173151771994933
4.891638116,-1.8341194572883526,-1.0788396820825545,2.821626580314694,-0.4021623641205122,0.3022342846769062,0.2195785969379576
4.931621669,-1.7328271309383017,-1.1333076954537935,2.8451874752744364,-0.326792605438516,0.30088955541988693,0.22248343420589795
4.971631141,-1.63585669687298,-1.15094670200965,2.834787102814608,-0.23002920675755864,0.3183779795532371,0.22463605827338812
5.011620202,-1.5156612817766368,-1.1627514585583145,2.830504815435205,-0.14028876785567354,0.3367379182049434,0.22714161115297596
5.051623107,-1.4014571166683805,-1.190428559643736,2.8387097255898515,-0.031971776741718576,0.3004079711955437,0.22474009400704545
5.091626481,-1.2831887684276444,-1.1909273611455498,2.821934913216669,0.08608975207474269,0.30566001772634893,0.2265064857808501
5.13164774,-1.1719384266549067,-1.1727282039895788,2.815731285658407,0.15960917210422246,0.3178544805502286,0.22755513916166062
5.171639806,-1.0517950318134255,-1.1591849768309619,2.811993345849844,0.27689691497447505,0.30833836756756916,0.21985349481531882
5.211619873,-0.9908475469256456,-1.120152699797687,2.823958923926524,0.3547365753710978,0.30124525941553726,0.2139497799790374
5.251623135,-0.8711344448252006,-1.0940810631425801,2.8125875142158447,0.4110920665663946,0.3165754623921205,0.22347592321121706
5.291625565,-0.7531963701910742,-1.0195904621280374,2.8242536882467175,0.5291851215814147,0.32247475548802307,0.2132060041533233
5.331626692,-0.6749053164174721,-0.9937163055275713,2.825472925744706,0.6174706963626146,0.31256635980803515,0.22196051286216098
5.371625934,-0.5532835970927505,-0.8941684590661945,2.8111700624810423,0.7115268285164349,0.31686585373011245,0.22483167723009273
5.411712,-0.4922996653197072,-0.8419585724995574,2.82023241847769,0.7787653034962319,0.32481009048270676,0.22040218016254934
5.451631452,-0.4197816460296943,-0.760455668519321,2.8536812466711936,0.8749208803108106,0.3551770162350343,0.22942778662501132
5.491627394,-0.3263427748739836,-0.6473154922788293,2.8510366243742746,0.99546214797943,0.31536226049746646,0.21788097462283654
5.531625214,-0.2691091520744494,-0.5513096644213998,2.829926353385818,1.0787960990551075,0.3214904254857393,0.22897846047483705
5.571623901,-0.24425240429042516,-0.45089541191659815,2.8098571258155993,1.1472540552052515,0.3332076652487459,0.23022121886695
5.611624316,-0.198877640076002,-0.3590416368068953,2.8266960146773124,1.2518356590071895,0.3253847048534142,0.15807913913189636
5.651625427,-0.16319591398042643,-0.25979310364625086,2.85108627459903,1.322017360359383,0.3365125464025659,0.10357988287245079
5.691628408,-0.11042214716931978,-0.11621846482630886,2.8714892804987096,1.3553258420003225,0.3547488890353686,0.04177896344028023
5.7317314370000005,-0.11517995591298424,-0.034572372310583764,2.9509795907948426,1.3368580979068705,0.3725225695303178,-0.019208966872006437
5.771629922,-0.03466213141390566,0.11618499980808601,2.9656770144101308,1.3126130262935538,0.3388938589821849,-0.06425959499471115
5.811625257,-0.033561183981902686,0.1975157950030365,3.001635100437335,1.2739102383407896,0.33093200085533414,-0.10385587995790488
5.851619239,0.0028583808355839456,0.3021751174357363,2.981554292846274,1.209591168674019,0.3238643184483213,-0.1351265196410981
5.891636191,0.04639812432358165,0.418005131280755,3.0128050722218456,1.150752031045717,0.30648476821297915,-0.1533442310926775
5.931617483,0.13446589231373,0.5482937514097239,3.01269373303044,1.0566631655199832,0.2967831138203758,-0.17315674217044708
5.971628577,0.14982248656748043,0.653764345933559,2.9842541528945734,1.0015637043623156,0.2994378087219909,-0.18624526394326876
6.011619388,0.24091670747122007,0.7340701193794839,3.0093992923892507,0.9080823750536545,0.31096085387624123,-0.19581716895008683
6.051631017,0.3050954921903198,0.8181174376317936,2.9727936569569438,0.8310432733260447,0.29119445668046673,-0.19301286387056144
6.091628411,0.3801675057345781,0.9327695168065309,2.955993311826917,0.7463869274262573,0.2981260912412006,-0.20267564821956063
6.131617436,0.4799331592144722,0.9756641354548412,2.960989353283451,0.6342228523815252,0.30366461182985055,-0.20485752627133536
6.171623862,0.5744442961072856,1.0493855886269476,2.9484099360078164,0.54966275011023,0.3129158519814576,-0.204139051286084
6.211625391,0.7247657526268504,1.1084415970948815,2.9223207826023962,0.43002058903844204,0.3097304983776615,-0.20448716746807669
6.251643402,0.7876028559345909,1.1666712702676565,2.9556458366478635,0.37196603403685435,0.3120981817560198,-0.20472323233324846
6.291631313,0.9002095800299135,1.1976924348773157,2.9244859200865476,0.2841056810582899,0.3294834462120715,-0.20426243823749296
6.331620758,1.0184887480779503,1.2361004908300397,2.9054905932056228,0.19230866690213264,0.32162789460220353,-0.1924404185521084
6.371627344,1.132425889249103,1.2350594670952684,2.936141931623776,0.09490170096271458,0.31124965991261533,-0.19921130060288975
6.411626732,1.251006183659366,1.2745712468433763,2.9277720270151013,5.20624537461797e-5,0.3290914030140976,-0.19795884488737955
6.451639994,1.3535284347755578,1.233292332219364,2.8822259969143866,-0.0947289994179883,0.33711255799324724,-0.18930581828148083
6.491637272,1.5116627617934804,1.225993345991268,2.907913212165837,-0.201003987655924,0.3160252189583024,-0.1907501697710368
6.531623262,1.5786661200681464,1.1994689494723194,2.8978049053424138,-0.2742035973365968,0.31917844874086304,-0.19379495081156445
6.571628605,1.6918965499551164,1.1893668919593536,2.8804692729729147,-0.3438745422407236,0.33136816177716705,-0.1980719043466284
6.611641384,1.8039453871294817,1.1254981288774506,2.9054522301390273,-0.44158105323115227,0.3150648651812911,-0.18810462449497398
6.651627426,1.9154318168440376,1.071536401872632,2.9025196029689826,-0.5362983916097138,0.31497983834842214,-0.19595040392296775
6.691628162,1.997013294602368,0.9967590538835205,2.8850922611966534,-0.63150536828234,0.3190527199852005,-0.198210259517143
6.731639222,2.069650651700557,0.9292774165221883,2.9010344124495973,-0.7063742149806427,0.32894751898778607,-0.1991594092784218
6.771630496,2.1780492620840457,0.8366930877289667,2.9186103042893854,-0.8116680933287024,0.35091639872168895,-0.2006434486469979
6.811620525,2.2851545802688116,0.7466308356042572,2.9039703098887277,-0.8958508103958142,0.3070672498732483,-0.19769790722891467
6.851639016,2.311826825197673,0.699674420670138,2.896222609482662,-0.9831797307442823,0.3118456620651189,-0.19968831424389388
6.891695867,2.3895972567471007,0.5491163552558156,2.876674443302143,-1.091479317390383,0.3245754253796436,-0.20247124268682157
6.931704579,2.445766363434786,0.4785757288514261,2.8950126660389564,-1.157370673275121,0.293917196917916,-0.1840373160374695
6.971629282,2.4766165265843982,0.36260872032207353,2.892023680888327,-1.2361732445557234,0.2918070854914516,-0.19622984004379038
7.011641522,2.5038582706759938,0.2613202672139221,2.8892829848377017,-1.3368028668181138,0.29146008921303945,-0.1950373043717909
7.051710338,2.54601218408719,0.12960597416758768,2.8972666911457248,-1.417277266620484,0.31666293605587553,-0.20756851543606686
7.091623803,2.5388819014854813,-0.019533864436431143,2.8825468678007904,-1.5326144785567684,0.285416388437835,-0.20205228639408926
7.131633429,2.5321711411600907,-0.09468294905779649,2.850809832610887,-1.6074866173931037,0.28603923052815183,-0.20586983489948035
