time (sec),x position (m),y position (m),forward velocity (m/s),"heading angle (rad), from x-axis, positive is CCW",throttle (unitless; -1 to 1),steering angle (unitless; -1 to 1)
1.004917588,0.9834387694683585,0.9135409044194616,2.6477217758809983,-0.012463286678006079,0.5193860459936719,-0.24824717411052566
1.044916926,1.1179346978267373,0.9097555103615225,2.6883149205386476,-0.17602728448848337,0.4743360261974172,-0.24298319400845755
1.084914099,1.2310103028458752,0.890502363355581,2.690750119277859,-0.23928638701865237,0.44601552420751495,-0.23462780927645088
1.124914719,1.332137170890845,0.8426039241135511,2.7128581470247495,-0.3431048553401432,0.44517993126517874,-0.2369352443137456
1.164954481,1.443525113400218,0.8215132000329425,2.7509029680893584,-0.43448111306999143,0.4235471883106405,-0.21660337156530757
1.204916924,1.533838576749623,0.741092963932651,2.785061113048768,-0.5101117934959158,0.4004989079256921,-0.21511350582785987
1.244969681,1.6334045583514716,0.6917655284904252,2.774629855908287,-0.5874170703883042,0.38175142252346883,-0.2159913925496524
1.284915983,1.734139735090715,0.6207036103502203,2.8041194166690278,-0.6702285802856229,0.3794500100503916,-0.2205115122649749
1.324979998,1.800701761748714,0.5566162838983222,2.8277777713223564,-0.7555811060430704,0.3481333604468684,-0.2181464658121069
1.364914626,1.8797734273250235,0.472875362663505,2.814915110628592,-0.8447697094471681,0.32932912070554526,-0.2252909118500694
1.404914759,1.9339712726894112,0.37459140062542223,2.7901159485746545,-0.94014476052968,0.3167964897885743,-0.23280427776120338
1.4449147180000002,2.008299870407435,0.28579273994618565,2.79885789972003,-1.0266161033723535,0.31970219767766106,-0.2380858333645153
1.484914792,2.063399322240656,0.18731105089192168,2.7973438705949802,-1.1195191653186989,0.2967918432674121,-0.23238822504491458
1.5249135310000002,2.0879383240385305,0.09127631092112849,2.7652890456569166,-1.1977133324342533,0.2916780506445651,-0.23643661481428133
1.5649194149999999,2.135137676097855,0.004763888062965207,2.765302474376367,-1.2826906964329838,0.2916791209757442,-0.24121243191468497
1.6049172409999999,2.1480087410101394,-0.1207450831738234,2.744823366783617,-1.4030220047444455,0.29578825435226,-0.23500221378824998
1.6449176300000001,2.18463867602272,-0.25264655565081745,2.7141522726248652,-1.472859056819027,0.2843045167083078,-0.2385109507784964
1.684916349,2.1751833869461055,-0.33811487928712675,2.7015788907594347,-1.5824849863158914,0.28442225006728733,-0.2507423946574149
1.7249161480000001,2.162480699055345,-0.4506727754894065,2.6762216305103506,-1.662983385593929,0.2897671332618845,-0.24812030212998762
1.764918802,2.1440969914394024,-0.5436784948821276,2.6762131056467453,-1.7754101770626274,0.29150562613476105,-0.24279065648600126
1.8049149770000001,2.1006558687660353,-0.6666170762542547,2.660528799101988,-1.8731047440676558,0.28536944679269965,-0.24740398223189178
1.8449182880000001,2.0733716106721714,-0.761114999857061,2.6611625684604894,-1.9581035731925878,0.29316831268790955,-0.2498672692095571
1.884917739,2.016590108046198,-0.8540552981662033,2.651501630857197,-2.0571584914476997,0.3099494332247043,-0.25362887029614456
1.92491748,1.97129830091789,-0.9509852196266647,2.637503792223296,-2.168058190975419,0.29883431629730317,-0.2508267320529497
1.9649172400000001,1.9040387392408957,-1.021111288622681,2.646138847548066,-2.23888303364925,0.30059862029974616,-0.2541256480114309
2.004917107,1.8416554505894591,-1.1131230565575243,2.6375622080174774,-2.3243088523485893,0.312168498280025,-0.2584110390559648
2.044918542,1.760741725539094,-1.1675088224069614,2.647132384310454,-2.441400150772928,0.3148216200740802,-0.2580268019549267
2.084916819,1.6665702350967175,-1.2486189419183922,2.6321676109719507,-2.526035829179737,0.31443385470717855,-0.2614409482535601
2.124916045,1.6000094923338175,-1.2987186833933846,2.6537645383332187,-2.61460689650971,0.3189097525177068,-0.2632415034933234
2.164943369,1.4841446940968142,-1.3400420031740474,2.640943296913796,-2.711157148082442,0.33467779075651233,-0.26553897417554856
2.204926285,1.4101602984367563,-1.3740849358171674,2.6467603083773508,-2.7567391358192617,0.3314799013302907,-0.2572889951001237
2.244917972,1.28446726186714,-1.4010894970026997,2.6689235723399922,-2.8909897955168313,0.32700624665345585,-0.2606467520741122
2.284934054,1.1796946465025548,-1.4340423834708134,2.636117046692974,-2.9896275415014464,0.3342974422479072,-0.26470077308184115
2.324933097,1.0825926836753643,-1.4305796992964126,2.639519008238544,-3.086556247570495,0.3627768589944755,-0.2753669103711372
2.3649162390000003,0.9807230780920229,-1.4197211443647797,2.657098823201456,-3.216763056209717,0.34419561851649105,-0.26020979639903946
2.404915992,0.8529298979481701,-1.437680270808263,2.6351681798390225,-3.300574460126949,0.34915947140880416,-0.26129750855654904
2.444919668,0.7475646307839494,-1.3829146388452818,2.646806390676747,-3.390642808381229,0.36907087168239117,-0.26212522206101585
2.484913135,0.6492959270035363,-1.3515634106545864,2.6815673899960313,-3.489982363502099,0.3756607996773547,-0.25825856326941965
2.524915966,0.5659270704202376,-1.3017254179295643,2.689866890766106,-3.6010329083155463,0.3761408925334351,-0.2553696653213153
2.564928402,0.4753653280925505,-1.2604976100051666,2.6798847175097027,-3.6934968236137236,0.376404879894609,-0.25411871159762345
2.604919273,0.36906709262392057,-1.1900051444464104,2.687290032281183,-3.787461351213278,0.39203949061847587,-0.2521142105819016
2.644919706,0.2901908842706065,-1.1202663830899235,2.7263793059605854,-3.8819743641727764,0.3935957588796785,-0.24242636741533313
2.684966726,0.23200969106372235,-1.0525994286482077,2.7137622353957997,-3.9652168551051075,0.3875367727023293,-0.24259279058059827
2.724926552,0.16629808016222888,-0.987120257617352,2.7573302421473325,-4.0381418369041535,0.3952264372973602,-0.24324257162252216
2.764929282,0.12184186950412618,-0.8890839612785371,2.74724960382012,-4.132886061850445,0.4078561621016447,-0.24528060078169067
2.804922219,0.04913621623845028,-0.7795780726137688,2.8083333410948845,-4.224236110415944,0.4112877214212657,-0.2069169971829133
2.844940657,0.022411513704810242,-0.6747574778396842,2.8260484077190156,-4.298661496757078,0.4153772065997905,-0.1763796148525102
2.8849251330000003,-0.05047407285870936,-0.5483872422084013,2.8803642286809112,-4.361036911255093,0.4134466138201383,-0.13673841144455515
2.924916318,-0.09900314841580343,-0.47662368519982706,2.9458565755841475,-4.381929415408779,0.3926624840642605,-0.08358435948660468
2.964921,-0.12160511538352049,-0.35016709825335746,3.005622447060324,-4.3985533727677515,0.37356708385500814,-0.034919145504878964
3.004928356,-0.15082886214112173,-0.2241077243969692,3.0285136288544976,-4.3747058790754,0.35573798902198295,0.010961237484857033
3.044929721,-0.18967644910831147,-0.0910536794900064,3.0810339955172648,-4.356659097407898,0.34366551982054583,0.04788123835036216
3.085001546,-0.22125178047178135,0.01025976851884645,3.1088962704531737,-4.357245780867295,0.3181482776818484,0.07316769562752674
3.124918263,-0.28266307617266295,0.1286408100329899,3.1571990612916285,-4.340558675453341,0.2911803854600845,0.10370038221634365
3.164919643,-0.32584568858343205,0.24439407941559704,3.134195074663219,-4.273731238906305,0.27219498566508626,0.13329078049043455
3.204984669,-0.3905808028331139,0.34950774398893564,3.1110780995237546,-4.219848169991441,0.27271669323414144,0.15970438301329243
3.244916343,-0.4397648042553237,0.4627158150807997,3.1283822038081,-4.182057227404783,0.25041106040557093,0.16680430532197668
3.284916106,-0.5142458443022505,0.5697002250911134,3.1194976040150006,-4.093045881811662,0.23910776031332712,0.18630166744642762
3.32491431,-0.6032077911731295,0.6635334909236921,3.0810442533243276,-4.027774559812001,0.2431805763357729,0.20234172439993547
3.364974034,-0.6714815241464003,0.7746613473201559,3.0575488039020087,-3.9416818644094787,0.2528353353616672,0.21692332421207128
3.404931593,-0.7416043415093304,0.8564345254904676,3.034506574793461,-3.8487768238960056,0.24062291041458256,0.22329484601663543
3.444916341,-0.8330269346843998,0.9301883585553291,2.9845845598125296,-3.7827280882562713,0.2393625307834316,0.2307400910372067
3.484917338,-0.902032596856022,0.9607950591302126,2.970957447438424,-3.717109062555153,0.25675567674491495,0.2372456048542974
3.524918243,-1.0432076956579754,1.0526257037985651,2.9245448589470513,-3.571582941274599,0.2792271188237591,0.2400332759232244
3.564931012,-1.155417932132096,1.1130603063674243,2.909186008360102,-3.493126386483408,0.2631727575221317,0.23442899680060186
3.604917655,-1.259578588174939,1.127541502454769,2.8671860918571275,-3.397180179616278,0.27898237833075173,0.2515605400807926
3.644917787,-1.3957959296488105,1.174967398657884,2.8638797363937623,-3.274196563359026,0.2961671140256824,0.2384206554931535
3.684918923,-1.4939167787501137,1.1674890420105146,2.8369673637130104,-3.2245295684774833,0.2976520917288585,0.23599717883179924
3.72491675,-1.614999638863346,1.179108434218319,2.8381366729992834,-3.1121607919017737,0.3065100662566115,0.23677100120127823
3.764916409,-1.6136936680268266,1.1840199101179387,2.8308367612387135,-3.0780994768212424,0.3103421772173765,0.23188483057006007
3.804920745,-1.8363499909387457,1.1715700499583666,2.814475090317962,-2.9473910440146183,0.338316597556264,0.24107371739494182
3.844917937,-1.9129965576793782,1.1316736198614405,2.7950086078423104,-2.86537550732244,0.31957855840761373,0.2387917572895521
3.884917797,-2.038532199408011,1.11035347256785,2.7970071682870494,-2.764436042039676,0.3301221253026521,0.262594461641606
3.924918072,-2.1437582906321513,1.0426983941445238,2.787852044070225,-2.6753803783449426,0.33188551200050453,0.24537739218762744
3.964922801,-2.23238196272832,1.0295439806566755,2.812574135436667,-2.5911738754255738,0.34371684754505255,0.2382731095628391
4.004918589,-2.331582898673335,0.9412963091816271,2.7718677675003764,-2.502427222858388,0.33651985250708555,0.24041377247874904
4.044917896,-2.4038485076638243,0.8846482474231803,2.7855605310871474,-2.4285670083102384,0.3416326425466017,0.24398930046197795
4.084917117,-2.4928656754538814,0.794660824550633,2.798431672344646,-2.313800692115447,0.34582856254552996,0.2490272816285035
4.124917825,-2.5770837461937646,0.7341577210128539,2.7969670625590908,-2.250149203191844,0.35368768216818675,0.24368894564652696
4.164919161,-2.6312368781922735,0.6536841801152843,2.802437803001768,-2.1772946456685918,0.342124723293365,0.2487324457288703
4.204918819,-2.6818565168396207,0.5524309470475589,2.8072140742024714,-2.0832477265538194,0.34634897397893166,0.25282701375215144
4.244924853,-2.7560314797687977,0.45968628424593555,2.810605965058164,-2.0026763941952126,0.360280167955906,0.2574661139784175
4.284919647,-2.7948080582126917,0.3265052871571227,2.8168004537723563,-1.8776087643288786,0.349675806960763,0.2604050837205274
4.324916964,-2.819077653048157,0.21364486859495882,2.7949918787406633,-1.8013752902541817,0.3455637572205622,0.2639173240861026
4.364917017,-2.8373535144258804,0.1125519873767808,2.801509256683664,-1.7109609562603263,0.35420149987195837,0.26778054077821317
4.404924397,-2.852756085136811,0.0031850601422753247,2.796173970327223,-1.5902936370837817,0.3694288089449178,0.2618580224042363
4.444915987,-2.859767963110635,-0.11822584197847805,2.7920268943607462,-1.5019438840462698,0.355849062742127,0.25178876469638345
4.484915504,-2.854406377186406,-0.21512332186796554,2.785474872371485,-1.425292272812907,0.3527761088334405,0.2537831707931019
4.524915937,-2.838464355618116,-0.3516816311365339,2.833666223914995,-1.3336938179342719,0.3669666473367048,0.2568951376959205
4.564917889,-2.8037814093516205,-0.4480902842798605,2.8088892692104492,-1.2291053942693746,0.36682631894863005,0.25267577172709005
4.6049202430000005,-2.7626804139379777,-0.5564199753849315,2.8273365537002833,-1.1480830227473078,0.3624264352276446,0.25351190560352593
4.6449157020000005,-2.7034046189091754,-0.6508439566420152,2.83202919495643,-1.0422854418134628,0.3536584539534994,0.2539157835094962
4.684919582,-2.645522424995937,-0.7447206751105332,2.826777223195085,-0.9806075549092963,0.37447158498738553,0.2555484084310938
4.72491831,-2.5903680117193932,-0.8563108116507081,2.8149373314383173,-0.8812867525035006,0.3652248588360618,0.2498707148641046
4.764999545,-2.5140496075095764,-0.9156794794603013,2.827331574769177,-0.7621420230316387,0.36190188727877237,0.25015578479524375
4.804917491,-2.4232999007205436,-0.999607220731542,2.840090782841399,-0.6822472884805562,0.37296084811764507,0.2517294466552916
4.844918682,-2.3524926449202535,-1.0774451583569695,2.825627985556205,-0.6165050383791859,0.37322638411402487,0.2515898160971925
4.88491759,-2.2305929792133825,-1.125051455789601,2.846035026434904,-0.51502819387913,0.3598278641106604,0.2528862963079133
4.924916886,-2.1538660827200284,-1.1824531056164127,2.852826172623799,-0.44932541966190664,0.3594762632403069,0.25367822123245604
4.9649169660000005,-2.0311173811553886,-1.2225734994586288,2.8648145377838485,-0.34342900174597357,0.3744831664608203,0.2549982481275402
5.004915788,-1.9425551210625565,-1.2805706285511276,2.881938252399132,-0.23822839455705233,0.38229765646961217,0.256628044351005
5.04491968,-1.8227024622783614,-1.2694828912470857,2.8802211507388353,-0.15645542085644612,0.3657411729340113,0.23153448933410956
5.084915736,-1.7130252915328323,-1.2984154140830357,2.8597427320666946,-0.07516378800027018,0.35561896154100076,0.24134658263964875
5.124918327,-1.598670825067443,-1.3038035903418643,2.895747656618246,0.004758711662224262,0.3516727889095313,0.25060880776485084
5.164918544,-1.4619726987500936,-1.2968581967441082,2.891032170661498,0.09826859321143064,0.35451713167899207,0.262653151348895
5.204917436,-1.372852908882598,-1.293373184042085,2.861384622352075,0.1875585184596807,0.34610952168872194,0.26408428527531225
5.244919609,-1.249250047406176,-1.260505343352817,2.858744250963957,0.32178627353390604,0.3440446465431438,0.2641077271917609
5.284915573,-1.1451989957007114,-1.2268172881173767,2.8357852027776818,0.37587819382523935,0.3523770316783934,0.26371281083805165
5.324941029,-1.0315453146197124,-1.1807478927403274,2.8584086590096733,0.48713851073529774,0.3733371034214187,0.25852123505337365
5.364921176,-0.9421595524055559,-1.1251788589992295,2.867390957868923,0.5657181435380338,0.3593878751326761,0.2377357821730956
5.4049416820000005,-0.8456517814590637,-1.0544889667316755,2.841693261080975,0.6668697136371475,0.35580814698241914,0.24239841613168567
5.444916986,-0.769216845758514,-1.0068645209174143,2.846858779926589,0.7551477132442297,0.35506026713917255,0.27101103717325975
5.484918089,-0.6597331319702127,-0.9218815429087045,2.8380084264383116,0.8356795002331845,0.3537361840011069,0.2617989287791001
5.524916447,-0.6092048991483522,-0.8380815835682802,2.8245476393460285,0.9387059351914281,0.35480541485199985,0.2541659834866381
5.564914665,-0.5428086664004738,-0.7497183668357557,2.8422719298607726,1.0117349441456074,0.36493286099838973,0.2461954766335589
5.605049663,-0.4991978518084365,-0.6752605360573863,2.836498086745395,1.0550447473459306,0.37638287633183076,0.2366084564402074
5.644919454,-0.4406909440206381,-0.5464464341598088,2.8716385083707916,1.1882582579184033,0.39431081410808444,0.22611833889420532
5.684914318,-0.38779387367334817,-0.42457516560093644,2.879976251091983,1.2677434150759557,0.37806449330208725,0.120707394401793
5.724967201,-0.3491937950983866,-0.316634562084205,2.908279879443337,1.3056021414351755,0.39148278667368885,0.06311928110452682
5.764915457,-0.3073383879812056,-0.20301583263278988,2.9861580852518035,1.2802114880274467,0.395072071634936,-0.053512339078796295
5.804928124,-0.27898735803011443,-0.10868944817283124,3.016298964565772,1.2678274820709103,0.3865647843103172,-0.09398569846828748
5.844926657,-0.23651107147804573,0.02291474024795088,3.0455277908918417,1.2377906995158559,0.3775280523169304,-0.12487552415276043
5.884915894,-0.21024174524987335,0.1354995795290707,3.0820784285879808,1.1816853285975912,0.36998075982129275,-0.14356213383583225
5.924916071,-0.14202814444677275,0.2601623293906161,3.0803547457925498,1.1287266088721897,0.36788691578205,-0.1572446660682719
5.964915928,-0.1026835351660889,0.3625216897605231,3.1163564104768846,1.0732342366960637,0.3737993754147766,-0.16716731798675025
6.004919937,-0.02664091823290581,0.46461703397123744,3.1148232092108006,1.0000007320993562,0.3258042515421114,-0.16541457013211291
6.044985033,0.030423958444107425,0.5625719589643573,3.106305422037535,0.9506126895793595,0.31113668752968526,-0.19097929410927736
6.084920814,0.1237401225317874,0.6657626147688648,3.0659109956809383,0.8530947624353183,0.30668618670180015,-0.2419332379462289
6.124927307,0.19883392972583003,0.7512574283034843,3.0491576507275875,0.7618314602325676,0.30430601916183014,-0.24212150285383852
6.1649304990000005,0.3026152689795425,0.8118437099865289,3.010539130778584,0.6469869491294896,0.30989110106239676,-0.23947928464394158
6.204929545,0.3919902754389059,0.8971891572430991,3.0054315562796714,0.5516051368011656,0.3268865084780306,-0.23266650643336448
6.244928602,0.49196892236086537,0.968395506739035,2.971993261796478,0.4483659783264442,0.322258624417423,-0.22889068483446226
6.284941589,0.6227206559825657,1.013326264622553,2.957353340141651,0.3551563108216189,0.33660548503524834,-0.22363954519722654
6.324994082,0.7218703468045662,1.065689104922884,2.935698497224056,0.26231474394834653,0.3536057403701455,-0.22086457747552202
6.364939119,0.8370832242014238,1.0918129002938277,2.914395890766982,0.1834953952266574,0.3490135897736391,-0.21062215292373704
6.404926678,0.938670606524333,1.105569523598732,2.9144729406930723,0.11496637903163241,0.3471918544877363,-0.21040465067122696
6.444917651,1.0606723576748671,1.126255863067926,2.9299576471000353,0.01830229870661182,0.3538007923394674,-0.21075016129480484
6.48492585,1.1497659480203182,1.099399650355318,2.9295896980956373,-0.05808581461039281,0.3673634754094431,-0.21233680557381623
6.524943506,1.2898556833022061,1.0881113008421301,2.914273713332899,-0.14692387414424926,0.3490871511460898,-0.20456915275876902
6.564973288,1.4066325396959227,1.0573716012160557,2.9243650002978385,-0.22173643566138873,0.33691955307968025,-0.21010641858265888
6.604916214,1.528750751156275,1.022832729188761,2.9240401704023493,-0.31521972040241863,0.3432474842819547,-0.2226838297411211
6.64505884,1.6307306711027636,0.9846327654776882,2.9077097232307163,-0.3918967075718344,0.35433610080490774,-0.22258743545905596
6.68491818,1.735583599836356,0.9264205750584309,2.920970576349799,-0.490880049258358,0.3771624689643482,-0.22736383127601045
6.724919079,1.8374960508044655,0.8862447536416812,2.916682439866917,-0.5745163457397157,0.32664832786767045,-0.19257371933537754
6.764913999,1.9450749045176208,0.8206720793192177,2.917634610379961,-0.6526637335851906,0.3074690032762867,-0.20619799273700867
6.80493648,2.001720650674573,0.7479713814826559,2.9031238628681173,-0.7284508377191903,0.3087350048585173,-0.21941811872417433
6.844935131,2.0793998155493605,0.6574563705718787,2.880664929374476,-0.8181693538579319,0.33577366457621854,-0.23638555221179586
6.88491495,2.178930755369122,0.5771333490882227,2.882805141005305,-0.942034622985152,0.29731298792927247,-0.22418604278228754
6.924915578,2.2321597950142764,0.4740260145131575,2.843277320668313,-1.0366148482317812,0.2935692696734946,-0.23776572416405123
6.964919257,2.2894341539465004,0.3733579511404976,2.8406902713673015,-1.1290932114963115,0.3006169750476996,-0.24162119046105546
7.004958525,2.3523161130920434,0.2712559770165234,2.8056523147735843,-1.2451503062174767,0.2869221219442256,-0.24091999352462234
7.044916819,2.346554543790543,0.14898800291386186,2.7921643929288713,-1.299445245439824,0.2962825679702514,-0.2385533639429714
7.084914823,2.385316149992833,0.04858779831262566,2.7915805886568603,-1.3947149694649739,0.29498070527193776,-0.23608076962050265
